2.00000 22.000
2.01500 26.000
2.03000 28.000
2.04500 26.000
2.06000 23.000
2.07500 29.000
2.09000 20.000
2.10500 20.000
2.12000 15.000
2.13500 19.000
2.15000 18.000
2.16500 15.000
2.18000 13.000
2.19500 16.000
2.21000 19.000
2.22500 28.000
2.24000 24.000
2.25500 23.000
2.27000 21.000
2.28500 18.000
2.30000 17.000
2.31500 19.000
2.33000 14.000
2.34500 17.000
2.36000 20.000
2.37500 17.000
2.39000 15.000
2.40500 17.000
2.42000 13.000
2.43500 13.000
2.45000 11.000
2.46500 17.000
2.48000 15.000
2.49500 12.000
2.51000 15.000
2.52500 14.000
2.54000 11.000
2.55500 8.000
2.57000 8.000
2.58500 13.000
2.60000 11.000
2.61500 8.000
2.63000 15.000
2.64500 14.000
2.66000 10.000
2.67500 13.000
2.69000 11.000
2.70500 7.000
2.72000 11.000
2.73500 9.000
2.75000 15.000
2.76500 10.000
2.78000 9.000
2.79500 15.000
2.81000 12.000
2.82500 12.000
2.84000 9.000
2.85500 12.000
2.87000 10.000
2.88500 8.000
2.90000 12.000
2.91500 9.000
2.93000 7.000
2.94500 6.000
2.96000 8.000
2.97500 11.000
2.99000 12.000
3.00500 10.000
3.02000 8.000
3.03500 12.000
3.05000 10.000
3.06500 8.000
3.08000 9.000
3.09500 11.000
3.11000 8.000
3.12500 12.000
3.14000 12.000
3.15500 11.000
3.17000 6.000
3.18500 7.000
3.20000 9.000
3.21500 7.000
3.23000 8.000
3.24500 9.000
3.26000 8.000
3.27500 8.000
3.29000 6.000
3.30500 8.000
3.32000 8.000
3.33500 7.000
3.35000 9.000
3.36500 6.000
3.38000 8.000
3.39500 10.000
3.41000 10.000
3.42500 10.000
3.44000 7.000
3.45500 6.000
3.47000 6.000
3.48500 9.000
3.50000 6.000
3.51500 3.000
3.53000 7.000
3.54500 6.000
3.56000 6.000
3.57500 8.000
3.59000 8.000
3.60500 10.000
3.62000 6.000
3.63500 7.000
3.65000 8.000
3.66500 2.000
3.68000 2.000
3.69500 6.000
3.71000 13.000
3.72500 8.000
3.74000 7.000
3.75500 11.000
3.77000 12.000
3.78500 9.000
3.80000 7.000
3.81500 11.000
3.83000 6.000
3.84500 5.000
3.86000 8.000
3.87500 7.000
3.89000 8.000
3.90500 10.000
3.92000 4.000
3.93500 6.000
3.95000 7.000
3.96500 8.000
3.98000 10.000
3.99500 7.000
4.01000 8.000
4.02500 8.000
4.04000 4.000
4.05500 6.000
4.07000 10.000
4.08500 9.000
4.10000 8.000
4.11500 8.000
4.13000 7.000
4.14500 7.000
4.16000 7.000
4.17500 8.000
4.19000 5.000
4.20500 11.000
4.22000 11.000
4.23500 9.000
4.25000 12.000
4.26500 13.000
4.28000 7.000
4.29500 5.000
4.31000 7.000
4.32500 9.000
4.34000 5.000
4.35500 2.000
4.37000 4.000
4.38500 4.000
4.40000 6.000
4.41500 6.000
4.43000 8.000
4.44500 6.000
4.46000 4.000
4.47500 6.000
4.49000 3.000
4.50500 6.000
4.52000 9.000
4.53500 11.000
4.55000 6.000
4.56500 5.000
4.58000 7.000
4.59500 9.000
4.61000 11.000
4.62500 6.000
4.64000 5.000
4.65500 6.000
4.67000 7.000
4.68500 9.000
4.70000 6.000
4.71500 7.000
4.73000 7.000
4.74500 4.000
4.76000 6.000
4.77500 6.000
4.79000 6.000
4.80500 9.000
4.82000 6.000
4.83500 11.000
4.85000 7.000
4.86500 5.000
4.88000 4.000
4.89500 9.000
4.91000 9.000
4.92500 4.000
4.94000 2.000
4.95500 4.000
4.97000 9.000
4.98500 10.000
5.00000 10.000
5.01500 8.000
5.03000 7.000
5.04500 6.000
5.06000 4.000
5.07500 4.000
5.09000 5.000
5.10500 7.000
5.12000 10.000
5.13500 9.000
5.15000 10.000
5.16500 8.000
5.18000 6.000
5.19500 8.000
5.21000 6.000
5.22500 6.000
5.24000 6.000
5.25500 8.000
5.27000 6.000
5.28500 6.000
5.30000 5.000
5.31500 9.000
5.33000 8.000
5.34500 14.000
5.36000 5.000
5.37500 9.000
5.39000 8.000
5.40500 5.000
5.42000 7.000
5.43500 7.000
5.45000 11.000
5.46500 8.000
5.48000 5.000
5.49500 6.000
5.51000 5.000
5.52500 5.000
5.54000 6.000
5.55500 5.000
5.57000 5.000
5.58500 9.000
5.60000 9.000
5.61500 6.000
5.63000 6.000
5.64500 8.000
5.66000 4.000
5.67500 4.000
5.69000 6.000
5.70500 5.000
5.72000 11.000
5.73500 6.000
5.75000 6.000
5.76500 11.000
5.78000 11.000
5.79500 8.000
5.81000 9.000
5.82500 11.000
5.84000 10.000
5.85500 10.000
5.87000 12.000
5.88500 6.000
5.90000 9.000
5.91500 7.000
5.93000 7.000
5.94500 7.000
5.96000 6.000
5.97500 7.000
5.99000 8.000
6.00500 7.000
6.02000 5.000
6.03500 8.000
6.05000 10.000
6.06500 7.000
6.08000 10.000
6.09500 9.000
6.11000 9.000
6.12500 7.000
6.14000 10.000
6.15500 8.000
6.17000 5.000
6.18500 6.000
6.20000 10.000
6.21500 4.000
6.23000 10.000
6.24500 8.000
6.26000 9.000
6.27500 6.000
6.29000 8.000
6.30500 10.000
6.32000 10.000
6.33500 9.000
6.35000 10.000
6.36500 9.000
6.38000 7.000
6.39500 4.000
6.41000 7.000
6.42500 9.000
6.44000 8.000
6.45500 8.000
6.47000 5.000
6.48500 12.000
6.50000 8.000
6.51500 7.000
6.53000 10.000
6.54500 8.000
6.56000 11.000
6.57500 6.000
6.59000 6.000
6.60500 10.000
6.62000 8.000
6.63500 7.000
6.65000 7.000
6.66500 12.000
6.68000 11.000
6.69500 8.000
6.71000 11.000
6.72500 10.000
6.74000 7.000
6.75500 9.000
6.77000 4.000
6.78500 6.000
6.80000 5.000
6.81500 11.000
6.83000 12.000
6.84500 7.000
6.86000 5.000
6.87500 4.000
6.89000 6.000
6.90500 9.000
6.92000 9.000
6.93500 9.000
6.95000 8.000
6.96500 7.000
6.98000 7.000
6.99500 5.000
7.01000 7.000
7.02500 7.000
7.04000 5.000
7.05500 5.000
7.07000 5.000
7.08500 10.000
7.10000 13.000
7.11500 6.000
7.13000 9.000
7.14500 8.000
7.16000 8.000
7.17500 8.000
7.19000 7.000
7.20500 9.000
7.22000 5.000
7.23500 7.000
7.25000 6.000
7.26500 7.000
7.28000 4.000
7.29500 5.000
7.31000 8.000
7.32500 6.000
7.34000 8.000
7.35500 5.000
7.37000 6.000
7.38500 7.000
7.40000 4.000
7.41500 7.000
7.43000 4.000
7.44500 8.000
7.46000 7.000
7.47500 9.000
7.49000 6.000
7.50500 7.000
7.52000 8.000
7.53500 6.000
7.55000 6.000
7.56500 5.000
7.58000 3.000
7.59500 10.000
7.61000 7.000
7.62500 10.000
7.64000 10.000
7.65500 8.000
7.67000 6.000
7.68500 4.000
7.70000 5.000
7.71500 8.000
7.73000 9.000
7.74500 9.000
7.76000 10.000
7.77500 3.000
7.79000 5.000
7.80500 8.000
7.82000 7.000
7.83500 9.000
7.85000 7.000
7.86500 7.000
7.88000 9.000
7.89500 11.000
7.91000 3.000
7.92500 7.000
7.94000 10.000
7.95500 8.000
7.97000 7.000
7.98500 4.000
8.00000 9.000
8.01500 12.000
8.03000 10.000
8.04500 6.000
8.06000 7.000
8.07500 11.000
8.09000 12.000
8.10500 10.000
8.12000 8.000
8.13500 11.000
8.15000 12.000
8.16500 5.000
8.18000 9.000
8.19500 4.000
8.21000 8.000
8.22500 10.000
8.24000 5.000
8.25500 7.000
8.27000 6.000
8.28500 7.000
8.30000 7.000
8.31500 4.000
8.33000 6.000
8.34500 10.000
8.36000 11.000
8.37500 7.000
8.39000 10.000
8.40500 12.000
8.42000 6.000
8.43500 6.000
8.45000 7.000
8.46500 9.000
8.48000 6.000
8.49500 7.000
8.51000 8.000
8.52500 6.000
8.54000 10.000
8.55500 6.000
8.57000 8.000
8.58500 9.000
8.60000 10.000
8.61500 8.000
8.63000 8.000
8.64500 11.000
8.66000 11.000
8.67500 8.000
8.69000 10.000
8.70500 8.000
8.72000 10.000
8.73500 9.000
8.75000 10.000
8.76500 9.000
8.78000 8.000
8.79500 5.000
8.81000 5.000
8.82500 8.000
8.84000 11.000
8.85500 9.000
8.87000 7.000
8.88500 11.000
8.90000 8.000
8.91500 3.000
8.93000 6.000
8.94500 9.000
8.96000 7.000
8.97500 10.000
8.99000 7.000
9.00500 11.000
9.02000 6.000
9.03500 7.000
9.05000 8.000
9.06500 8.000
9.08000 10.000
9.09500 12.000
9.11000 6.000
9.12500 9.000
9.14000 6.000
9.15500 8.000
9.17000 6.000
9.18500 7.000
9.20000 8.000
9.21500 13.000
9.23000 9.000
9.24500 10.000
9.26000 8.000
9.27500 15.000
9.29000 15.000
9.30500 9.000
9.32000 8.000
9.33500 7.000
9.35000 8.000
9.36500 7.000
9.38000 10.000
9.39500 7.000
9.41000 8.000
9.42500 9.000
9.44000 9.000
9.45500 15.000
9.47000 13.000
9.48500 8.000
9.50000 7.000
9.51500 10.000
9.53000 6.000
9.54500 4.000
9.56000 6.000
9.57500 9.000
9.59000 8.000
9.60500 12.000
9.62000 12.000
9.63500 10.000
9.65000 9.000
9.66500 11.000
9.68000 9.000
9.69500 9.000
9.71000 7.000
9.72500 7.000
9.74000 10.000
9.75500 6.000
9.77000 6.000
9.78500 9.000
9.80000 10.000
9.81500 5.000
9.83000 9.000
9.84500 10.000
9.86000 8.000
9.87500 10.000
9.89000 8.000
9.90500 9.000
9.92000 7.000
9.93500 13.000
9.95000 10.000
9.96500 9.000
9.98000 6.000
9.99500 10.000
10.01000 11.000
10.02500 13.000
10.04000 8.000
10.05500 8.000
10.07000 10.000
10.08500 16.000
10.10000 10.000
10.11500 7.000
10.13000 5.000
10.14500 8.000
10.16000 11.000
10.17500 9.000
10.19000 8.000
10.20500 7.000
10.22000 10.000
10.23500 8.000
10.25000 10.000
10.26500 10.000
10.28000 6.000
10.29500 7.000
10.31000 8.000
10.32500 9.000
10.34000 9.000
10.35500 9.000
10.37000 10.000
10.38500 9.000
10.40000 10.000
10.41500 8.000
10.43000 8.000
10.44500 9.000
10.46000 13.000
10.47500 6.000
10.49000 7.000
10.50500 8.000
10.52000 11.000
10.53500 10.000
10.55000 9.000
10.56500 8.000
10.58000 8.000
10.59500 8.000
10.61000 9.000
10.62500 11.000
10.64000 5.000
10.65500 8.000
10.67000 8.000
10.68500 8.000
10.70000 10.000
10.71500 11.000
10.73000 11.000
10.74500 11.000
10.76000 9.000
10.77500 6.000
10.79000 8.000
10.80500 13.000
10.82000 9.000
10.83500 9.000
10.85000 8.000
10.86500 4.000
10.88000 6.000
10.89500 10.000
10.91000 10.000
10.92500 9.000
10.94000 13.000
10.95500 11.000
10.97000 14.000
10.98500 9.000
11.00000 9.000
11.01500 9.000
11.03000 9.000
11.04500 11.000
11.06000 6.000
11.07500 7.000
11.09000 7.000
11.10500 9.000
11.12000 7.000
11.13500 6.000
11.15000 7.000
11.16500 8.000
11.18000 7.000
11.19500 9.000
11.21000 5.000
11.22500 7.000
11.24000 8.000
11.25500 8.000
11.27000 14.000
11.28500 10.000
11.30000 8.000
11.31500 5.000
11.33000 6.000
11.34500 6.000
11.36000 12.000
11.37500 9.000
11.39000 13.000
11.40500 10.000
11.42000 10.000
11.43500 10.000
11.45000 9.000
11.46500 14.000
11.48000 9.000
11.49500 10.000
11.51000 13.000
11.52500 11.000
11.54000 11.000
11.55500 9.000
11.57000 8.000
11.58500 10.000
11.60000 9.000
11.61500 14.000
11.63000 13.000
11.64500 8.000
11.66000 7.000
11.67500 9.000
11.69000 5.000
11.70500 3.000
11.72000 8.000
11.73500 7.000
11.75000 7.000
11.76500 8.000
11.78000 11.000
11.79500 8.000
11.81000 5.000
11.82500 9.000
11.84000 9.000
11.85500 10.000
11.87000 12.000
11.88500 10.000
11.90000 10.000
11.91500 11.000
11.93000 10.000
11.94500 6.000
11.96000 7.000
11.97500 9.000
11.99000 7.000
12.00500 7.000
12.02000 10.000
12.03500 14.000
12.05000 12.000
12.06500 11.000
12.08000 13.000
12.09500 11.000
12.11000 9.000
12.12500 11.000
12.14000 12.000
12.15500 8.000
12.17000 7.000
12.18500 7.000
12.20000 4.000
12.21500 8.000
12.23000 16.000
12.24500 13.000
12.26000 10.000
12.27500 10.000
12.29000 9.000
12.30500 8.000
12.32000 10.000
12.33500 9.000
12.35000 11.000
12.36500 5.000
12.38000 11.000
12.39500 9.000
12.41000 11.000
12.42500 7.000
12.44000 6.000
12.45500 10.000
12.47000 9.000
12.48500 10.000
12.50000 12.000
12.51500 17.000
12.53000 13.000
12.54500 10.000
12.56000 11.000
12.57500 9.000
12.59000 8.000
12.60500 13.000
12.62000 10.000
12.63500 9.000
12.65000 7.000
12.66500 12.000
12.68000 9.000
12.69500 13.000
12.71000 13.000
12.72500 10.000
12.74000 8.000
12.75500 11.000
12.77000 12.000
12.78500 11.000
12.80000 8.000
12.81500 13.000
12.83000 11.000
12.84500 16.000
12.86000 12.000
12.87500 10.000
12.89000 9.000
12.90500 9.000
12.92000 14.000
12.93500 5.000
12.95000 12.000
12.96500 9.000
12.98000 11.000
12.99500 8.000
13.01000 8.000
13.02500 10.000
13.04000 10.000
13.05500 11.000
13.07000 10.000
13.08500 5.000
13.10000 5.000
13.11500 6.000
13.13000 7.000
13.14500 10.000
13.16000 8.000
13.17500 8.000
13.19000 15.000
13.20500 14.000
13.22000 7.000
13.23500 9.000
13.25000 8.000
13.26500 5.000
13.28000 8.000
13.29500 11.000
13.31000 8.000
13.32500 6.000
13.34000 7.000
13.35500 10.000
13.37000 11.000
13.38500 11.000
13.40000 9.000
13.41500 10.000
13.43000 9.000
13.44500 8.000
13.46000 14.000
13.47500 11.000
13.49000 8.000
13.50500 10.000
13.52000 8.000
13.53500 5.000
13.55000 11.000
13.56500 7.000
13.58000 10.000
13.59500 11.000
13.61000 11.000
13.62500 11.000
13.64000 9.000
13.65500 4.000
13.67000 5.000
13.68500 11.000
13.70000 9.000
13.71500 9.000
13.73000 15.000
13.74500 10.000
13.76000 7.000
13.77500 13.000
13.79000 6.000
13.80500 3.000
13.82000 10.000
13.83500 9.000
13.85000 10.000
13.86500 12.000
13.88000 8.000
13.89500 7.000
13.91000 11.000
13.92500 13.000
13.94000 11.000
13.95500 14.000
13.97000 13.000
13.98500 10.000
14.00000 10.000
14.01500 10.000
14.03000 7.000
14.04500 9.000
14.06000 12.000
14.07500 12.000
14.09000 13.000
14.10500 17.000
14.12000 13.000
14.13500 9.000
14.15000 14.000
14.16500 13.000
14.18000 11.000
14.19500 6.000
14.21000 11.000
14.22500 17.000
14.24000 13.000
14.25500 11.000
14.27000 9.000
14.28500 16.000
14.30000 10.000
14.31500 8.000
14.33000 13.000
14.34500 11.000
14.36000 8.000
14.37500 8.000
14.39000 13.000
14.40500 12.000
14.42000 8.000
14.43500 10.000
14.45000 4.000
14.46500 4.000
14.48000 6.000
14.49500 6.000
14.51000 10.000
14.52500 8.000
14.54000 7.000
14.55500 11.000
14.57000 16.000
14.58500 15.000
14.60000 11.000
14.61500 19.000
14.63000 16.000
14.64500 14.000
14.66000 7.000
14.67500 8.000
14.69000 8.000
14.70500 11.000
14.72000 12.000
14.73500 13.000
14.75000 11.000
14.76500 10.000
14.78000 10.000
14.79500 7.000
14.81000 7.000
14.82500 9.000
14.84000 13.000
14.85500 12.000
14.87000 9.000
14.88500 9.000
14.90000 13.000
14.91500 10.000
14.93000 11.000
14.94500 8.000
14.96000 12.000
14.97500 12.000
14.99000 13.000
15.00500 9.000
15.02000 8.000
15.03500 9.000
15.05000 11.000
15.06500 9.000
15.08000 11.000
15.09500 4.000
15.11000 5.000
15.12500 8.000
15.14000 14.000
15.15500 9.000
15.17000 7.000
15.18500 8.000
15.20000 10.000
15.21500 8.000
15.23000 7.000
15.24500 3.000
15.26000 3.000
15.27500 8.000
15.29000 11.000
15.30500 9.000
15.32000 12.000
15.33500 13.000
15.35000 13.000
15.36500 18.000
15.38000 9.000
15.39500 8.000
15.41000 9.000
15.42500 10.000
15.44000 10.000
15.45500 8.000
15.47000 8.000
15.48500 13.000
15.50000 6.000
15.51500 7.000
15.53000 6.000
15.54500 12.000
15.56000 6.000
15.57500 12.000
15.59000 11.000
15.60500 11.000
15.62000 7.000
15.63500 10.000
15.65000 12.000
15.66500 14.000
15.68000 9.000
15.69500 11.000
15.71000 6.000
15.72500 13.000
15.74000 8.000
15.75500 6.000
15.77000 6.000
15.78500 9.000
15.80000 9.000
15.81500 7.000
15.83000 4.000
15.84500 7.000
15.86000 7.000
15.87500 6.000
15.89000 9.000
15.90500 13.000
15.92000 10.000
15.93500 8.000
15.95000 10.000
15.96500 12.000
15.98000 8.000
15.99500 7.000
16.01000 12.000
16.02500 13.000
16.04000 11.000
16.05500 15.000
16.07000 15.000
16.08500 13.000
16.10000 13.000
16.11500 9.000
16.13000 10.000
16.14500 13.000
16.16000 9.000
16.17500 8.000
16.19000 11.000
16.20500 10.000
16.22000 8.000
16.23500 12.000
16.25000 9.000
16.26500 12.000
16.28000 11.000
16.29500 14.000
16.31000 12.000
16.32500 16.000
16.34000 13.000
16.35500 8.000
16.37000 8.000
16.38500 10.000
16.40000 8.000
16.41500 8.000
16.43000 11.000
16.44500 12.000
16.46000 11.000
16.47500 12.000
16.49000 10.000
16.50500 7.000
16.52000 6.000
16.53500 7.000
16.55000 7.000
16.56500 13.000
16.58000 12.000
16.59500 8.000
16.61000 10.000
16.62500 9.000
16.64000 12.000
16.65500 12.000
16.67000 9.000
16.68500 5.000
16.70000 4.000
16.71500 6.000
16.73000 12.000
16.74500 11.000
16.76000 12.000
16.77500 10.000
16.79000 4.000
16.80500 7.000
16.82000 8.000
16.83500 10.000
16.85000 7.000
16.86500 9.000
16.88000 11.000
16.89500 11.000
16.91000 12.000
16.92500 9.000
16.94000 6.000
16.95500 7.000
16.97000 8.000
16.98500 10.000
17.00000 14.000
17.01500 12.000
17.03000 12.000
17.04500 17.000
17.06000 8.000
17.07500 12.000
17.09000 10.000
17.10500 13.000
17.12000 11.000
17.13500 12.000
17.15000 14.000
17.16500 14.000
17.18000 9.000
17.19500 8.000
17.21000 10.000
17.22500 14.000
17.24000 13.000
17.25500 9.000
17.27000 7.000
17.28500 13.000
17.30000 11.000
17.31500 10.000
17.33000 12.000
17.34500 13.000
17.36000 9.000
17.37500 6.000
17.39000 11.000
17.40500 8.000
17.42000 9.000
17.43500 8.000
17.45000 8.000
17.46500 8.000
17.48000 9.000
17.49500 12.000
17.51000 10.000
17.52500 9.000
17.54000 10.000
17.55500 10.000
17.57000 12.000
17.58500 17.000
17.60000 15.000
17.61500 10.000
17.63000 11.000
17.64500 10.000
17.66000 7.000
17.67500 10.000
17.69000 6.000
17.70500 7.000
17.72000 8.000
17.73500 10.000
17.75000 10.000
17.76500 11.000
17.78000 12.000
17.79500 9.000
17.81000 9.000
17.82500 12.000
17.84000 11.000
17.85500 11.000
17.87000 10.000
17.88500 12.000
17.90000 7.000
17.91500 9.000
17.93000 9.000
17.94500 13.000
17.96000 14.000
17.97500 13.000
17.99000 10.000
18.00500 10.000
18.02000 9.000
18.03500 9.000
18.05000 8.000
18.06500 14.000
18.08000 11.000
18.09500 10.000
18.11000 11.000
18.12500 15.000
18.14000 7.000
18.15500 6.000
18.17000 12.000
18.18500 9.000
18.20000 6.000
18.21500 14.000
18.23000 11.000
18.24500 9.000
18.26000 11.000
18.27500 8.000
18.29000 10.000
18.30500 4.000
18.32000 9.000
18.33500 13.000
18.35000 11.000
18.36500 10.000
18.38000 9.000
18.39500 11.000
18.41000 10.000
18.42500 9.000
18.44000 9.000
18.45500 9.000
18.47000 9.000
18.48500 7.000
18.50000 8.000
18.51500 11.000
18.53000 10.000
18.54500 13.000
18.56000 12.000
18.57500 18.000
18.59000 11.000
18.60500 11.000
18.62000 10.000
18.63500 15.000
18.65000 12.000
18.66500 7.000
18.68000 9.000
18.69500 9.000
18.71000 11.000
18.72500 12.000
18.74000 15.000
18.75500 9.000
18.77000 11.000
18.78500 7.000
18.80000 8.000
18.81500 7.000
18.83000 12.000
18.84500 13.000
18.86000 12.000
18.87500 6.000
18.89000 7.000
18.90500 9.000
18.92000 8.000
18.93500 13.000
18.95000 10.000
18.96500 9.000
18.98000 7.000
18.99500 6.000
19.01000 8.000
19.02500 8.000
19.04000 7.000
19.05500 10.000
19.07000 5.000
19.08500 5.000
19.10000 9.000
19.11500 11.000
19.13000 13.000
19.14500 15.000
19.16000 9.000
19.17500 10.000
19.19000 8.000
19.20500 6.000
19.22000 8.000
19.23500 12.000
19.25000 11.000
19.26500 11.000
19.28000 7.000
19.29500 7.000
19.31000 9.000
19.32500 11.000
19.34000 11.000
19.35500 11.000
19.37000 6.000
19.38500 8.000
19.40000 9.000
19.41500 11.000
19.43000 14.000
19.44500 8.000
19.46000 10.000
19.47500 12.000
19.49000 10.000
19.50500 8.000
19.52000 12.000
19.53500 8.000
19.55000 11.000
19.56500 11.000
19.58000 7.000
19.59500 7.000
19.61000 12.000
19.62500 6.000
19.64000 7.000
19.65500 9.000
19.67000 13.000
19.68500 12.000
19.70000 10.000
19.71500 5.000
19.73000 9.000
19.74500 9.000
19.76000 10.000
19.77500 12.000
19.79000 8.000
19.80500 8.000
19.82000 6.000
19.83500 12.000
19.85000 8.000
19.86500 12.000
19.88000 7.000
19.89500 8.000
19.91000 7.000
19.92500 10.000
19.94000 10.000
19.95500 12.000
19.97000 8.000
19.98500 9.000
20.00000 10.000
20.01500 11.000
20.03000 6.000
20.04500 5.000
20.06000 6.000
20.07500 8.000
20.09000 8.000
20.10500 9.000
20.12000 5.000
20.13500 7.000
20.15000 8.000
20.16500 6.000
20.18000 14.000
20.19500 10.000
20.21000 11.000
20.22500 12.000
20.24000 8.000
20.25500 8.000
20.27000 11.000
20.28500 10.000
20.30000 10.000
20.31500 9.000
20.33000 11.000
20.34500 14.000
20.36000 10.000
20.37500 10.000
20.39000 12.000
20.40500 9.000
20.42000 12.000
20.43500 8.000
20.45000 7.000
20.46500 8.000
20.48000 11.000
20.49500 18.000
20.51000 12.000
20.52500 10.000
20.54000 9.000
20.55500 13.000
20.57000 8.000
20.58500 8.000
20.60000 10.000
20.61500 8.000
20.63000 6.000
20.64500 10.000
20.66000 10.000
20.67500 13.000
20.69000 11.000
20.70500 8.000
20.72000 9.000
20.73500 9.000
20.75000 9.000
20.76500 10.000
20.78000 8.000
20.79500 6.000
20.81000 9.000
20.82500 8.000
20.84000 6.000
20.85500 6.000
20.87000 10.000
20.88500 9.000
20.90000 10.000
20.91500 7.000
20.93000 11.000
20.94500 4.000
20.96000 5.000
20.97500 6.000
20.99000 6.000
21.00500 9.000
21.02000 10.000
21.03500 10.000
21.05000 7.000
21.06500 8.000
21.08000 8.000
21.09500 7.000
21.11000 9.000
21.12500 7.000
21.14000 10.000
21.15500 8.000
21.17000 7.000
21.18500 9.000
21.20000 12.000
21.21500 10.000
21.23000 10.000
21.24500 9.000
21.26000 11.000
21.27500 7.000
21.29000 9.000
21.30500 7.000
21.32000 8.000
21.33500 9.000
21.35000 13.000
21.36500 8.000
21.38000 9.000
21.39500 9.000
21.41000 6.000
21.42500 9.000
21.44000 8.000
21.45500 11.000
21.47000 10.000
21.48500 10.000
21.50000 4.000
21.51500 8.000
21.53000 7.000
21.54500 10.000
21.56000 8.000
21.57500 11.000
21.59000 9.000
21.60500 12.000
21.62000 12.000
21.63500 7.000
21.65000 7.000
21.66500 7.000
21.68000 9.000
21.69500 7.000
21.71000 9.000
21.72500 6.000
21.74000 12.000
21.75500 6.000
21.77000 6.000
21.78500 9.000
21.80000 8.000
21.81500 11.000
21.83000 10.000
21.84500 6.000
21.86000 7.000
21.87500 12.000
21.89000 10.000
21.90500 7.000
21.92000 8.000
21.93500 6.000
21.95000 14.000
21.96500 9.000
21.98000 7.000
21.99500 12.000
22.01000 12.000
22.02500 11.000
22.04000 7.000
22.05500 7.000
22.07000 9.000
22.08500 11.000
22.10000 9.000
22.11500 9.000
22.13000 6.000
22.14500 7.000
22.16000 8.000
22.17500 7.000
22.19000 8.000
22.20500 10.000
22.22000 10.000
22.23500 10.000
22.25000 11.000
22.26500 7.000
22.28000 8.000
22.29500 8.000
22.31000 10.000
22.32500 17.000
22.34000 14.000
22.35500 12.000
22.37000 9.000
22.38500 7.000
22.40000 11.000
22.41500 13.000
22.43000 9.000
22.44500 9.000
22.46000 10.000
22.47500 10.000
22.49000 9.000
22.50500 9.000
22.52000 7.000
22.53500 4.000
22.55000 10.000
22.56500 10.000
22.58000 9.000
22.59500 10.000
22.61000 10.000
22.62500 8.000
22.64000 8.000
22.65500 5.000
22.67000 10.000
22.68500 14.000
22.70000 7.000
22.71500 9.000
22.73000 10.000
22.74500 9.000
22.76000 16.000
22.77500 10.000
22.79000 7.000
22.80500 11.000
22.82000 10.000
22.83500 12.000
22.85000 11.000
22.86500 10.000
22.88000 9.000
22.89500 10.000
22.91000 14.000
22.92500 8.000
22.94000 11.000
22.95500 5.000
22.97000 5.000
22.98500 9.000
23.00000 8.000
23.01500 3.000
23.03000 10.000
23.04500 10.000
23.06000 6.000
23.07500 10.000
23.09000 9.000
23.10500 4.000
23.12000 8.000
23.13500 10.000
23.15000 8.000
23.16500 12.000
23.18000 9.000
23.19500 8.000
23.21000 10.000
23.22500 11.000
23.24000 6.000
23.25500 7.000
23.27000 10.000
23.28500 9.000
23.30000 7.000
23.31500 9.000
23.33000 8.000
23.34500 9.000
23.36000 9.000
23.37500 9.000
23.39000 6.000
23.40500 4.000
23.42000 6.000
23.43500 7.000
23.45000 9.000
23.46500 9.000
23.48000 12.000
23.49500 5.000
23.51000 8.000
23.52500 10.000
23.54000 12.000
23.55500 12.000
23.57000 6.000
23.58500 8.000
23.60000 6.000
23.61500 9.000
23.63000 10.000
23.64500 10.000
23.66000 10.000
23.67500 11.000
23.69000 6.000
23.70500 12.000
23.72000 13.000
23.73500 12.000
23.75000 11.000
23.76500 7.000
23.78000 11.000
23.79500 11.000
23.81000 13.000
23.82500 8.000
23.84000 13.000
23.85500 20.000
23.87000 8.000
23.88500 7.000
23.90000 14.000
23.91500 12.000
23.93000 7.000
23.94500 5.000
23.96000 7.000
23.97500 7.000
23.99000 9.000
24.00500 11.000
24.02000 6.000
24.03500 7.000
24.05000 10.000
24.06500 6.000
24.08000 9.000
24.09500 12.000
24.11000 9.000
24.12500 10.000
24.14000 5.000
24.15500 6.000
24.17000 9.000
24.18500 9.000
24.20000 8.000
24.21500 11.000
24.23000 12.000
24.24500 11.000
24.26000 8.000
24.27500 14.000
24.29000 11.000
24.30500 9.000
24.32000 10.000
24.33500 9.000
24.35000 8.000
24.36500 7.000
24.38000 7.000
24.39500 7.000
24.41000 9.000
24.42500 10.000
24.44000 6.000
24.45500 4.000
24.47000 10.000
24.48500 17.000
24.50000 15.000
24.51500 10.000
24.53000 10.000
24.54500 13.000
24.56000 9.000
24.57500 11.000
24.59000 10.000
24.60500 11.000
24.62000 13.000
24.63500 8.000
24.65000 6.000
24.66500 10.000
24.68000 11.000
24.69500 9.000
24.71000 8.000
24.72500 7.000
24.74000 6.000
24.75500 7.000
24.77000 8.000
24.78500 11.000
24.80000 10.000
24.81500 7.000
24.83000 10.000
24.84500 11.000
24.86000 12.000
24.87500 17.000
24.89000 15.000
24.90500 8.000
24.92000 12.000
24.93500 9.000
24.95000 9.000
24.96500 10.000
24.98000 6.000
24.99500 9.000
25.01000 5.000
25.02500 9.000
25.04000 13.000
25.05500 10.000
25.07000 12.000
25.08500 11.000
25.10000 12.000
25.11500 12.000
25.13000 7.000
25.14500 9.000
25.16000 8.000
25.17500 6.000
25.19000 7.000
25.20500 12.000
25.22000 11.000
25.23500 8.000
25.25000 6.000
25.26500 10.000
25.28000 9.000
25.29500 9.000
25.31000 8.000
25.32500 12.000
25.34000 8.000
25.35500 13.000
25.37000 11.000
25.38500 13.000
25.40000 10.000
25.41500 15.000
25.43000 11.000
25.44500 12.000
25.46000 10.000
25.47500 8.000
25.49000 9.000
25.50500 8.000
25.52000 10.000
25.53500 9.000
25.55000 7.000
25.56500 9.000
25.58000 9.000
25.59500 5.000
25.61000 6.000
25.62500 13.000
25.64000 14.000
25.65500 10.000
25.67000 9.000
25.68500 10.000
25.70000 11.000
25.71500 13.000
25.73000 17.000
25.74500 12.000
25.76000 16.000
25.77500 11.000
25.79000 10.000
25.80500 8.000
25.82000 10.000
25.83500 8.000
25.85000 13.000
25.86500 11.000
25.88000 11.000
25.89500 8.000
25.91000 9.000
25.92500 10.000
25.94000 7.000
25.95500 14.000
25.97000 12.000
25.98500 12.000
26.00000 16.000
26.01500 15.000
26.03000 11.000
26.04500 13.000
26.06000 12.000
26.07500 12.000
26.09000 7.000
26.10500 10.000
26.12000 6.000
26.13500 6.000
26.15000 13.000
26.16500 11.000
26.18000 9.000
26.19500 9.000
26.21000 13.000
26.22500 9.000
26.24000 14.000
26.25500 15.000
26.27000 14.000
26.28500 16.000
26.30000 11.000
26.31500 10.000
26.33000 14.000
26.34500 10.000
26.36000 12.000
26.37500 18.000
26.39000 12.000
26.40500 7.000
26.42000 8.000
26.43500 9.000
26.45000 11.000
26.46500 9.000
26.48000 13.000
26.49500 13.000
26.51000 12.000
26.52500 11.000
26.54000 10.000
26.55500 11.000
26.57000 9.000
26.58500 9.000
26.60000 9.000
26.61500 9.000
26.63000 10.000
26.64500 14.000
26.66000 10.000
26.67500 12.000
26.69000 11.000
26.70500 14.000
26.72000 9.000
26.73500 9.000
26.75000 16.000
26.76500 8.000
26.78000 5.000
26.79500 8.000
26.81000 13.000
26.82500 14.000
26.84000 5.000
26.85500 7.000
26.87000 12.000
26.88500 12.000
26.90000 12.000
26.91500 17.000
26.93000 18.000
26.94500 10.000
26.96000 16.000
26.97500 11.000
26.99000 14.000
27.00500 13.000
27.02000 10.000
27.03500 10.000
27.05000 10.000
27.06500 8.000
27.08000 9.000
27.09500 11.000
27.11000 12.000
27.12500 9.000
27.14000 13.000
27.15500 16.000
27.17000 12.000
27.18500 11.000
27.20000 8.000
27.21500 11.000
27.23000 12.000
27.24500 13.000
27.26000 18.000
27.27500 18.000
27.29000 15.000
27.30500 13.000
27.32000 13.000
27.33500 9.000
27.35000 9.000
27.36500 7.000
27.38000 11.000
27.39500 10.000
27.41000 9.000
27.42500 11.000
27.44000 12.000
27.45500 14.000
27.47000 19.000
27.48500 14.000
27.50000 15.000
27.51500 13.000
27.53000 13.000
27.54500 10.000
27.56000 15.000
27.57500 12.000
27.59000 10.000
27.60500 16.000
27.62000 11.000
27.63500 12.000
27.65000 16.000
27.66500 15.000
27.68000 14.000
27.69500 13.000
27.71000 10.000
27.72500 10.000
27.74000 10.000
27.75500 11.000
27.77000 10.000
27.78500 7.000
27.80000 11.000
27.81500 17.000
27.83000 12.000
27.84500 8.000
27.86000 16.000
27.87500 13.000
27.89000 12.000
27.90500 16.000
27.92000 11.000
27.93500 18.000
27.95000 16.000
27.96500 12.000
27.98000 9.000
27.99500 10.000
28.01000 12.000
28.02500 7.000
28.04000 11.000
28.05500 14.000
28.07000 16.000
28.08500 14.000
28.10000 15.000
28.11500 15.000
28.13000 13.000
28.14500 14.000
28.16000 11.000
28.17500 11.000
28.19000 14.000
28.20500 10.000
28.22000 12.000
28.23500 11.000
28.25000 7.000
28.26500 13.000
28.28000 10.000
28.29500 16.000
28.31000 17.000
28.32500 11.000
28.34000 14.000
28.35500 10.000
28.37000 12.000
28.38500 15.000
28.40000 16.000
28.41500 16.000
28.43000 12.000
28.44500 12.000
28.46000 15.000
28.47500 11.000
28.49000 11.000
28.50500 16.000
28.52000 14.000
28.53500 18.000
28.55000 15.000
28.56500 12.000
28.58000 14.000
28.59500 15.000
28.61000 11.000
28.62500 15.000
28.64000 13.000
28.65500 14.000
28.67000 17.000
28.68500 11.000
28.70000 14.000
28.71500 18.000
28.73000 10.000
28.74500 10.000
28.76000 13.000
28.77500 9.000
28.79000 12.000
28.80500 13.000
28.82000 19.000
28.83500 14.000
28.85000 8.000
28.86500 10.000
28.88000 12.000
28.89500 12.000
28.91000 12.000
28.92500 12.000
28.94000 16.000
28.95500 11.000
28.97000 14.000
28.98500 12.000
29.00000 17.000
29.01500 18.000
29.03000 13.000
29.04500 13.000
29.06000 16.000
29.07500 12.000
29.09000 17.000
29.10500 12.000
29.12000 8.000
29.13500 12.000
29.15000 16.000
29.16500 18.000
29.18000 12.000
29.19500 14.000
29.21000 12.000
29.22500 11.000
29.24000 10.000
29.25500 20.000
29.27000 15.000
29.28500 14.000
29.30000 15.000
29.31500 14.000
29.33000 11.000
29.34500 10.000
29.36000 9.000
29.37500 7.000
29.39000 11.000
29.40500 16.000
29.42000 14.000
29.43500 14.000
29.45000 10.000
29.46500 13.000
29.48000 12.000
29.49500 10.000
29.51000 9.000
29.52500 10.000
29.54000 16.000
29.55500 12.000
29.57000 10.000
29.58500 12.000
29.60000 13.000
29.61500 14.000
29.63000 12.000
29.64500 12.000
29.66000 9.000
29.67500 11.000
29.69000 12.000
29.70500 11.000
29.72000 14.000
29.73500 10.000
29.75000 10.000
29.76500 13.000
29.78000 12.000
29.79500 10.000
29.81000 12.000
29.82500 9.000
29.84000 13.000
29.85500 15.000
29.87000 15.000
29.88500 14.000
29.90000 13.000
29.91500 15.000
29.93000 6.000
29.94500 8.000
29.96000 10.000
29.97500 15.000
29.99000 12.000
30.00500 8.000
30.02000 12.000
30.03500 11.000
30.05000 14.000
30.06500 11.000
30.08000 9.000
30.09500 9.000
30.11000 15.000
30.12500 13.000
30.14000 15.000
30.15500 9.000
30.17000 11.000
30.18500 15.000
30.20000 14.000
30.21500 11.000
30.23000 7.000
30.24500 14.000
30.26000 17.000
30.27500 15.000
30.29000 11.000
30.30500 16.000
30.32000 13.000
30.33500 15.000
30.35000 11.000
30.36500 12.000
30.38000 13.000
30.39500 8.000
30.41000 10.000
30.42500 11.000
30.44000 10.000
30.45500 8.000
30.47000 14.000
30.48500 9.000
30.50000 7.000
30.51500 11.000
30.53000 9.000
30.54500 13.000
30.56000 16.000
30.57500 11.000
30.59000 12.000
30.60500 10.000
30.62000 11.000
30.63500 11.000
30.65000 14.000
30.66500 9.000
30.68000 14.000
30.69500 13.000
30.71000 16.000
30.72500 12.000
30.74000 14.000
30.75500 13.000
30.77000 12.000
30.78500 13.000
30.80000 6.000
30.81500 10.000
30.83000 7.000
30.84500 8.000
30.86000 19.000
30.87500 8.000
30.89000 16.000
30.90500 13.000
30.92000 10.000
30.93500 14.000
30.95000 16.000
30.96500 13.000
30.98000 10.000
30.99500 10.000
31.01000 8.000
31.02500 7.000
31.04000 11.000
31.05500 12.000
31.07000 12.000
31.08500 11.000
31.10000 11.000
31.11500 9.000
31.13000 15.000
31.14500 13.000
31.16000 12.000
31.17500 11.000
31.19000 18.000
31.20500 15.000
31.22000 9.000
31.23500 12.000
31.25000 12.000
31.26500 12.000
31.28000 14.000
31.29500 14.000
31.31000 6.000
31.32500 13.000
31.34000 10.000
31.35500 8.000
31.37000 10.000
31.38500 9.000
31.40000 9.000
31.41500 13.000
31.43000 11.000
31.44500 9.000
31.46000 15.000
31.47500 13.000
31.49000 12.000
31.50500 10.000
31.52000 13.000
31.53500 14.000
31.55000 11.000
31.56500 12.000
31.58000 14.000
31.59500 13.000
31.61000 13.000
31.62500 18.000
31.64000 11.000
31.65500 10.000
31.67000 10.000
31.68500 9.000
31.70000 9.000
31.71500 7.000
31.73000 9.000
31.74500 14.000
31.76000 10.000
31.77500 11.000
31.79000 7.000
31.80500 11.000
31.82000 12.000
31.83500 14.000
31.85000 7.000
31.86500 5.000
31.88000 4.000
31.89500 5.000
31.91000 10.000
31.92500 16.000
31.94000 13.000
31.95500 13.000
31.97000 12.000
31.98500 10.000
32.00000 10.000
32.01500 10.000
32.03000 9.000
32.04500 5.000
32.06000 9.000
32.07500 11.000
32.09000 8.000
32.10500 9.000
32.12000 8.000
32.13500 10.000
32.15000 8.000
32.16500 11.000
32.18000 12.000
32.19500 7.000
32.21000 8.000
32.22500 11.000
32.24000 11.000
32.25500 14.000
32.27000 14.000
32.28500 12.000
32.30000 8.000
32.31500 8.000
32.33000 10.000
32.34500 8.000
32.36000 12.000
32.37500 8.000
32.39000 10.000
32.40500 21.000
32.42000 16.000
32.43500 9.000
32.45000 7.000
32.46500 8.000
32.48000 7.000
32.49500 9.000
32.51000 13.000
32.52500 12.000
32.54000 10.000
32.55500 7.000
32.57000 9.000
32.58500 8.000
32.60000 11.000
32.61500 8.000
32.63000 10.000
32.64500 17.000
32.66000 11.000
32.67500 7.000
32.69000 10.000
32.70500 8.000
32.72000 14.000
32.73500 9.000
32.75000 11.000
32.76500 11.000
32.78000 10.000
32.79500 8.000
32.81000 15.000
32.82500 13.000
32.84000 10.000
32.85500 7.000
32.87000 10.000
32.88500 7.000
32.90000 5.000
32.91500 11.000
32.93000 13.000
32.94500 13.000
32.96000 13.000
32.97500 13.000
32.99000 10.000
33.00500 9.000
33.02000 8.000
33.03500 9.000
33.05000 4.000
33.06500 9.000
33.08000 10.000
33.09500 7.000
33.11000 10.000
33.12500 12.000
33.14000 11.000
33.15500 9.000
33.17000 10.000
33.18500 12.000
33.20000 8.000
33.21500 7.000
33.23000 5.000
33.24500 10.000
33.26000 9.000
33.27500 12.000
33.29000 15.000
33.30500 11.000
33.32000 9.000
33.33500 9.000
33.35000 10.000
33.36500 13.000
33.38000 6.000
33.39500 8.000
33.41000 7.000
33.42500 11.000
33.44000 14.000
33.45500 8.000
33.47000 14.000
33.48500 10.000
33.50000 10.000
33.51500 6.000
33.53000 8.000
33.54500 11.000
33.56000 9.000
33.57500 11.000
33.59000 10.000
33.60500 13.000
33.62000 9.000
33.63500 10.000
33.65000 12.000
33.66500 14.000
33.68000 12.000
33.69500 11.000
33.71000 10.000
33.72500 14.000
33.74000 16.000
33.75500 12.000
33.77000 12.000
33.78500 9.000
33.80000 14.000
33.81500 12.000
33.83000 8.000
33.84500 12.000
33.86000 11.000
33.87500 8.000
33.89000 7.000
33.90500 9.000
33.92000 6.000
33.93500 13.000
33.95000 12.000
33.96500 7.000
33.98000 7.000
33.99500 8.000
34.01000 8.000
34.02500 12.000
34.04000 12.000
34.05500 6.000
34.07000 11.000
34.08500 7.000
34.10000 10.000
34.11500 11.000
34.13000 8.000
34.14500 6.000
34.16000 6.000
34.17500 8.000
34.19000 7.000
34.20500 10.000
34.22000 8.000
34.23500 4.000
34.25000 7.000
34.26500 9.000
34.28000 10.000
34.29500 9.000
34.31000 11.000
34.32500 14.000
34.34000 9.000
34.35500 10.000
34.37000 11.000
34.38500 11.000
34.40000 12.000
34.41500 7.000
34.43000 4.000
34.44500 6.000
34.46000 6.000
34.47500 9.000
34.49000 10.000
34.50500 12.000
34.52000 10.000
34.53500 11.000
34.55000 9.000
34.56500 8.000
34.58000 9.000
34.59500 9.000
34.61000 10.000
34.62500 8.000
34.64000 9.000
34.65500 7.000
34.67000 10.000
34.68500 10.000
34.70000 8.000
34.71500 9.000
34.73000 8.000
34.74500 9.000
34.76000 10.000
34.77500 9.000
34.79000 11.000
34.80500 10.000
34.82000 6.000
34.83500 11.000
34.85000 6.000
34.86500 10.000
34.88000 14.000
34.89500 12.000
34.91000 10.000
34.92500 8.000
34.94000 6.000
34.95500 11.000
34.97000 9.000
34.98500 10.000
35.00000 9.000
35.01500 6.000
35.03000 7.000
35.04500 14.000
35.06000 7.000
35.07500 8.000
35.09000 9.000
35.10500 6.000
35.12000 11.000
35.13500 8.000
35.15000 6.000
35.16500 10.000
35.18000 12.000
35.19500 14.000
35.21000 13.000
35.22500 12.000
35.24000 9.000
35.25500 6.000
35.27000 13.000
35.28500 11.000
35.30000 10.000
35.31500 10.000
35.33000 11.000
35.34500 12.000
35.36000 11.000
35.37500 17.000
35.39000 12.000
35.40500 10.000
35.42000 9.000
35.43500 11.000
35.45000 7.000
35.46500 7.000
35.48000 8.000
35.49500 9.000
35.51000 8.000
35.52500 13.000
35.54000 9.000
35.55500 7.000
35.57000 9.000
35.58500 5.000
35.60000 11.000
35.61500 9.000
35.63000 11.000
35.64500 7.000
35.66000 7.000
35.67500 10.000
35.69000 8.000
35.70500 5.000
35.72000 9.000
35.73500 8.000
35.75000 10.000
35.76500 19.000
35.78000 8.000
35.79500 5.000
35.81000 8.000
35.82500 8.000
35.84000 7.000
35.85500 5.000
35.87000 9.000
35.88500 9.000
35.90000 6.000
35.91500 8.000
35.93000 7.000
35.94500 7.000
35.96000 12.000
35.97500 14.000
35.99000 15.000
36.00500 8.000
36.02000 9.000
36.03500 9.000
36.05000 10.000
36.06500 9.000
36.08000 12.000
36.09500 12.000
36.11000 9.000
36.12500 11.000
36.14000 8.000
36.15500 7.000
36.17000 10.000
36.18500 10.000
36.20000 11.000
36.21500 13.000
36.23000 10.000
36.24500 9.000
36.26000 16.000
36.27500 16.000
36.29000 13.000
36.30500 8.000
36.32000 9.000
36.33500 7.000
36.35000 13.000
36.36500 17.000
36.38000 15.000
36.39500 8.000
36.41000 3.000
36.42500 5.000
36.44000 10.000
36.45500 9.000
36.47000 10.000
36.48500 11.000
36.50000 13.000
36.51500 7.000
36.53000 9.000
36.54500 11.000
36.56000 11.000
36.57500 9.000
36.59000 13.000
36.60500 14.000
36.62000 5.000
36.63500 8.000
36.65000 9.000
36.66500 11.000
36.68000 12.000
36.69500 10.000
36.71000 3.000
36.72500 6.000
36.74000 5.000
36.75500 10.000
36.77000 8.000
36.78500 9.000
36.80000 13.000
36.81500 13.000
36.83000 12.000
36.84500 7.000
36.86000 9.000
36.87500 13.000
36.89000 9.000
36.90500 10.000
36.92000 11.000
36.93500 13.000
36.95000 10.000
36.96500 8.000
36.98000 9.000
36.99500 11.000
37.01000 7.000
37.02500 7.000
37.04000 8.000
37.05500 11.000
37.07000 8.000
37.08500 10.000
37.10000 16.000
37.11500 10.000
37.13000 10.000
37.14500 8.000
37.16000 10.000
37.17500 12.000
37.19000 11.000
37.20500 9.000
37.22000 10.000
37.23500 13.000
37.25000 14.000
37.26500 8.000
37.28000 6.000
37.29500 14.000
37.31000 10.000
37.32500 12.000
37.34000 8.000
37.35500 13.000
37.37000 13.000
37.38500 13.000
37.40000 12.000
37.41500 12.000
37.43000 14.000
37.44500 12.000
37.46000 9.000
37.47500 7.000
37.49000 7.000
37.50500 7.000
37.52000 11.000
37.53500 6.000
37.55000 12.000
37.56500 7.000
37.58000 9.000
37.59500 12.000
37.61000 15.000
37.62500 12.000
37.64000 13.000
37.65500 16.000
37.67000 12.000
37.68500 10.000
37.70000 9.000
37.71500 8.000
37.73000 9.000
37.74500 10.000
37.76000 14.000
37.77500 9.000
37.79000 14.000
37.80500 7.000
37.82000 8.000
37.83500 10.000
37.85000 11.000
37.86500 8.000
37.88000 14.000
37.89500 12.000
37.91000 7.000
37.92500 8.000
37.94000 10.000
37.95500 12.000
37.97000 7.000
37.98500 11.000
38.00000 10.000
38.01500 10.000
38.03000 13.000
38.04500 10.000
38.06000 7.000
38.07500 9.000
38.09000 9.000
38.10500 8.000
38.12000 6.000
38.13500 10.000
38.15000 10.000
38.16500 11.000
38.18000 10.000
38.19500 11.000
38.21000 11.000
38.22500 12.000
38.24000 17.000
38.25500 15.000
38.27000 13.000
38.28500 7.000
38.30000 8.000
38.31500 9.000
38.33000 10.000
38.34500 11.000
38.36000 14.000
38.37500 12.000
38.39000 9.000
38.40500 10.000
38.42000 16.000
38.43500 10.000
38.45000 9.000
38.46500 11.000
38.48000 13.000
38.49500 10.000
38.51000 12.000
38.52500 7.000
38.54000 9.000
38.55500 12.000
38.57000 9.000
38.58500 10.000
38.60000 12.000
38.61500 16.000
38.63000 9.000
38.64500 11.000
38.66000 8.000
38.67500 9.000
38.69000 8.000
38.70500 5.000
38.72000 9.000
38.73500 9.000
38.75000 11.000
38.76500 8.000
38.78000 11.000
38.79500 9.000
38.81000 9.000
38.82500 10.000
38.84000 10.000
38.85500 7.000
38.87000 8.000
38.88500 8.000
38.90000 12.000
38.91500 7.000
38.93000 5.000
38.94500 5.000
38.96000 11.000
38.97500 9.000
38.99000 10.000
39.00500 13.000
39.02000 7.000
39.03500 5.000
39.05000 12.000
39.06500 13.000
39.08000 8.000
39.09500 13.000
39.11000 18.000
39.12500 12.000
39.14000 9.000
39.15500 7.000
39.17000 15.000
39.18500 9.000
39.20000 7.000
39.21500 6.000
39.23000 7.000
39.24500 8.000
39.26000 7.000
39.27500 9.000
39.29000 9.000
39.30500 8.000
39.32000 12.000
39.33500 8.000
39.35000 9.000
39.36500 11.000
39.38000 10.000
39.39500 11.000
39.41000 12.000
39.42500 12.000
39.44000 11.000
39.45500 8.000
39.47000 11.000
39.48500 13.000
39.50000 10.000
39.51500 12.000
39.53000 13.000
39.54500 11.000
39.56000 10.000
39.57500 10.000
39.59000 11.000
39.60500 7.000
39.62000 13.000
39.63500 11.000
39.65000 9.000
39.66500 8.000
39.68000 10.000
39.69500 11.000
39.71000 7.000
39.72500 11.000
39.74000 10.000
39.75500 9.000
39.77000 10.000
39.78500 8.000
39.80000 11.000
39.81500 14.000
39.83000 7.000
39.84500 7.000
39.86000 10.000
39.87500 16.000
39.89000 15.000
39.90500 11.000
39.92000 13.000
39.93500 12.000
39.95000 14.000
39.96500 9.000
39.98000 11.000
39.99500 14.000
40.01000 13.000
40.02500 11.000
40.04000 12.000
40.05500 12.000
40.07000 11.000
40.08500 8.000
40.10000 6.000
40.11500 6.000
40.13000 10.000
40.14500 9.000
40.16000 12.000
40.17500 7.000
40.19000 12.000
40.20500 10.000
40.22000 7.000
40.23500 11.000
40.25000 9.000
40.26500 8.000
40.28000 5.000
40.29500 9.000
40.31000 11.000
40.32500 12.000
40.34000 12.000
40.35500 12.000
40.37000 12.000
40.38500 9.000
40.40000 9.000
40.41500 13.000
40.43000 8.000
40.44500 9.000
40.46000 9.000
40.47500 9.000
40.49000 15.000
40.50500 10.000
40.52000 13.000
40.53500 12.000
40.55000 9.000
40.56500 10.000
40.58000 9.000
40.59500 10.000
40.61000 14.000
40.62500 12.000
40.64000 7.000
40.65500 10.000
40.67000 12.000
40.68500 12.000
40.70000 17.000
40.71500 12.000
40.73000 8.000
40.74500 14.000
40.76000 15.000
40.77500 9.000
40.79000 13.000
40.80500 12.000
40.82000 12.000
40.83500 8.000
40.85000 11.000
40.86500 10.000
40.88000 7.000
40.89500 9.000
40.91000 6.000
40.92500 6.000
40.94000 10.000
40.95500 12.000
40.97000 14.000
40.98500 8.000
41.00000 6.000
41.01500 7.000
41.03000 12.000
41.04500 5.000
41.06000 10.000
41.07500 9.000
41.09000 9.000
41.10500 7.000
41.12000 7.000
41.13500 12.000
41.15000 7.000
41.16500 9.000
41.18000 10.000
41.19500 13.000
41.21000 12.000
41.22500 10.000
41.24000 10.000
41.25500 10.000
41.27000 8.000
41.28500 14.000
41.30000 11.000
41.31500 8.000
41.33000 7.000
41.34500 9.000
41.36000 12.000
41.37500 11.000
41.39000 7.000
41.40500 9.000
41.42000 11.000
41.43500 9.000
41.45000 9.000
41.46500 12.000
41.48000 10.000
41.49500 9.000
41.51000 6.000
41.52500 10.000
41.54000 12.000
41.55500 12.000
41.57000 6.000
41.58500 9.000
41.60000 11.000
41.61500 10.000
41.63000 9.000
41.64500 10.000
41.66000 8.000
41.67500 11.000
41.69000 13.000
41.70500 10.000
41.72000 11.000
41.73500 9.000
41.75000 12.000
41.76500 9.000
41.78000 10.000
41.79500 8.000
41.81000 12.000
41.82500 15.000
41.84000 7.000
41.85500 8.000
41.87000 8.000
41.88500 8.000
41.90000 9.000
41.91500 12.000
41.93000 13.000
41.94500 7.000
41.96000 9.000
41.97500 9.000
41.99000 11.000
42.00500 9.000
42.02000 8.000
42.03500 11.000
42.05000 11.000
42.06500 12.000
42.08000 10.000
42.09500 6.000
42.11000 9.000
42.12500 12.000
42.14000 11.000
42.15500 7.000
42.17000 10.000
42.18500 9.000
42.20000 14.000
42.21500 9.000
42.23000 5.000
42.24500 15.000
42.26000 8.000
42.27500 9.000
42.29000 5.000
42.30500 9.000
42.32000 7.000
42.33500 6.000
42.35000 10.000
42.36500 5.000
42.38000 5.000
42.39500 7.000
42.41000 11.000
42.42500 5.000
42.44000 9.000
42.45500 13.000
42.47000 11.000
42.48500 13.000
42.50000 10.000
42.51500 14.000
42.53000 10.000
42.54500 9.000
42.56000 5.000
42.57500 9.000
42.59000 17.000
42.60500 14.000
42.62000 11.000
42.63500 8.000
42.65000 12.000
42.66500 8.000
42.68000 4.000
42.69500 6.000
42.71000 8.000
42.72500 7.000
42.74000 13.000
42.75500 10.000
42.77000 11.000
42.78500 7.000
42.80000 12.000
42.81500 11.000
42.83000 10.000
42.84500 10.000
42.86000 9.000
42.87500 9.000
42.89000 12.000
42.90500 11.000
42.92000 11.000
42.93500 12.000
42.95000 9.000
42.96500 9.000
42.98000 10.000
42.99500 9.000
43.01000 14.000
43.02500 10.000
43.04000 11.000
43.05500 6.000
43.07000 13.000
43.08500 10.000
43.10000 10.000
43.11500 14.000
43.13000 10.000
43.14500 13.000
43.16000 9.000
43.17500 10.000
43.19000 5.000
43.20500 8.000
43.22000 6.000
43.23500 12.000
43.25000 13.000
43.26500 7.000
43.28000 10.000
43.29500 11.000
43.31000 9.000
43.32500 12.000
43.34000 9.000
43.35500 8.000
43.37000 13.000
43.38500 8.000
43.40000 9.000
43.41500 10.000
43.43000 9.000
43.44500 12.000
43.46000 9.000
43.47500 9.000
43.49000 14.000
43.50500 10.000
43.52000 8.000
43.53500 10.000
43.55000 8.000
43.56500 11.000
43.58000 11.000
43.59500 11.000
43.61000 11.000
43.62500 9.000
43.64000 10.000
43.65500 8.000
43.67000 6.000
43.68500 13.000
43.70000 10.000
43.71500 8.000
43.73000 8.000
43.74500 8.000
43.76000 6.000
43.77500 8.000
43.79000 9.000
43.80500 9.000
43.82000 5.000
43.83500 8.000
43.85000 10.000
43.86500 6.000
43.88000 12.000
43.89500 10.000
43.91000 7.000
43.92500 10.000
43.94000 9.000
43.95500 13.000
43.97000 8.000
43.98500 9.000
44.00000 11.000
44.01500 9.000
44.03000 9.000
44.04500 8.000
44.06000 10.000
44.07500 8.000
44.09000 12.000
44.10500 11.000
44.12000 10.000
44.13500 9.000
44.15000 5.000
44.16500 5.000
44.18000 7.000
44.19500 11.000
44.21000 10.000
44.22500 9.000
44.24000 8.000
44.25500 11.000
44.27000 14.000
44.28500 12.000
44.30000 11.000
44.31500 8.000
44.33000 12.000
44.34500 8.000
44.36000 11.000
44.37500 9.000
44.39000 8.000
44.40500 12.000
44.42000 11.000
44.43500 13.000
44.45000 11.000
44.46500 10.000
44.48000 9.000
44.49500 5.000
44.51000 9.000
44.52500 12.000
44.54000 12.000
44.55500 8.000
44.57000 9.000
44.58500 7.000
44.60000 7.000
44.61500 8.000
44.63000 4.000
44.64500 7.000
44.66000 9.000
44.67500 9.000
44.69000 7.000
44.70500 3.000
44.72000 8.000
44.73500 12.000
44.75000 10.000
44.76500 9.000
44.78000 9.000
44.79500 5.000
44.81000 8.000
44.82500 10.000
44.84000 12.000
44.85500 13.000
44.87000 11.000
44.88500 9.000
44.90000 9.000
44.91500 5.000
44.93000 5.000
44.94500 11.000
44.96000 12.000
44.97500 12.000
44.99000 8.000
45.00500 7.000
45.02000 10.000
45.03500 9.000
45.05000 6.000
45.06500 5.000
45.08000 9.000
45.09500 8.000
45.11000 12.000
45.12500 9.000
45.14000 11.000
45.15500 8.000
45.17000 13.000
45.18500 10.000
45.20000 8.000
45.21500 9.000
45.23000 10.000
45.24500 11.000
45.26000 10.000
45.27500 11.000
45.29000 6.000
45.30500 11.000
45.32000 11.000
45.33500 13.000
45.35000 7.000
45.36500 10.000
45.38000 11.000
45.39500 8.000
45.41000 6.000
45.42500 6.000
45.44000 9.000
45.45500 5.000
45.47000 7.000
45.48500 14.000
45.50000 9.000
45.51500 7.000
45.53000 7.000
45.54500 14.000
45.56000 10.000
45.57500 10.000
45.59000 7.000
45.60500 10.000
45.62000 8.000
45.63500 7.000
45.65000 13.000
45.66500 13.000
45.68000 10.000
45.69500 12.000
45.71000 14.000
45.72500 16.000
45.74000 12.000
45.75500 7.000
45.77000 7.000
45.78500 12.000
45.80000 9.000
45.81500 12.000
45.83000 12.000
45.84500 10.000
45.86000 9.000
45.87500 7.000
45.89000 6.000
45.90500 9.000
45.92000 9.000
45.93500 8.000
45.95000 12.000
45.96500 8.000
45.98000 7.000
45.99500 10.000
46.01000 9.000
46.02500 9.000
46.04000 10.000
46.05500 12.000
46.07000 9.000
46.08500 12.000
46.10000 10.000
46.11500 5.000
46.13000 7.000
46.14500 8.000
46.16000 8.000
46.17500 11.000
46.19000 10.000
46.20500 5.000
46.22000 8.000
46.23500 8.000
46.25000 7.000
46.26500 5.000
46.28000 5.000
46.29500 8.000
46.31000 7.000
46.32500 9.000
46.34000 12.000
46.35500 9.000
46.37000 8.000
46.38500 10.000
46.40000 8.000
46.41500 11.000
46.43000 11.000
46.44500 12.000
46.46000 13.000
46.47500 9.000
46.49000 13.000
46.50500 17.000
46.52000 16.000
46.53500 9.000
46.55000 13.000
46.56500 12.000
46.58000 10.000
46.59500 10.000
46.61000 11.000
46.62500 14.000
46.64000 9.000
46.65500 8.000
46.67000 9.000
46.68500 4.000
46.70000 6.000
46.71500 8.000
46.73000 8.000
46.74500 7.000
46.76000 6.000
46.77500 12.000
46.79000 9.000
46.80500 9.000
46.82000 11.000
46.83500 8.000
46.85000 9.000
46.86500 7.000
46.88000 8.000
46.89500 12.000
46.91000 6.000
46.92500 8.000
46.94000 7.000
46.95500 9.000
46.97000 10.000
46.98500 15.000
47.00000 13.000
47.01500 12.000
47.03000 11.000
47.04500 8.000
47.06000 7.000
47.07500 7.000
47.09000 12.000
47.10500 12.000
47.12000 7.000
47.13500 8.000
47.15000 12.000
47.16500 8.000
47.18000 12.000
47.19500 11.000
47.21000 9.000
47.22500 9.000
47.24000 11.000
47.25500 7.000
47.27000 8.000
47.28500 9.000
47.30000 10.000
47.31500 8.000
47.33000 7.000
47.34500 11.000
47.36000 11.000
47.37500 8.000
47.39000 8.000
47.40500 7.000
47.42000 12.000
47.43500 11.000
47.45000 13.000
47.46500 7.000
47.48000 9.000
47.49500 8.000
47.51000 10.000
47.52500 8.000
47.54000 10.000
47.55500 10.000
47.57000 10.000
47.58500 10.000
47.60000 8.000
47.61500 7.000
47.63000 6.000
47.64500 5.000
47.66000 7.000
47.67500 7.000
47.69000 14.000
47.70500 11.000
47.72000 12.000
47.73500 11.000
47.75000 10.000
47.76500 9.000
47.78000 6.000
47.79500 6.000
47.81000 9.000
47.82500 10.000
47.84000 9.000
47.85500 8.000
47.87000 9.000
47.88500 9.000
47.90000 8.000
47.91500 10.000
47.93000 8.000
47.94500 8.000
47.96000 11.000
47.97500 9.000
47.99000 8.000
48.00500 11.000
48.02000 14.000
48.03500 12.000
48.05000 11.000
48.06500 9.000
48.08000 12.000
48.09500 12.000
48.11000 11.000
48.12500 14.000
48.14000 10.000
48.15500 9.000
48.17000 14.000
48.18500 12.000
48.20000 7.000
48.21500 7.000
48.23000 9.000
48.24500 6.000
48.26000 10.000
48.27500 14.000
48.29000 7.000
48.30500 11.000
48.32000 16.000
48.33500 9.000
48.35000 11.000
48.36500 12.000
48.38000 11.000
48.39500 9.000
48.41000 10.000
48.42500 16.000
48.44000 10.000
48.45500 9.000
48.47000 9.000
48.48500 10.000
48.50000 10.000
48.51500 11.000
48.53000 7.000
48.54500 8.000
48.56000 11.000
48.57500 10.000
48.59000 9.000
48.60500 10.000
48.62000 10.000
48.63500 10.000
48.65000 7.000
48.66500 15.000
48.68000 12.000
48.69500 9.000
48.71000 9.000
48.72500 9.000
48.74000 10.000
48.75500 10.000
48.77000 12.000
48.78500 7.000
48.80000 14.000
48.81500 11.000
48.83000 8.000
48.84500 9.000
48.86000 10.000
48.87500 8.000
48.89000 9.000
48.90500 8.000
48.92000 10.000
48.93500 11.000
48.95000 15.000
48.96500 9.000
48.98000 15.000
48.99500 12.000
49.01000 9.000
49.02500 4.000
49.04000 10.000
49.05500 9.000
49.07000 10.000
49.08500 16.000
49.10000 6.000
49.11500 14.000
49.13000 11.000
49.14500 8.000
49.16000 14.000
49.17500 12.000
49.19000 13.000
49.20500 11.000
49.22000 9.000
49.23500 13.000
49.25000 12.000
49.26500 8.000
49.28000 9.000
49.29500 10.000
49.31000 8.000
49.32500 5.000
49.34000 6.000
49.35500 8.000
49.37000 10.000
49.38500 14.000
49.40000 7.000
49.41500 10.000
49.43000 11.000
49.44500 9.000
49.46000 9.000
49.47500 14.000
49.49000 15.000
49.50500 12.000
49.52000 14.000
49.53500 10.000
49.55000 8.000
49.56500 10.000
49.58000 11.000
49.59500 13.000
49.61000 10.000
49.62500 11.000
49.64000 13.000
49.65500 9.000
49.67000 10.000
49.68500 8.000
49.70000 11.000
49.71500 9.000
49.73000 10.000
49.74500 7.000
49.76000 10.000
49.77500 13.000
49.79000 8.000
49.80500 9.000
49.82000 10.000
49.83500 8.000
49.85000 10.000
49.86500 11.000
49.88000 12.000
49.89500 12.000
49.91000 12.000
49.92500 13.000
49.94000 9.000
49.95500 12.000
49.97000 10.000
49.98500 11.000
50.00000 11.000
50.01500 10.000
50.03000 14.000
50.04500 11.000
50.06000 11.000
50.07500 12.000
50.09000 13.000
50.10500 9.000
50.12000 10.000
50.13500 12.000
50.15000 12.000
50.16500 8.000
50.18000 11.000
50.19500 13.000
50.21000 10.000
50.22500 10.000
50.24000 15.000
50.25500 10.000
50.27000 10.000
50.28500 13.000
50.30000 10.000
50.31500 11.000
50.33000 10.000
50.34500 8.000
50.36000 8.000
50.37500 12.000
50.39000 14.000
50.40500 10.000
50.42000 9.000
50.43500 13.000
50.45000 10.000
50.46500 8.000
50.48000 9.000
50.49500 6.000
50.51000 11.000
50.52500 13.000
50.54000 13.000
50.55500 12.000
50.57000 8.000
50.58500 10.000
50.60000 9.000
50.61500 10.000
50.63000 10.000
50.64500 7.000
50.66000 4.000
50.67500 7.000
50.69000 10.000
50.70500 12.000
50.72000 10.000
50.73500 10.000
50.75000 6.000
50.76500 7.000
50.78000 7.000
50.79500 6.000
50.81000 7.000
50.82500 9.000
50.84000 8.000
50.85500 8.000
50.87000 10.000
50.88500 13.000
50.90000 7.000
50.91500 8.000
50.93000 8.000
50.94500 11.000
50.96000 15.000
50.97500 11.000
50.99000 7.000
51.00500 9.000
51.02000 10.000
51.03500 15.000
51.05000 12.000
51.06500 8.000
51.08000 12.000
51.09500 11.000
51.11000 8.000
51.12500 10.000
51.14000 7.000
51.15500 8.000
51.17000 10.000
51.18500 8.000
51.20000 10.000
51.21500 10.000
51.23000 10.000
51.24500 15.000
51.26000 12.000
51.27500 7.000
51.29000 9.000
51.30500 9.000
51.32000 10.000
51.33500 10.000
51.35000 7.000
51.36500 9.000
51.38000 8.000
51.39500 6.000
51.41000 12.000
51.42500 11.000
51.44000 9.000
51.45500 8.000
51.47000 10.000
51.48500 12.000
51.50000 10.000
51.51500 13.000
51.53000 8.000
51.54500 10.000
51.56000 6.000
51.57500 12.000
51.59000 6.000
51.60500 6.000
51.62000 8.000
51.63500 11.000
51.65000 4.000
51.66500 5.000
51.68000 16.000
51.69500 6.000
51.71000 12.000
51.72500 12.000
51.74000 7.000
51.75500 6.000
51.77000 10.000
51.78500 9.000
51.80000 11.000
51.81500 8.000
51.83000 12.000
51.84500 11.000
51.86000 14.000
51.87500 9.000
51.89000 8.000
51.90500 10.000
51.92000 15.000
51.93500 10.000
51.95000 4.000
51.96500 8.000
51.98000 14.000
51.99500 16.000
52.01000 12.000
52.02500 13.000
52.04000 11.000
52.05500 13.000
52.07000 7.000
52.08500 8.000
52.10000 10.000
52.11500 10.000
52.13000 7.000
52.14500 10.000
52.16000 10.000
52.17500 12.000
52.19000 7.000
52.20500 11.000
52.22000 8.000
52.23500 15.000
52.25000 10.000
52.26500 15.000
52.28000 13.000
52.29500 7.000
52.31000 10.000
52.32500 11.000
52.34000 8.000
52.35500 7.000
52.37000 7.000
52.38500 8.000
52.40000 10.000
52.41500 10.000
52.43000 15.000
52.44500 10.000
52.46000 9.000
52.47500 9.000
52.49000 7.000
52.50500 6.000
52.52000 4.000
52.53500 6.000
52.55000 7.000
52.56500 11.000
52.58000 10.000
52.59500 8.000
52.61000 8.000
52.62500 9.000
52.64000 7.000
52.65500 7.000
52.67000 9.000
52.68500 10.000
52.70000 9.000
52.71500 16.000
52.73000 8.000
52.74500 8.000
52.76000 6.000
52.77500 8.000
52.79000 9.000
52.80500 11.000
52.82000 14.000
52.83500 10.000
52.85000 6.000
52.86500 10.000
52.88000 12.000
52.89500 18.000
52.91000 15.000
52.92500 10.000
52.94000 11.000
52.95500 13.000
52.97000 12.000
52.98500 9.000
53.00000 11.000
53.01500 10.000
53.03000 6.000
53.04500 8.000
53.06000 9.000
53.07500 11.000
53.09000 9.000
53.10500 7.000
53.12000 8.000
53.13500 6.000
53.15000 13.000
53.16500 12.000
53.18000 12.000
53.19500 7.000
53.21000 6.000
53.22500 7.000
53.24000 13.000
53.25500 6.000
53.27000 9.000
53.28500 13.000
53.30000 7.000
53.31500 13.000
53.33000 7.000
53.34500 10.000
53.36000 10.000
53.37500 13.000
53.39000 12.000
53.40500 9.000
53.42000 7.000
53.43500 8.000
53.45000 12.000
53.46500 10.000
53.48000 11.000
53.49500 13.000
53.51000 14.000
53.52500 7.000
53.54000 13.000
53.55500 8.000
53.57000 8.000
53.58500 8.000
53.60000 7.000
53.61500 9.000
53.63000 10.000
53.64500 16.000
53.66000 11.000
53.67500 8.000
53.69000 9.000
53.70500 9.000
53.72000 10.000
53.73500 10.000
53.75000 8.000
53.76500 8.000
53.78000 10.000
53.79500 10.000
53.81000 13.000
53.82500 11.000
53.84000 10.000
53.85500 13.000
53.87000 13.000
53.88500 8.000
53.90000 11.000
53.91500 11.000
53.93000 8.000
53.94500 13.000
53.96000 12.000
53.97500 6.000
53.99000 11.000
54.00500 12.000
54.02000 13.000
54.03500 11.000
54.05000 8.000
54.06500 7.000
54.08000 10.000
54.09500 9.000
54.11000 12.000
54.12500 14.000
54.14000 13.000
54.15500 13.000
54.17000 15.000
54.18500 10.000
54.20000 6.000
54.21500 10.000
54.23000 9.000
54.24500 9.000
54.26000 10.000
54.27500 9.000
54.29000 9.000
54.30500 10.000
54.32000 12.000
54.33500 11.000
54.35000 8.000
54.36500 6.000
54.38000 9.000
54.39500 8.000
54.41000 8.000
54.42500 11.000
54.44000 8.000
54.45500 13.000
54.47000 9.000
54.48500 11.000
