2.00000 6.000
2.01500 3.000
2.03000 3.000
2.04500 4.000
2.06000 1.000
2.07500 0.000
2.09000 1.000
2.10500 3.000
2.12000 3.000
2.13500 2.000
2.15000 2.000
2.16500 5.000
2.18000 2.000
2.19500 3.000
2.21000 4.000
2.22500 3.000
2.24000 2.000
2.25500 2.000
2.27000 0.000
2.28500 2.000
2.30000 1.000
2.31500 1.000
2.33000 2.000
2.34500 2.000
2.36000 4.000
2.37500 3.000
2.39000 1.000
2.40500 2.000
2.42000 4.000
2.43500 3.000
2.45000 4.000
2.46500 5.000
2.48000 4.000
2.49500 5.000
2.51000 3.000
2.52500 5.000
2.54000 5.000
2.55500 2.000
2.57000 3.000
2.58500 5.000
2.60000 3.000
2.61500 3.000
2.63000 4.000
2.64500 5.000
2.66000 3.000
2.67500 4.000
2.69000 5.000
2.70500 4.000
2.72000 5.000
2.73500 5.000
2.75000 3.000
2.76500 2.000
2.78000 2.000
2.79500 3.000
2.81000 1.000
2.82500 3.000
2.84000 4.000
2.85500 3.000
2.87000 4.000
2.88500 4.000
2.90000 1.000
2.91500 1.000
2.93000 3.000
2.94500 3.000
2.96000 3.000
2.97500 2.000
2.99000 6.000
3.00500 5.000
3.02000 13.000
3.03500 20.000
3.05000 19.000
3.06500 30.000
3.08000 49.000
3.09500 57.000
3.11000 102.000
3.12500 126.000
3.14000 150.000
3.15500 177.000
3.17000 199.000
3.18500 222.000
3.20000 236.000
3.21500 229.000
3.23000 225.000
3.24500 243.000
3.26000 240.000
3.27500 234.000
3.29000 207.000
3.30500 215.000
3.32000 222.000
3.33500 218.000
3.35000 220.000
3.36500 218.000
3.38000 231.000
3.39500 208.000
3.41000 209.000
3.42500 202.000
3.44000 205.000
3.45500 209.000
3.47000 208.000
3.48500 202.000
3.50000 216.000
3.51500 186.000
3.53000 193.000
3.54500 205.000
3.56000 196.000
3.57500 187.000
3.59000 177.000
3.60500 172.000
3.62000 165.000
3.63500 204.000
3.65000 182.000
3.66500 193.000
3.68000 188.000
3.69500 184.000
3.71000 198.000
3.72500 218.000
3.74000 205.000
3.75500 185.000
3.77000 188.000
3.78500 193.000
3.80000 183.000
3.81500 192.000
3.83000 176.000
3.84500 184.000
3.86000 187.000
3.87500 186.000
3.89000 173.000
3.90500 177.000
3.92000 170.000
3.93500 180.000
3.95000 183.000
3.96500 196.000
3.98000 189.000
3.99500 182.000
4.01000 168.000
4.02500 189.000
4.04000 186.000
4.05500 176.000
4.07000 167.000
4.08500 159.000
4.10000 179.000
4.11500 183.000
4.13000 184.000
4.14500 184.000
4.16000 183.000
4.17500 186.000
4.19000 165.000
4.20500 170.000
4.22000 179.000
4.23500 203.000
4.25000 183.000
4.26500 146.000
4.28000 167.000
4.29500 204.000
4.31000 179.000
4.32500 167.000
4.34000 163.000
4.35500 172.000
4.37000 172.000
4.38500 182.000
4.40000 182.000
4.41500 187.000
4.43000 192.000
4.44500 189.000
4.46000 182.000
4.47500 170.000
4.49000 169.000
4.50500 161.000
4.52000 173.000
4.53500 203.000
4.55000 170.000
4.56500 169.000
4.58000 160.000
4.59500 169.000
4.61000 172.000
4.62500 151.000
4.64000 168.000
4.65500 188.000
4.67000 179.000
4.68500 162.000
4.70000 173.000
4.71500 167.000
4.73000 173.000
4.74500 154.000
4.76000 173.000
4.77500 173.000
4.79000 173.000
4.80500 194.000
4.82000 165.000
4.83500 155.000
4.85000 182.000
4.86500 164.000
4.88000 157.000
4.89500 180.000
4.91000 172.000
4.92500 190.000
4.94000 164.000
4.95500 160.000
4.97000 177.000
4.98500 168.000
5.00000 165.000
5.01500 171.000
5.03000 195.000
5.04500 176.000
5.06000 200.000
5.07500 171.000
5.09000 185.000
5.10500 179.000
5.12000 178.000
5.13500 147.000
5.15000 168.000
5.16500 192.000
5.18000 181.000
5.19500 182.000
5.21000 186.000
5.22500 176.000
5.24000 178.000
5.25500 187.000
5.27000 181.000
5.28500 160.000
5.30000 174.000
5.31500 160.000
5.33000 156.000
5.34500 165.000
5.36000 174.000
5.37500 175.000
5.39000 169.000
5.40500 191.000
5.42000 190.000
5.43500 173.000
5.45000 171.000
5.46500 184.000
5.48000 176.000
5.49500 155.000
5.51000 169.000
5.52500 175.000
5.54000 166.000
5.55500 181.000
5.57000 169.000
5.58500 168.000
5.60000 177.000
5.61500 182.000
5.63000 186.000
5.64500 173.000
5.66000 175.000
5.67500 169.000
5.69000 174.000
5.70500 176.000
5.72000 175.000
5.73500 189.000
5.75000 176.000
5.76500 187.000
5.78000 186.000
5.79500 178.000
5.81000 174.000
5.82500 199.000
5.84000 184.000
5.85500 184.000
5.87000 179.000
5.88500 166.000
5.90000 170.000
5.91500 198.000
5.93000 195.000
5.94500 192.000
5.96000 200.000
5.97500 191.000
5.99000 158.000
6.00500 174.000
6.02000 179.000
6.03500 163.000
6.05000 164.000
6.06500 179.000
6.08000 172.000
6.09500 186.000
6.11000 184.000
6.12500 173.000
6.14000 174.000
6.15500 173.000
6.17000 165.000
6.18500 175.000
6.20000 179.000
6.21500 194.000
6.23000 179.000
6.24500 182.000
6.26000 186.000
6.27500 188.000
6.29000 171.000
6.30500 178.000
6.32000 188.000
6.33500 189.000
6.35000 200.000
6.36500 182.000
6.38000 182.000
6.39500 180.000
6.41000 159.000
6.42500 155.000
6.44000 172.000
6.45500 177.000
6.47000 184.000
6.48500 176.000
6.50000 189.000
6.51500 202.000
6.53000 164.000
6.54500 179.000
6.56000 176.000
6.57500 184.000
6.59000 196.000
6.60500 191.000
6.62000 183.000
6.63500 198.000
6.65000 181.000
6.66500 198.000
6.68000 187.000
6.69500 191.000
6.71000 194.000
6.72500 194.000
6.74000 177.000
6.75500 174.000
6.77000 188.000
6.78500 189.000
6.80000 186.000
6.81500 205.000
6.83000 205.000
6.84500 190.000
6.86000 185.000
6.87500 181.000
6.89000 187.000
6.90500 192.000
6.92000 193.000
6.93500 206.000
6.95000 183.000
6.96500 194.000
6.98000 189.000
6.99500 202.000
7.01000 197.000
7.02500 222.000
7.04000 191.000
7.05500 199.000
7.07000 205.000
7.08500 215.000
7.10000 201.000
7.11500 200.000
7.13000 200.000
7.14500 188.000
7.16000 186.000
7.17500 201.000
7.19000 190.000
7.20500 171.000
7.22000 169.000
7.23500 188.000
7.25000 182.000
7.26500 191.000
7.28000 196.000
7.29500 181.000
7.31000 194.000
7.32500 187.000
7.34000 187.000
7.35500 183.000
7.37000 176.000
7.38500 183.000
7.40000 212.000
7.41500 189.000
7.43000 194.000
7.44500 199.000
7.46000 198.000
7.47500 195.000
7.49000 199.000
7.50500 209.000
7.52000 194.000
7.53500 198.000
7.55000 201.000
7.56500 197.000
7.58000 209.000
7.59500 211.000
7.61000 207.000
7.62500 206.000
7.64000 209.000
7.65500 212.000
7.67000 217.000
7.68500 196.000
7.70000 196.000
7.71500 235.000
7.73000 214.000
7.74500 236.000
7.76000 221.000
7.77500 207.000
7.79000 226.000
7.80500 207.000
7.82000 209.000
7.83500 197.000
7.85000 199.000
7.86500 188.000
7.88000 202.000
7.89500 206.000
7.91000 200.000
7.92500 196.000
7.94000 195.000
7.95500 224.000
7.97000 202.000
7.98500 212.000
8.00000 211.000
8.01500 216.000
8.03000 208.000
8.04500 193.000
8.06000 207.000
8.07500 191.000
8.09000 204.000
8.10500 205.000
8.12000 191.000
8.13500 205.000
8.15000 192.000
8.16500 211.000
8.18000 228.000
8.19500 197.000
8.21000 206.000
8.22500 219.000
8.24000 212.000
8.25500 220.000
8.27000 215.000
8.28500 227.000
8.30000 218.000
8.31500 202.000
8.33000 230.000
8.34500 244.000
8.36000 207.000
8.37500 199.000
8.39000 216.000
8.40500 230.000
8.42000 234.000
8.43500 217.000
8.45000 228.000
8.46500 234.000
8.48000 247.000
8.49500 235.000
8.51000 247.000
8.52500 277.000
8.54000 262.000
8.55500 247.000
8.57000 261.000
8.58500 255.000
8.60000 241.000
8.61500 251.000
8.63000 251.000
8.64500 249.000
8.66000 253.000
8.67500 273.000
8.69000 276.000
8.70500 335.000
8.72000 332.000
8.73500 349.000
8.75000 366.000
8.76500 407.000
8.78000 443.000
8.79500 473.000
8.81000 514.000
8.82500 586.000
8.84000 615.000
8.85500 689.000
8.87000 802.000
8.88500 938.000
8.90000 1045.000
8.91500 1142.000
8.93000 1370.000
8.94500 1604.000
8.96000 1962.000
8.97500 2372.000
8.99000 2898.000
9.00500 3230.000
9.02000 3179.000
9.03500 2640.000
9.05000 1721.000
9.06500 1037.000
9.08000 687.000
9.09500 521.000
9.11000 439.000
9.12500 383.000
9.14000 355.000
9.15500 336.000
9.17000 285.000
9.18500 292.000
9.20000 249.000
9.21500 264.000
9.23000 262.000
9.24500 249.000
9.26000 239.000
9.27500 236.000
9.29000 224.000
9.30500 257.000
9.32000 235.000
9.33500 264.000
9.35000 236.000
9.36500 224.000
9.38000 222.000
9.39500 234.000
9.41000 240.000
9.42500 224.000
9.44000 226.000
9.45500 222.000
9.47000 217.000
9.48500 225.000
9.50000 195.000
9.51500 213.000
9.53000 210.000
9.54500 197.000
9.56000 219.000
9.57500 220.000
9.59000 222.000
9.60500 224.000
9.62000 218.000
9.63500 215.000
9.65000 216.000
9.66500 206.000
9.68000 200.000
9.69500 226.000
9.71000 253.000
9.72500 230.000
9.74000 224.000
9.75500 211.000
9.77000 197.000
9.78500 195.000
9.80000 223.000
9.81500 223.000
9.83000 220.000
9.84500 214.000
9.86000 208.000
9.87500 226.000
9.89000 223.000
9.90500 215.000
9.92000 243.000
9.93500 259.000
9.95000 202.000
9.96500 211.000
9.98000 246.000
9.99500 236.000
10.01000 202.000
10.02500 222.000
10.04000 234.000
10.05500 194.000
10.07000 211.000
10.08500 236.000
10.10000 247.000
10.11500 226.000
10.13000 221.000
10.14500 220.000
10.16000 214.000
10.17500 236.000
10.19000 246.000
10.20500 229.000
10.22000 252.000
10.23500 296.000
10.25000 275.000
10.26500 306.000
10.28000 318.000
10.29500 306.000
10.31000 352.000
10.32500 369.000
10.34000 400.000
10.35500 422.000
10.37000 464.000
10.38500 502.000
10.40000 576.000
10.41500 677.000
10.43000 761.000
10.44500 906.000
10.46000 1066.000
10.47500 1217.000
10.49000 1438.000
10.50500 1658.000
10.52000 2004.000
10.53500 2503.000
10.55000 2710.000
10.56500 2801.000
10.58000 2331.000
10.59500 1627.000
10.61000 1090.000
10.62500 751.000
10.64000 584.000
10.65500 465.000
10.67000 427.000
10.68500 386.000
10.70000 345.000
10.71500 327.000
10.73000 299.000
10.74500 296.000
10.76000 331.000
10.77500 323.000
10.79000 327.000
10.80500 341.000
10.82000 358.000
10.83500 323.000
10.85000 240.000
10.86500 238.000
10.88000 246.000
10.89500 240.000
10.91000 248.000
10.92500 217.000
10.94000 233.000
10.95500 239.000
10.97000 235.000
10.98500 227.000
11.00000 228.000
11.01500 208.000
11.03000 202.000
11.04500 223.000
11.06000 214.000
11.07500 236.000
11.09000 245.000
11.10500 247.000
11.12000 254.000
11.13500 235.000
11.15000 248.000
11.16500 246.000
11.18000 237.000
11.19500 250.000
11.21000 265.000
11.22500 267.000
11.24000 256.000
11.25500 250.000
11.27000 291.000
11.28500 252.000
11.30000 280.000
11.31500 305.000
11.33000 287.000
11.34500 305.000
11.36000 308.000
11.37500 341.000
11.39000 358.000
11.40500 388.000
11.42000 395.000
11.43500 427.000
11.45000 472.000
11.46500 532.000
11.48000 603.000
11.49500 675.000
11.51000 768.000
11.52500 825.000
11.54000 942.000
11.55500 1169.000
11.57000 1355.000
11.58500 1578.000
11.60000 1881.000
11.61500 2160.000
11.63000 2693.000
11.64500 3212.000
11.66000 3965.000
11.67500 4658.000
11.69000 5047.000
11.70500 4466.000
11.72000 3396.000
11.73500 2390.000
11.75000 1623.000
11.76500 1258.000
11.78000 1019.000
11.79500 856.000
11.81000 726.000
11.82500 675.000
11.84000 620.000
11.85500 536.000
11.87000 511.000
11.88500 508.000
11.90000 470.000
11.91500 403.000
11.93000 375.000
11.94500 370.000
11.96000 362.000
11.97500 349.000
11.99000 351.000
12.00500 331.000
12.02000 312.000
12.03500 302.000
12.05000 298.000
12.06500 287.000
12.08000 271.000
12.09500 247.000
12.11000 244.000
12.12500 287.000
12.14000 253.000
12.15500 247.000
12.17000 264.000
12.18500 270.000
12.20000 266.000
12.21500 243.000
12.23000 272.000
12.24500 234.000
12.26000 243.000
12.27500 248.000
12.29000 251.000
12.30500 262.000
12.32000 260.000
12.33500 246.000
12.35000 262.000
12.36500 279.000
12.38000 284.000
12.39500 268.000
12.41000 231.000
12.42500 230.000
12.44000 234.000
12.45500 224.000
12.47000 225.000
12.48500 212.000
12.50000 222.000
12.51500 221.000
12.53000 226.000
12.54500 235.000
12.56000 223.000
12.57500 239.000
12.59000 245.000
12.60500 232.000
12.62000 211.000
12.63500 223.000
12.65000 239.000
12.66500 227.000
12.68000 217.000
12.69500 202.000
12.71000 225.000
12.72500 232.000
12.74000 255.000
12.75500 275.000
12.77000 251.000
12.78500 250.000
12.80000 280.000
12.81500 318.000
12.83000 334.000
12.84500 391.000
12.86000 445.000
12.87500 505.000
12.89000 586.000
12.90500 661.000
12.92000 767.000
12.93500 886.000
12.95000 1081.000
12.96500 1369.000
12.98000 1812.000
12.99500 2355.000
13.01000 2876.000
13.02500 2991.000
13.04000 2260.000
13.05500 1355.000
13.07000 849.000
13.08500 584.000
13.10000 490.000
13.11500 446.000
13.13000 437.000
13.14500 435.000
13.16000 353.000
13.17500 302.000
13.19000 315.000
13.20500 324.000
13.22000 338.000
13.23500 393.000
13.25000 414.000
13.26500 450.000
13.28000 502.000
13.29500 558.000
13.31000 639.000
13.32500 814.000
13.34000 1014.000
13.35500 1235.000
13.37000 1446.000
13.38500 1697.000
13.40000 1805.000
13.41500 1504.000
13.43000 955.000
13.44500 569.000
13.46000 355.000
13.47500 302.000
13.49000 255.000
13.50500 242.000
13.52000 244.000
13.53500 218.000
13.55000 230.000
13.56500 240.000
13.58000 232.000
13.59500 208.000
13.61000 216.000
13.62500 210.000
13.64000 211.000
13.65500 201.000
13.67000 227.000
13.68500 200.000
13.70000 207.000
13.71500 227.000
13.73000 205.000
13.74500 211.000
13.76000 211.000
13.77500 226.000
13.79000 213.000
13.80500 210.000
13.82000 212.000
13.83500 193.000
13.85000 217.000
13.86500 215.000
13.88000 223.000
13.89500 221.000
13.91000 215.000
13.92500 250.000
13.94000 257.000
13.95500 283.000
13.97000 280.000
13.98500 312.000
14.00000 301.000
14.01500 278.000
14.03000 248.000
14.04500 242.000
14.06000 237.000
14.07500 216.000
14.09000 201.000
14.10500 211.000
14.12000 205.000
14.13500 209.000
14.15000 204.000
14.16500 234.000
14.18000 223.000
14.19500 218.000
14.21000 216.000
14.22500 190.000
14.24000 219.000
14.25500 215.000
14.27000 214.000
14.28500 205.000
14.30000 189.000
14.31500 210.000
14.33000 188.000
14.34500 215.000
14.36000 222.000
14.37500 222.000
14.39000 205.000
14.40500 226.000
14.42000 180.000
14.43500 226.000
14.45000 220.000
14.46500 203.000
14.48000 230.000
14.49500 199.000
14.51000 209.000
14.52500 206.000
14.54000 207.000
14.55500 209.000
14.57000 199.000
14.58500 225.000
14.60000 221.000
14.61500 227.000
14.63000 210.000
14.64500 220.000
14.66000 230.000
14.67500 215.000
14.69000 249.000
14.70500 248.000
14.72000 252.000
14.73500 252.000
14.75000 264.000
14.76500 285.000
14.78000 324.000
14.79500 362.000
14.81000 368.000
14.82500 425.000
14.84000 482.000
14.85500 578.000
14.87000 698.000
14.88500 864.000
14.90000 978.000
14.91500 1191.000
14.93000 1546.000
14.94500 1998.000
14.96000 2599.000
14.97500 3409.000
14.99000 4039.000
15.00500 3871.000
15.02000 2710.000
15.03500 1719.000
15.05000 892.000
15.06500 583.000
15.08000 431.000
15.09500 364.000
15.11000 311.000
15.12500 297.000
15.14000 266.000
15.15500 271.000
15.17000 230.000
15.18500 230.000
15.20000 234.000
15.21500 221.000
15.23000 221.000
15.24500 236.000
15.26000 219.000
15.27500 243.000
15.29000 235.000
15.30500 210.000
15.32000 232.000
15.33500 247.000
15.35000 239.000
15.36500 260.000
15.38000 257.000
15.39500 257.000
15.41000 265.000
15.42500 269.000
15.44000 277.000
15.45500 268.000
15.47000 238.000
15.48500 231.000
15.50000 231.000
15.51500 232.000
15.53000 227.000
15.54500 217.000
15.56000 229.000
15.57500 221.000
15.59000 233.000
15.60500 231.000
15.62000 249.000
15.63500 265.000
15.65000 261.000
15.66500 277.000
15.68000 293.000
15.69500 344.000
15.71000 377.000
15.72500 356.000
15.74000 321.000
15.75500 290.000
15.77000 276.000
15.78500 234.000
15.80000 246.000
15.81500 238.000
15.83000 231.000
15.84500 222.000
15.86000 248.000
15.87500 260.000
15.89000 270.000
15.90500 276.000
15.92000 323.000
15.93500 326.000
15.95000 342.000
15.96500 361.000
15.98000 397.000
15.99500 463.000
16.01000 557.000
16.02500 608.000
16.04000 682.000
16.05500 763.000
16.07000 836.000
16.08500 907.000
16.10000 889.000
16.11500 723.000
16.13000 584.000
16.14500 512.000
16.16000 432.000
16.17500 373.000
16.19000 345.000
16.20500 313.000
16.22000 306.000
16.23500 300.000
16.25000 270.000
16.26500 278.000
16.28000 264.000
16.29500 251.000
16.31000 276.000
16.32500 289.000
16.34000 279.000
16.35500 251.000
16.37000 246.000
16.38500 270.000
16.40000 243.000
16.41500 225.000
16.43000 250.000
16.44500 260.000
16.46000 270.000
16.47500 288.000
16.49000 310.000
16.50500 338.000
16.52000 358.000
16.53500 400.000
16.55000 466.000
16.56500 538.000
16.58000 657.000
16.59500 765.000
16.61000 905.000
16.62500 1102.000
16.64000 1390.000
16.65500 1683.000
16.67000 1776.000
16.68500 1655.000
16.70000 1249.000
16.71500 946.000
16.73000 738.000
16.74500 541.000
16.76000 443.000
16.77500 384.000
16.79000 346.000
16.80500 338.000
16.82000 292.000
16.83500 282.000
16.85000 261.000
16.86500 249.000
16.88000 225.000
16.89500 235.000
16.91000 232.000
16.92500 237.000
16.94000 247.000
16.95500 212.000
16.97000 226.000
16.98500 224.000
17.00000 219.000
17.01500 231.000
17.03000 241.000
17.04500 241.000
17.06000 230.000
17.07500 223.000
17.09000 220.000
17.10500 220.000
17.12000 206.000
17.13500 234.000
17.15000 209.000
17.16500 212.000
17.18000 232.000
17.19500 216.000
17.21000 209.000
17.22500 225.000
17.24000 219.000
17.25500 215.000
17.27000 226.000
17.28500 227.000
17.30000 229.000
17.31500 229.000
17.33000 213.000
17.34500 222.000
17.36000 219.000
17.37500 216.000
17.39000 204.000
17.40500 201.000
17.42000 219.000
17.43500 194.000
17.45000 206.000
17.46500 224.000
17.48000 208.000
17.49500 224.000
17.51000 200.000
17.52500 225.000
17.54000 210.000
17.55500 218.000
17.57000 223.000
17.58500 233.000
17.60000 226.000
17.61500 243.000
17.63000 219.000
17.64500 227.000
17.66000 238.000
17.67500 224.000
17.69000 228.000
17.70500 231.000
17.72000 227.000
17.73500 248.000
17.75000 248.000
17.76500 228.000
17.78000 246.000
17.79500 237.000
17.81000 265.000
17.82500 262.000
17.84000 279.000
17.85500 286.000
17.87000 300.000
17.88500 347.000
17.90000 313.000
17.91500 337.000
17.93000 407.000
17.94500 443.000
17.96000 511.000
17.97500 582.000
17.99000 683.000
18.00500 807.000
18.02000 996.000
18.03500 1176.000
18.05000 1423.000
18.06500 1654.000
18.08000 1846.000
18.09500 1967.000
18.11000 1820.000
18.12500 1514.000
18.14000 1203.000
18.15500 974.000
18.17000 751.000
18.18500 615.000
18.20000 512.000
18.21500 443.000
18.23000 408.000
18.24500 372.000
18.26000 331.000
18.27500 308.000
18.29000 302.000
18.30500 312.000
18.32000 293.000
18.33500 274.000
18.35000 251.000
18.36500 251.000
18.38000 257.000
18.39500 241.000
18.41000 241.000
18.42500 252.000
18.44000 277.000
18.45500 269.000
18.47000 261.000
18.48500 284.000
18.50000 298.000
18.51500 300.000
18.53000 282.000
18.54500 228.000
18.56000 228.000
18.57500 220.000
18.59000 242.000
18.60500 230.000
18.62000 231.000
18.63500 243.000
18.65000 246.000
18.66500 214.000
18.68000 227.000
18.69500 238.000
18.71000 227.000
18.72500 228.000
18.74000 243.000
18.75500 219.000
18.77000 223.000
18.78500 226.000
18.80000 259.000
18.81500 225.000
18.83000 230.000
18.84500 246.000
18.86000 274.000
18.87500 268.000
18.89000 271.000
18.90500 260.000
18.92000 239.000
18.93500 224.000
18.95000 222.000
18.96500 214.000
18.98000 211.000
18.99500 235.000
19.01000 213.000
19.02500 226.000
19.04000 210.000
19.05500 230.000
19.07000 211.000
19.08500 208.000
19.10000 220.000
19.11500 237.000
19.13000 240.000
19.14500 215.000
19.16000 205.000
19.17500 209.000
19.19000 210.000
19.20500 234.000
19.22000 216.000
19.23500 225.000
19.25000 191.000
19.26500 220.000
19.28000 219.000
19.29500 211.000
19.31000 211.000
19.32500 210.000
19.34000 232.000
19.35500 222.000
19.37000 241.000
19.38500 220.000
19.40000 226.000
19.41500 248.000
19.43000 270.000
19.44500 289.000
19.46000 330.000
19.47500 396.000
19.49000 449.000
19.50500 478.000
19.52000 610.000
19.53500 785.000
19.55000 1037.000
19.56500 1316.000
19.58000 1811.000
19.59500 2438.000
19.61000 2949.000
19.62500 2890.000
19.64000 2111.000
19.65500 1341.000
19.67000 821.000
19.68500 483.000
19.70000 356.000
19.71500 324.000
19.73000 280.000
19.74500 255.000
19.76000 278.000
19.77500 254.000
19.79000 264.000
19.80500 248.000
19.82000 236.000
19.83500 240.000
19.85000 224.000
19.86500 227.000
19.88000 229.000
19.89500 254.000
19.91000 244.000
19.92500 237.000
19.94000 233.000
19.95500 237.000
19.97000 229.000
19.98500 262.000
20.00000 228.000
20.01500 242.000
20.03000 241.000
20.04500 219.000
20.06000 231.000
20.07500 252.000
20.09000 249.000
20.10500 218.000
20.12000 221.000
20.13500 236.000
20.15000 274.000
20.16500 251.000
20.18000 282.000
20.19500 295.000
20.21000 300.000
20.22500 330.000
20.24000 357.000
20.25500 437.000
20.27000 524.000
20.28500 642.000
20.30000 791.000
20.31500 901.000
20.33000 764.000
20.34500 571.000
20.36000 410.000
20.37500 322.000
20.39000 281.000
20.40500 267.000
20.42000 269.000
20.43500 232.000
20.45000 253.000
20.46500 243.000
20.48000 262.000
20.49500 255.000
20.51000 231.000
20.52500 262.000
20.54000 247.000
20.55500 244.000
20.57000 281.000
20.58500 298.000
20.60000 290.000
20.61500 272.000
20.63000 305.000
20.64500 327.000
20.66000 392.000
20.67500 377.000
20.69000 424.000
20.70500 425.000
20.72000 375.000
20.73500 295.000
20.75000 288.000
20.76500 282.000
20.78000 294.000
20.79500 279.000
20.81000 304.000
20.82500 273.000
20.84000 277.000
20.85500 292.000
20.87000 270.000
20.88500 294.000
20.90000 305.000
20.91500 303.000
20.93000 302.000
20.94500 342.000
20.96000 360.000
20.97500 360.000
20.99000 389.000
21.00500 415.000
21.02000 450.000
21.03500 500.000
21.05000 549.000
21.06500 602.000
21.08000 682.000
21.09500 783.000
21.11000 893.000
21.12500 924.000
21.14000 886.000
21.15500 865.000
21.17000 809.000
21.18500 850.000
21.20000 870.000
21.21500 885.000
21.23000 841.000
21.24500 795.000
21.26000 682.000
21.27500 625.000
21.29000 593.000
21.30500 599.000
21.32000 571.000
21.33500 603.000
21.35000 597.000
21.36500 644.000
21.38000 651.000
21.39500 744.000
21.41000 791.000
21.42500 909.000
21.44000 1054.000
21.45500 1195.000
21.47000 1397.000
21.48500 1718.000
21.50000 2020.000
21.51500 2451.000
21.53000 2937.000
21.54500 3631.000
21.56000 4373.000
21.57500 5037.000
21.59000 5493.000
21.60500 5651.000
21.62000 5199.000
21.63500 4301.000
21.65000 3105.000
21.66500 2339.000
21.68000 1783.000
21.69500 1401.000
21.71000 1164.000
21.72500 1015.000
21.74000 846.000
21.75500 759.000
21.77000 725.000
21.78500 684.000
21.80000 663.000
21.81500 604.000
21.83000 526.000
21.84500 490.000
21.86000 493.000
21.87500 480.000
21.89000 471.000
21.90500 472.000
21.92000 436.000
21.93500 425.000
21.95000 404.000
21.96500 377.000
21.98000 372.000
21.99500 392.000
22.01000 390.000
22.02500 374.000
22.04000 368.000
22.05500 344.000
22.07000 356.000
22.08500 357.000
22.10000 354.000
22.11500 331.000
22.13000 320.000
22.14500 334.000
22.16000 313.000
22.17500 322.000
22.19000 336.000
22.20500 323.000
22.22000 321.000
22.23500 330.000
22.25000 321.000
22.26500 362.000
22.28000 377.000
22.29500 366.000
22.31000 376.000
22.32500 379.000
22.34000 383.000
22.35500 387.000
22.37000 425.000
22.38500 456.000
22.40000 494.000
22.41500 573.000
22.43000 661.000
22.44500 773.000
22.46000 882.000
22.47500 881.000
22.49000 833.000
22.50500 703.000
22.52000 577.000
22.53500 469.000
22.55000 411.000
22.56500 371.000
22.58000 364.000
22.59500 338.000
22.61000 329.000
22.62500 292.000
22.64000 285.000
22.65500 304.000
22.67000 300.000
22.68500 282.000
22.70000 286.000
22.71500 316.000
22.73000 329.000
22.74500 342.000
22.76000 335.000
22.77500 350.000
22.79000 411.000
22.80500 462.000
22.82000 491.000
22.83500 490.000
22.85000 418.000
22.86500 387.000
22.88000 370.000
22.89500 358.000
22.91000 335.000
22.92500 302.000
22.94000 302.000
22.95500 293.000
22.97000 269.000
22.98500 282.000
23.00000 258.000
23.01500 245.000
23.03000 245.000
23.04500 245.000
23.06000 242.000
23.07500 263.000
23.09000 252.000
23.10500 233.000
23.12000 259.000
23.13500 253.000
23.15000 235.000
23.16500 252.000
23.18000 274.000
23.19500 263.000
23.21000 267.000
23.22500 250.000
23.24000 261.000
23.25500 264.000
23.27000 280.000
23.28500 297.000
23.30000 315.000
23.31500 291.000
23.33000 308.000
23.34500 329.000
23.36000 344.000
23.37500 394.000
23.39000 391.000
23.40500 418.000
23.42000 459.000
23.43500 443.000
23.45000 425.000
23.46500 447.000
23.48000 439.000
23.49500 447.000
23.51000 441.000
23.52500 380.000
23.54000 367.000
23.55500 336.000
23.57000 333.000
23.58500 339.000
23.60000 281.000
23.61500 279.000
23.63000 278.000
23.64500 261.000
23.66000 264.000
23.67500 266.000
23.69000 250.000
23.70500 272.000
23.72000 258.000
23.73500 241.000
23.75000 242.000
23.76500 260.000
23.78000 237.000
23.79500 248.000
23.81000 261.000
23.82500 241.000
23.84000 243.000
23.85500 242.000
23.87000 240.000
23.88500 257.000
23.90000 248.000
23.91500 235.000
23.93000 255.000
23.94500 243.000
23.96000 216.000
23.97500 215.000
23.99000 219.000
24.00500 232.000
24.02000 246.000
24.03500 241.000
24.05000 251.000
24.06500 234.000
24.08000 226.000
24.09500 245.000
24.11000 234.000
24.12500 211.000
24.14000 221.000
24.15500 230.000
24.17000 247.000
24.18500 253.000
24.20000 258.000
24.21500 236.000
24.23000 238.000
24.24500 204.000
24.26000 221.000
24.27500 226.000
24.29000 228.000
24.30500 240.000
24.32000 206.000
24.33500 211.000
24.35000 210.000
24.36500 230.000
24.38000 232.000
24.39500 247.000
24.41000 225.000
24.42500 251.000
24.44000 249.000
24.45500 254.000
24.47000 249.000
24.48500 240.000
24.50000 231.000
24.51500 228.000
24.53000 241.000
24.54500 234.000
24.56000 230.000
24.57500 223.000
24.59000 234.000
24.60500 257.000
24.62000 251.000
24.63500 238.000
24.65000 235.000
24.66500 241.000
24.68000 240.000
24.69500 236.000
24.71000 248.000
24.72500 267.000
24.74000 238.000
24.75500 246.000
24.77000 235.000
24.78500 245.000
24.80000 221.000
24.81500 230.000
24.83000 221.000
24.84500 241.000
24.86000 233.000
24.87500 234.000
24.89000 258.000
24.90500 243.000
24.92000 221.000
24.93500 230.000
24.95000 214.000
24.96500 212.000
24.98000 232.000
24.99500 233.000
25.01000 219.000
25.02500 226.000
25.04000 222.000
25.05500 224.000
25.07000 234.000
25.08500 235.000
25.10000 239.000
25.11500 221.000
25.13000 212.000
25.14500 236.000
25.16000 231.000
25.17500 215.000
25.19000 246.000
25.20500 216.000
25.22000 210.000
25.23500 222.000
25.25000 223.000
25.26500 227.000
25.28000 221.000
25.29500 218.000
25.31000 231.000
25.32500 227.000
25.34000 221.000
25.35500 205.000
25.37000 206.000
25.38500 206.000
25.40000 213.000
25.41500 223.000
25.43000 216.000
25.44500 232.000
25.46000 208.000
25.47500 222.000
25.49000 220.000
25.50500 220.000
25.52000 218.000
25.53500 218.000
25.55000 215.000
25.56500 248.000
25.58000 235.000
25.59500 239.000
25.61000 264.000
25.62500 260.000
25.64000 217.000
25.65500 231.000
25.67000 226.000
25.68500 234.000
25.70000 226.000
25.71500 209.000
25.73000 192.000
25.74500 222.000
25.76000 216.000
25.77500 218.000
25.79000 226.000
25.80500 227.000
25.82000 242.000
25.83500 231.000
25.85000 237.000
25.86500 201.000
25.88000 215.000
25.89500 249.000
25.91000 250.000
25.92500 231.000
25.94000 241.000
25.95500 241.000
25.97000 218.000
25.98500 235.000
26.00000 233.000
26.01500 235.000
26.03000 240.000
26.04500 261.000
26.06000 237.000
26.07500 273.000
26.09000 280.000
26.10500 290.000
26.12000 324.000
26.13500 410.000
26.15000 459.000
26.16500 574.000
26.18000 680.000
26.19500 821.000
26.21000 834.000
26.22500 754.000
26.24000 633.000
26.25500 523.000
26.27000 373.000
26.28500 312.000
26.30000 302.000
26.31500 282.000
26.33000 291.000
26.34500 271.000
26.36000 259.000
26.37500 274.000
26.39000 267.000
26.40500 276.000
26.42000 255.000
26.43500 262.000
26.45000 267.000
26.46500 262.000
26.48000 270.000
26.49500 276.000
26.51000 296.000
26.52500 292.000
26.54000 300.000
26.55500 277.000
26.57000 264.000
26.58500 276.000
26.60000 256.000
26.61500 286.000
26.63000 296.000
26.64500 314.000
26.66000 321.000
26.67500 358.000
26.69000 378.000
26.70500 413.000
26.72000 453.000
26.73500 590.000
26.75000 679.000
26.76500 724.000
26.78000 722.000
26.79500 640.000
26.81000 585.000
26.82500 521.000
26.84000 436.000
26.85500 465.000
26.87000 401.000
26.88500 429.000
26.90000 404.000
26.91500 407.000
26.93000 399.000
26.94500 399.000
26.96000 404.000
26.97500 410.000
26.99000 425.000
27.00500 451.000
27.02000 446.000
27.03500 453.000
27.05000 472.000
27.06500 523.000
27.08000 622.000
27.09500 686.000
27.11000 795.000
27.12500 931.000
27.14000 991.000
27.15500 965.000
27.17000 869.000
27.18500 706.000
27.20000 586.000
27.21500 480.000
27.23000 432.000
27.24500 358.000
27.26000 349.000
27.27500 337.000
27.29000 321.000
27.30500 318.000
27.32000 342.000
27.33500 305.000
27.35000 315.000
27.36500 292.000
27.38000 317.000
27.39500 328.000
27.41000 354.000
27.42500 342.000
27.44000 379.000
27.45500 425.000
27.47000 474.000
27.48500 519.000
27.50000 597.000
27.51500 768.000
27.53000 939.000
27.54500 1170.000
27.56000 1525.000
27.57500 1826.000
27.59000 1998.000
27.60500 1881.000
27.62000 1502.000
27.63500 1086.000
27.65000 787.000
27.66500 629.000
27.68000 544.000
27.69500 499.000
27.71000 482.000
27.72500 443.000
27.74000 439.000
27.75500 435.000
27.77000 458.000
27.78500 467.000
27.80000 485.000
27.81500 487.000
27.83000 432.000
27.84500 420.000
27.86000 413.000
27.87500 347.000
27.89000 323.000
27.90500 299.000
27.92000 304.000
27.93500 319.000
27.95000 321.000
27.96500 312.000
27.98000 302.000
27.99500 326.000
28.01000 369.000
28.02500 369.000
28.04000 392.000
28.05500 455.000
28.07000 548.000
28.08500 600.000
28.10000 568.000
28.11500 495.000
28.13000 416.000
28.14500 337.000
28.16000 281.000
28.17500 271.000
28.19000 259.000
28.20500 237.000
28.22000 257.000
28.23500 269.000
28.25000 258.000
28.26500 264.000
28.28000 264.000
28.29500 267.000
28.31000 278.000
28.32500 261.000
28.34000 239.000
28.35500 246.000
28.37000 263.000
28.38500 272.000
28.40000 281.000
28.41500 280.000
28.43000 310.000
28.44500 313.000
28.46000 349.000
28.47500 393.000
28.49000 452.000
28.50500 519.000
28.52000 571.000
28.53500 739.000
28.55000 895.000
28.56500 1026.000
28.58000 1207.000
28.59500 1193.000
28.61000 1043.000
28.62500 849.000
28.64000 705.000
28.65500 587.000
28.67000 510.000
28.68500 490.000
28.70000 475.000
28.71500 502.000
28.73000 498.000
28.74500 498.000
28.76000 457.000
28.77500 451.000
28.79000 471.000
28.80500 474.000
28.82000 465.000
28.83500 436.000
28.85000 412.000
28.86500 387.000
28.88000 378.000
28.89500 378.000
28.91000 351.000
28.92500 295.000
28.94000 321.000
28.95500 302.000
28.97000 309.000
28.98500 313.000
29.00000 319.000
29.01500 309.000
29.03000 272.000
29.04500 293.000
29.06000 330.000
29.07500 337.000
29.09000 375.000
29.10500 415.000
29.12000 436.000
29.13500 421.000
29.15000 407.000
29.16500 329.000
29.18000 289.000
29.19500 254.000
29.21000 242.000
29.22500 253.000
29.24000 248.000
29.25500 241.000
29.27000 252.000
29.28500 226.000
29.30000 234.000
29.31500 240.000
29.33000 241.000
29.34500 244.000
29.36000 259.000
29.37500 246.000
29.39000 256.000
29.40500 274.000
29.42000 279.000
29.43500 287.000
29.45000 284.000
29.46500 270.000
29.48000 258.000
29.49500 231.000
29.51000 250.000
29.52500 234.000
29.54000 254.000
29.55500 261.000
29.57000 256.000
29.58500 240.000
29.60000 241.000
29.61500 239.000
29.63000 222.000
29.64500 241.000
29.66000 236.000
29.67500 242.000
29.69000 240.000
29.70500 221.000
29.72000 229.000
29.73500 253.000
29.75000 248.000
29.76500 222.000
29.78000 231.000
29.79500 234.000
29.81000 222.000
29.82500 229.000
29.84000 229.000
29.85500 244.000
29.87000 255.000
29.88500 233.000
29.90000 250.000
29.91500 231.000
29.93000 251.000
29.94500 241.000
29.96000 257.000
29.97500 253.000
29.99000 271.000
30.00500 256.000
30.02000 325.000
30.03500 326.000
30.05000 293.000
30.06500 302.000
30.08000 326.000
30.09500 352.000
30.11000 377.000
30.12500 435.000
30.14000 445.000
30.15500 521.000
30.17000 587.000
30.18500 726.000
30.20000 838.000
30.21500 1035.000
30.23000 1254.000
30.24500 1504.000
30.26000 1785.000
30.27500 1937.000
30.29000 1859.000
30.30500 1819.000
30.32000 1833.000
30.33500 1894.000
30.35000 2108.000
30.36500 2206.000
30.38000 2151.000
30.39500 1934.000
30.41000 1601.000
30.42500 1238.000
30.44000 991.000
30.45500 755.000
30.47000 616.000
30.48500 546.000
30.50000 452.000
30.51500 390.000
30.53000 391.000
30.54500 347.000
30.56000 307.000
30.57500 302.000
30.59000 290.000
30.60500 291.000
30.62000 285.000
30.63500 268.000
30.65000 240.000
30.66500 275.000
30.68000 266.000
30.69500 257.000
30.71000 272.000
30.72500 269.000
30.74000 265.000
30.75500 264.000
30.77000 234.000
30.78500 248.000
30.80000 244.000
30.81500 245.000
30.83000 243.000
30.84500 244.000
30.86000 227.000
30.87500 269.000
30.89000 254.000
30.90500 231.000
30.92000 252.000
30.93500 252.000
30.95000 268.000
30.96500 228.000
30.98000 255.000
30.99500 250.000
31.01000 258.000
31.02500 241.000
31.04000 237.000
31.05500 267.000
31.07000 273.000
31.08500 251.000
31.10000 263.000
31.11500 300.000
31.13000 298.000
31.14500 321.000
31.16000 324.000
31.17500 294.000
31.19000 309.000
31.20500 286.000
31.22000 302.000
31.23500 291.000
31.25000 269.000
31.26500 256.000
31.28000 264.000
31.29500 291.000
31.31000 287.000
31.32500 278.000
31.34000 292.000
31.35500 302.000
31.37000 299.000
31.38500 317.000
31.40000 313.000
31.41500 318.000
31.43000 325.000
31.44500 339.000
31.46000 360.000
31.47500 351.000
31.49000 345.000
31.50500 368.000
31.52000 395.000
31.53500 418.000
31.55000 458.000
31.56500 500.000
31.58000 535.000
31.59500 590.000
31.61000 631.000
31.62500 686.000
31.64000 742.000
31.65500 887.000
31.67000 1045.000
31.68500 1255.000
31.70000 1468.000
31.71500 1708.000
31.73000 1841.000
31.74500 2018.000
31.76000 2013.000
31.77500 2100.000
31.79000 2189.000
31.80500 2324.000
31.82000 2558.000
31.83500 2734.000
31.85000 2841.000
31.86500 2669.000
31.88000 2408.000
31.89500 2034.000
31.91000 1633.000
31.92500 1307.000
31.94000 1061.000
31.95500 922.000
31.97000 791.000
31.98500 694.000
32.00000 661.000
32.01500 587.000
32.03000 509.000
32.04500 480.000
32.06000 463.000
32.07500 447.000
32.09000 402.000
32.10500 390.000
32.12000 384.000
32.13500 352.000
32.15000 331.000
32.16500 339.000
32.18000 341.000
32.19500 342.000
32.21000 340.000
32.22500 313.000
32.24000 300.000
32.25500 308.000
32.27000 296.000
32.28500 283.000
32.30000 292.000
32.31500 293.000
32.33000 309.000
32.34500 331.000
32.36000 344.000
32.37500 331.000
32.39000 376.000
32.40500 423.000
32.42000 508.000
32.43500 597.000
32.45000 765.000
32.46500 965.000
32.48000 1247.000
32.49500 1598.000
32.51000 2152.000
32.52500 2626.000
32.54000 2815.000
32.55500 2522.000
32.57000 1983.000
32.58500 1355.000
32.60000 979.000
32.61500 678.000
32.63000 570.000
32.64500 561.000
32.66000 499.000
32.67500 514.000
32.69000 513.000
32.70500 493.000
32.72000 488.000
32.73500 479.000
32.75000 404.000
32.76500 380.000
32.78000 338.000
32.79500 305.000
32.81000 321.000
32.82500 312.000
32.84000 315.000
32.85500 290.000
32.87000 271.000
32.88500 239.000
32.90000 243.000
32.91500 232.000
32.93000 219.000
32.94500 224.000
32.96000 242.000
32.97500 214.000
32.99000 229.000
33.00500 232.000
33.02000 207.000
33.03500 214.000
33.05000 197.000
33.06500 217.000
33.08000 213.000
33.09500 227.000
33.11000 204.000
33.12500 220.000
33.14000 235.000
33.15500 233.000
33.17000 222.000
33.18500 238.000
33.20000 269.000
33.21500 284.000
33.23000 253.000
33.24500 277.000
33.26000 313.000
33.27500 318.000
33.29000 278.000
33.30500 239.000
33.32000 249.000
33.33500 210.000
33.35000 235.000
33.36500 234.000
33.38000 229.000
33.39500 225.000
33.41000 213.000
33.42500 224.000
33.44000 235.000
33.45500 254.000
33.47000 283.000
33.48500 325.000
33.50000 368.000
33.51500 452.000
33.53000 527.000
33.54500 571.000
33.56000 496.000
33.57500 404.000
33.59000 292.000
33.60500 272.000
33.62000 254.000
33.63500 260.000
33.65000 270.000
33.66500 279.000
33.68000 290.000
33.69500 297.000
33.71000 308.000
33.72500 272.000
33.74000 263.000
33.75500 241.000
33.77000 244.000
33.78500 250.000
33.80000 238.000
33.81500 213.000
33.83000 207.000
33.84500 222.000
33.86000 224.000
33.87500 198.000
33.89000 211.000
33.90500 208.000
33.92000 194.000
33.93500 183.000
33.95000 182.000
33.96500 189.000
33.98000 201.000
33.99500 212.000
34.01000 187.000
34.02500 176.000
34.04000 200.000
34.05500 208.000
34.07000 194.000
34.08500 193.000
34.10000 187.000
34.11500 187.000
34.13000 182.000
34.14500 179.000
34.16000 181.000
34.17500 186.000
34.19000 186.000
34.20500 190.000
34.22000 173.000
34.23500 198.000
34.25000 189.000
34.26500 185.000
34.28000 186.000
34.29500 183.000
34.31000 170.000
34.32500 172.000
34.34000 188.000
34.35500 202.000
34.37000 185.000
34.38500 169.000
34.40000 189.000
34.41500 172.000
34.43000 161.000
34.44500 172.000
34.46000 201.000
34.47500 188.000
34.49000 181.000
34.50500 178.000
34.52000 181.000
34.53500 171.000
34.55000 198.000
34.56500 193.000
34.58000 184.000
34.59500 175.000
34.61000 181.000
34.62500 175.000
34.64000 173.000
34.65500 161.000
34.67000 170.000
34.68500 199.000
34.70000 195.000
34.71500 170.000
34.73000 192.000
34.74500 187.000
34.76000 193.000
34.77500 176.000
34.79000 161.000
34.80500 173.000
34.82000 192.000
34.83500 162.000
34.85000 207.000
34.86500 204.000
34.88000 201.000
34.89500 181.000
34.91000 206.000
34.92500 220.000
34.94000 233.000
34.95500 210.000
34.97000 234.000
34.98500 269.000
35.00000 274.000
35.01500 332.000
35.03000 333.000
35.04500 373.000
35.06000 437.000
35.07500 514.000
35.09000 569.000
35.10500 493.000
35.12000 454.000
35.13500 378.000
35.15000 344.000
35.16500 287.000
35.18000 285.000
35.19500 265.000
35.21000 261.000
35.22500 240.000
35.24000 269.000
35.25500 245.000
35.27000 234.000
35.28500 232.000
35.30000 265.000
35.31500 258.000
35.33000 257.000
35.34500 271.000
35.36000 288.000
35.37500 342.000
35.39000 332.000
35.40500 384.000
35.42000 386.000
35.43500 412.000
35.45000 455.000
35.46500 580.000
35.48000 664.000
35.49500 819.000
35.51000 1000.000
35.52500 1175.000
35.54000 1238.000
35.55500 1264.000
35.57000 1126.000
35.58500 876.000
35.60000 702.000
35.61500 541.000
35.63000 438.000
35.64500 404.000
35.66000 379.000
35.67500 331.000
35.69000 316.000
35.70500 270.000
35.72000 256.000
35.73500 257.000
35.75000 261.000
35.76500 239.000
35.78000 243.000
35.79500 229.000
35.81000 225.000
35.82500 235.000
35.84000 223.000
35.85500 225.000
35.87000 222.000
35.88500 237.000
35.90000 239.000
35.91500 233.000
35.93000 254.000
35.94500 240.000
35.96000 243.000
35.97500 249.000
35.99000 235.000
36.00500 265.000
36.02000 231.000
36.03500 262.000
36.05000 268.000
36.06500 292.000
36.08000 267.000
36.09500 353.000
36.11000 420.000
36.12500 481.000
36.14000 563.000
36.15500 649.000
36.17000 791.000
36.18500 855.000
36.20000 893.000
36.21500 878.000
36.23000 836.000
36.24500 844.000
36.26000 840.000
36.27500 887.000
36.29000 961.000
36.30500 984.000
36.32000 882.000
36.33500 765.000
36.35000 589.000
36.36500 516.000
36.38000 450.000
36.39500 390.000
36.41000 339.000
36.42500 276.000
36.44000 278.000
36.45500 254.000
36.47000 251.000
36.48500 245.000
36.50000 258.000
36.51500 262.000
36.53000 256.000
36.54500 252.000
36.56000 253.000
36.57500 256.000
36.59000 257.000
36.60500 290.000
36.62000 299.000
36.63500 321.000
36.65000 344.000
36.66500 329.000
36.68000 298.000
36.69500 300.000
36.71000 269.000
36.72500 284.000
36.74000 267.000
36.75500 274.000
36.77000 276.000
36.78500 299.000
36.80000 302.000
36.81500 287.000
36.83000 293.000
36.84500 342.000
36.86000 295.000
36.87500 276.000
36.89000 272.000
36.90500 260.000
36.92000 254.000
36.93500 223.000
36.95000 217.000
36.96500 205.000
36.98000 216.000
36.99500 236.000
37.01000 253.000
37.02500 215.000
37.04000 211.000
37.05500 203.000
37.07000 199.000
37.08500 223.000
37.10000 213.000
37.11500 204.000
37.13000 220.000
37.14500 223.000
37.16000 234.000
37.17500 189.000
37.19000 203.000
37.20500 238.000
37.22000 275.000
37.23500 281.000
37.25000 291.000
37.26500 272.000
37.28000 282.000
37.29500 271.000
37.31000 288.000
37.32500 322.000
37.34000 361.000
37.35500 400.000
37.37000 425.000
37.38500 482.000
37.40000 587.000
37.41500 693.000
37.43000 866.000
37.44500 995.000
37.46000 1066.000
37.47500 1093.000
37.49000 1046.000
37.50500 920.000
37.52000 768.000
37.53500 656.000
37.55000 544.000
37.56500 502.000
37.58000 448.000
37.59500 420.000
37.61000 395.000
37.62500 401.000
37.64000 412.000
37.65500 421.000
37.67000 432.000
37.68500 468.000
37.70000 518.000
37.71500 546.000
37.73000 553.000
37.74500 573.000
37.76000 542.000
37.77500 466.000
37.79000 390.000
37.80500 346.000
37.82000 320.000
37.83500 299.000
37.85000 273.000
37.86500 265.000
37.88000 240.000
37.89500 223.000
37.91000 221.000
37.92500 206.000
37.94000 196.000
37.95500 190.000
37.97000 186.000
37.98500 193.000
38.00000 190.000
38.01500 191.000
38.03000 199.000
38.04500 205.000
38.06000 173.000
38.07500 169.000
38.09000 180.000
38.10500 177.000
38.12000 175.000
38.13500 196.000
38.15000 176.000
38.16500 174.000
38.18000 191.000
38.19500 210.000
38.21000 216.000
38.22500 247.000
38.24000 260.000
38.25500 279.000
38.27000 249.000
38.28500 256.000
38.30000 255.000
38.31500 230.000
38.33000 204.000
38.34500 212.000
38.36000 202.000
38.37500 186.000
38.39000 211.000
38.40500 242.000
38.42000 240.000
38.43500 229.000
38.45000 231.000
38.46500 254.000
38.48000 279.000
38.49500 289.000
38.51000 267.000
38.52500 275.000
38.54000 250.000
38.55500 249.000
38.57000 251.000
38.58500 223.000
38.60000 200.000
38.61500 202.000
38.63000 181.000
38.64500 184.000
38.66000 175.000
38.67500 172.000
38.69000 167.000
38.70500 162.000
38.72000 167.000
38.73500 162.000
38.75000 161.000
38.76500 173.000
38.78000 161.000
38.79500 174.000
38.81000 157.000
38.82500 165.000
38.84000 156.000
38.85500 159.000
38.87000 170.000
38.88500 164.000
38.90000 156.000
38.91500 138.000
38.93000 154.000
38.94500 165.000
38.96000 149.000
38.97500 174.000
38.99000 166.000
39.00500 157.000
39.02000 156.000
39.03500 157.000
39.05000 145.000
39.06500 151.000
39.08000 135.000
39.09500 141.000
39.11000 171.000
39.12500 188.000
39.14000 172.000
39.15500 178.000
39.17000 168.000
39.18500 172.000
39.20000 162.000
39.21500 162.000
39.23000 182.000
39.24500 189.000
39.26000 195.000
39.27500 188.000
39.29000 181.000
39.30500 183.000
39.32000 188.000
39.33500 191.000
39.35000 185.000
39.36500 199.000
39.38000 208.000
39.39500 221.000
39.41000 235.000
39.42500 240.000
39.44000 233.000
39.45500 230.000
39.47000 208.000
39.48500 181.000
39.50000 175.000
39.51500 187.000
39.53000 175.000
39.54500 175.000
39.56000 189.000
39.57500 207.000
39.59000 183.000
39.60500 198.000
39.62000 204.000
39.63500 202.000
39.65000 207.000
39.66500 206.000
39.68000 204.000
39.69500 246.000
39.71000 259.000
39.72500 260.000
39.74000 278.000
39.75500 308.000
39.77000 330.000
39.78500 365.000
39.80000 403.000
39.81500 429.000
39.83000 478.000
39.84500 470.000
39.86000 431.000
39.87500 376.000
39.89000 358.000
39.90500 338.000
39.92000 372.000
39.93500 395.000
39.95000 402.000
39.96500 381.000
39.98000 319.000
39.99500 296.000
40.01000 278.000
40.02500 235.000
40.04000 212.000
40.05500 187.000
40.07000 185.000
40.08500 181.000
40.10000 162.000
40.11500 159.000
40.13000 154.000
40.14500 180.000
40.16000 171.000
40.17500 185.000
40.19000 166.000
40.20500 170.000
40.22000 169.000
40.23500 179.000
40.25000 170.000
40.26500 175.000
40.28000 171.000
40.29500 169.000
40.31000 194.000
40.32500 175.000
40.34000 181.000
40.35500 198.000
40.37000 195.000
40.38500 208.000
40.40000 214.000
40.41500 227.000
40.43000 227.000
40.44500 221.000
40.46000 231.000
40.47500 262.000
40.49000 264.000
40.50500 251.000
40.52000 214.000
40.53500 243.000
40.55000 227.000
40.56500 203.000
40.58000 207.000
40.59500 221.000
40.61000 200.000
40.62500 175.000
40.64000 180.000
40.65500 195.000
40.67000 221.000
40.68500 230.000
40.70000 240.000
40.71500 237.000
40.73000 245.000
40.74500 236.000
40.76000 294.000
40.77500 325.000
40.79000 364.000
40.80500 408.000
40.82000 470.000
40.83500 513.000
40.85000 521.000
40.86500 562.000
40.88000 566.000
40.89500 591.000
40.91000 608.000
40.92500 598.000
40.94000 661.000
40.95500 649.000
40.97000 636.000
40.98500 609.000
41.00000 483.000
41.01500 430.000
41.03000 334.000
41.04500 300.000
41.06000 264.000
41.07500 236.000
41.09000 225.000
41.10500 229.000
41.12000 224.000
41.13500 221.000
41.15000 203.000
41.16500 214.000
41.18000 216.000
41.19500 215.000
41.21000 248.000
41.22500 247.000
41.24000 280.000
41.25500 280.000
41.27000 324.000
41.28500 314.000
41.30000 334.000
41.31500 306.000
41.33000 290.000
41.34500 242.000
41.36000 224.000
41.37500 234.000
41.39000 228.000
41.40500 188.000
41.42000 198.000
41.43500 201.000
41.45000 182.000
41.46500 203.000
41.48000 205.000
41.49500 210.000
41.51000 226.000
41.52500 235.000
41.54000 213.000
41.55500 222.000
41.57000 242.000
41.58500 227.000
41.60000 204.000
41.61500 215.000
41.63000 208.000
41.64500 214.000
41.66000 251.000
41.67500 281.000
41.69000 258.000
41.70500 277.000
41.72000 289.000
41.73500 321.000
41.75000 347.000
41.76500 339.000
41.78000 367.000
41.79500 409.000
41.81000 395.000
41.82500 422.000
41.84000 450.000
41.85500 467.000
41.87000 506.000
41.88500 531.000
41.90000 509.000
41.91500 485.000
41.93000 489.000
41.94500 496.000
41.96000 450.000
41.97500 449.000
41.99000 474.000
42.00500 472.000
42.02000 465.000
42.03500 465.000
42.05000 434.000
42.06500 382.000
42.08000 341.000
42.09500 313.000
42.11000 316.000
42.12500 283.000
42.14000 257.000
42.15500 250.000
42.17000 265.000
42.18500 254.000
42.20000 243.000
42.21500 266.000
42.23000 292.000
42.24500 263.000
42.26000 278.000
42.27500 275.000
42.29000 265.000
42.30500 278.000
42.32000 275.000
42.33500 305.000
42.35000 294.000
42.36500 287.000
42.38000 285.000
42.39500 246.000
42.41000 263.000
42.42500 248.000
42.44000 237.000
42.45500 236.000
42.47000 234.000
42.48500 221.000
42.50000 230.000
42.51500 232.000
42.53000 255.000
42.54500 270.000
42.56000 319.000
42.57500 308.000
42.59000 361.000
42.60500 407.000
42.62000 539.000
42.63500 581.000
42.65000 692.000
42.66500 771.000
42.68000 735.000
42.69500 676.000
42.71000 690.000
42.72500 652.000
42.74000 648.000
42.75500 701.000
42.77000 698.000
42.78500 774.000
42.80000 917.000
42.81500 998.000
42.83000 996.000
42.84500 961.000
42.86000 835.000
42.87500 748.000
42.89000 636.000
42.90500 527.000
42.92000 449.000
42.93500 447.000
42.95000 390.000
42.96500 347.000
42.98000 331.000
42.99500 321.000
43.01000 320.000
43.02500 338.000
43.04000 293.000
43.05500 308.000
43.07000 324.000
43.08500 324.000
43.10000 307.000
43.11500 289.000
43.13000 316.000
43.14500 329.000
43.16000 316.000
43.17500 308.000
43.19000 320.000
43.20500 269.000
43.22000 309.000
43.23500 301.000
43.25000 290.000
43.26500 260.000
43.28000 274.000
43.29500 314.000
43.31000 326.000
43.32500 370.000
43.34000 394.000
43.35500 440.000
43.37000 513.000
43.38500 697.000
43.40000 820.000
43.41500 951.000
43.43000 1283.000
43.44500 1555.000
43.46000 1759.000
43.47500 1763.000
43.49000 1582.000
43.50500 1225.000
43.52000 953.000
43.53500 710.000
43.55000 535.000
43.56500 454.000
43.58000 378.000
43.59500 326.000
43.61000 309.000
43.62500 278.000
43.64000 266.000
43.65500 272.000
43.67000 234.000
43.68500 235.000
43.70000 238.000
43.71500 220.000
43.73000 235.000
43.74500 229.000
43.76000 217.000
43.77500 238.000
43.79000 245.000
43.80500 273.000
43.82000 256.000
43.83500 284.000
43.85000 277.000
43.86500 261.000
43.88000 286.000
43.89500 285.000
43.91000 302.000
43.92500 345.000
43.94000 322.000
43.95500 320.000
43.97000 368.000
43.98500 393.000
44.00000 382.000
44.01500 388.000
44.03000 400.000
44.04500 421.000
44.06000 407.000
44.07500 394.000
44.09000 378.000
44.10500 359.000
44.12000 339.000
44.13500 333.000
44.15000 340.000
44.16500 347.000
44.18000 323.000
44.19500 312.000
44.21000 271.000
44.22500 270.000
44.24000 243.000
44.25500 230.000
44.27000 229.000
44.28500 220.000
44.30000 215.000
44.31500 229.000
44.33000 210.000
44.34500 160.000
44.36000 204.000
44.37500 212.000
44.39000 203.000
44.40500 198.000
44.42000 182.000
44.43500 180.000
44.45000 189.000
44.46500 219.000
44.48000 216.000
44.49500 210.000
44.51000 206.000
44.52500 225.000
44.54000 260.000
44.55500 252.000
44.57000 272.000
44.58500 289.000
44.60000 321.000
44.61500 396.000
44.63000 434.000
44.64500 493.000
44.66000 517.000
44.67500 525.000
44.69000 475.000
44.70500 396.000
44.72000 389.000
44.73500 370.000
44.75000 324.000
44.76500 305.000
44.78000 284.000
44.79500 299.000
44.81000 295.000
44.82500 320.000
44.84000 335.000
44.85500 338.000
44.87000 312.000
44.88500 314.000
44.90000 296.000
44.91500 285.000
44.93000 265.000
44.94500 253.000
44.96000 229.000
44.97500 223.000
44.99000 232.000
45.00500 235.000
45.02000 183.000
45.03500 197.000
45.05000 205.000
45.06500 190.000
45.08000 187.000
45.09500 184.000
45.11000 200.000
45.12500 196.000
45.14000 200.000
45.15500 184.000
45.17000 216.000
45.18500 208.000
45.20000 204.000
45.21500 234.000
45.23000 234.000
45.24500 244.000
45.26000 269.000
45.27500 273.000
45.29000 284.000
45.30500 267.000
45.32000 280.000
45.33500 297.000
45.35000 304.000
45.36500 359.000
45.38000 375.000
45.39500 413.000
45.41000 458.000
45.42500 569.000
45.44000 624.000
45.45500 724.000
45.47000 843.000
45.48500 1013.000
45.50000 1077.000
45.51500 1085.000
45.53000 1072.000
45.54500 1050.000
45.56000 876.000
45.57500 776.000
45.59000 672.000
45.60500 548.000
45.62000 485.000
45.63500 470.000
45.65000 461.000
45.66500 415.000
45.68000 375.000
45.69500 351.000
45.71000 326.000
45.72500 290.000
45.74000 279.000
45.75500 242.000
45.77000 254.000
45.78500 272.000
45.80000 278.000
45.81500 274.000
45.83000 268.000
45.84500 252.000
45.86000 267.000
45.87500 286.000
45.89000 286.000
45.90500 299.000
45.92000 290.000
45.93500 301.000
45.95000 320.000
45.96500 301.000
45.98000 291.000
45.99500 288.000
46.01000 254.000
46.02500 244.000
46.04000 221.000
46.05500 248.000
46.07000 236.000
46.08500 249.000
46.10000 251.000
46.11500 253.000
46.13000 253.000
46.14500 275.000
46.16000 263.000
46.17500 254.000
46.19000 259.000
46.20500 264.000
46.22000 264.000
46.23500 256.000
46.25000 228.000
46.26500 243.000
46.28000 235.000
46.29500 227.000
46.31000 223.000
46.32500 224.000
46.34000 213.000
46.35500 239.000
46.37000 222.000
46.38500 225.000
46.40000 245.000
46.41500 219.000
46.43000 251.000
46.44500 264.000
46.46000 279.000
46.47500 311.000
46.49000 294.000
46.50500 290.000
46.52000 271.000
46.53500 260.000
46.55000 252.000
46.56500 242.000
46.58000 250.000
46.59500 269.000
46.61000 310.000
46.62500 321.000
46.64000 369.000
46.65500 433.000
46.67000 475.000
46.68500 477.000
46.70000 517.000
46.71500 516.000
46.73000 535.000
46.74500 559.000
46.76000 554.000
46.77500 599.000
46.79000 592.000
46.80500 581.000
46.82000 619.000
46.83500 653.000
46.85000 652.000
46.86500 690.000
46.88000 659.000
46.89500 609.000
46.91000 551.000
46.92500 498.000
46.94000 469.000
46.95500 437.000
46.97000 456.000
46.98500 393.000
47.00000 394.000
47.01500 372.000
47.03000 311.000
47.04500 271.000
47.06000 258.000
47.07500 252.000
47.09000 270.000
47.10500 224.000
47.12000 216.000
47.13500 250.000
47.15000 244.000
47.16500 247.000
47.18000 240.000
47.19500 212.000
47.21000 227.000
47.22500 212.000
47.24000 222.000
47.25500 211.000
47.27000 193.000
47.28500 189.000
47.30000 174.000
47.31500 170.000
47.33000 202.000
47.34500 204.000
47.36000 220.000
47.37500 222.000
47.39000 218.000
47.40500 230.000
47.42000 251.000
47.43500 297.000
47.45000 340.000
47.46500 353.000
47.48000 405.000
47.49500 457.000
47.51000 526.000
47.52500 591.000
47.54000 637.000
47.55500 682.000
47.57000 667.000
47.58500 578.000
47.60000 509.000
47.61500 405.000
47.63000 342.000
47.64500 314.000
47.66000 285.000
47.67500 258.000
47.69000 266.000
47.70500 242.000
47.72000 233.000
47.73500 247.000
47.75000 245.000
47.76500 216.000
47.78000 228.000
47.79500 250.000
47.81000 238.000
47.82500 233.000
47.84000 238.000
47.85500 257.000
47.87000 273.000
47.88500 272.000
47.90000 297.000
47.91500 320.000
47.93000 344.000
47.94500 373.000
47.96000 396.000
47.97500 463.000
47.99000 536.000
48.00500 557.000
48.02000 576.000
48.03500 555.000
48.05000 498.000
48.06500 472.000
48.08000 427.000
48.09500 425.000
48.11000 418.000
48.12500 384.000
48.14000 424.000
48.15500 432.000
48.17000 413.000
48.18500 415.000
48.20000 382.000
48.21500 372.000
48.23000 409.000
48.24500 380.000
48.26000 389.000
48.27500 397.000
48.29000 429.000
48.30500 422.000
48.32000 430.000
48.33500 414.000
48.35000 381.000
48.36500 389.000
48.38000 365.000
48.39500 370.000
48.41000 376.000
48.42500 345.000
48.44000 344.000
48.45500 362.000
48.47000 403.000
48.48500 378.000
48.50000 342.000
48.51500 408.000
48.53000 410.000
48.54500 387.000
48.56000 347.000
48.57500 374.000
48.59000 361.000
48.60500 345.000
48.62000 353.000
48.63500 378.000
48.65000 400.000
48.66500 430.000
48.68000 442.000
48.69500 471.000
48.71000 493.000
48.72500 580.000
48.74000 550.000
48.75500 526.000
48.77000 477.000
48.78500 450.000
48.80000 412.000
48.81500 353.000
48.83000 329.000
48.84500 289.000
48.86000 275.000
48.87500 264.000
48.89000 264.000
48.90500 262.000
48.92000 268.000
48.93500 275.000
48.95000 279.000
48.96500 259.000
48.98000 258.000
48.99500 263.000
49.01000 221.000
49.02500 229.000
49.04000 242.000
49.05500 224.000
49.07000 204.000
49.08500 194.000
49.10000 192.000
49.11500 175.000
49.13000 178.000
49.14500 190.000
49.16000 196.000
49.17500 197.000
49.19000 188.000
49.20500 178.000
49.22000 204.000
49.23500 220.000
49.25000 244.000
49.26500 283.000
49.28000 335.000
49.29500 424.000
49.31000 504.000
49.32500 533.000
49.34000 473.000
49.35500 428.000
49.37000 335.000
49.38500 289.000
49.40000 241.000
49.41500 219.000
49.43000 197.000
49.44500 187.000
49.46000 166.000
49.47500 150.000
49.49000 152.000
49.50500 159.000
49.52000 150.000
49.53500 185.000
49.55000 178.000
49.56500 165.000
49.58000 179.000
49.59500 170.000
49.61000 153.000
49.62500 180.000
49.64000 180.000
49.65500 178.000
49.67000 171.000
49.68500 178.000
49.70000 192.000
49.71500 214.000
49.73000 186.000
49.74500 197.000
49.76000 222.000
49.77500 229.000
49.79000 209.000
49.80500 231.000
49.82000 267.000
49.83500 299.000
49.85000 315.000
49.86500 355.000
49.88000 425.000
49.89500 441.000
49.91000 492.000
49.92500 460.000
49.94000 432.000
49.95500 453.000
49.97000 420.000
49.98500 435.000
50.00000 411.000
50.01500 368.000
50.03000 353.000
50.04500 335.000
50.06000 331.000
50.07500 296.000
50.09000 289.000
50.10500 267.000
50.12000 267.000
50.13500 241.000
50.15000 240.000
50.16500 208.000
50.18000 203.000
50.19500 204.000
50.21000 215.000
50.22500 241.000
50.24000 224.000
50.25500 242.000
50.27000 224.000
50.28500 212.000
50.30000 205.000
50.31500 187.000
50.33000 206.000
50.34500 222.000
50.36000 206.000
50.37500 231.000
50.39000 224.000
50.40500 215.000
50.42000 219.000
50.43500 240.000
50.45000 236.000
50.46500 222.000
50.48000 214.000
50.49500 229.000
50.51000 222.000
50.52500 194.000
50.54000 205.000
50.55500 242.000
50.57000 233.000
50.58500 255.000
50.60000 270.000
50.61500 250.000
50.63000 262.000
50.64500 295.000
50.66000 291.000
50.67500 306.000
50.69000 334.000
50.70500 318.000
50.72000 322.000
50.73500 316.000
50.75000 311.000
50.76500 294.000
50.78000 276.000
50.79500 250.000
50.81000 250.000
50.82500 286.000
50.84000 268.000
50.85500 271.000
50.87000 287.000
50.88500 314.000
50.90000 377.000
50.91500 409.000
50.93000 499.000
50.94500 575.000
50.96000 611.000
50.97500 618.000
50.99000 576.000
51.00500 489.000
51.02000 394.000
51.03500 358.000
51.05000 302.000
51.06500 274.000
51.08000 241.000
51.09500 233.000
51.11000 215.000
51.12500 214.000
51.14000 192.000
51.15500 187.000
51.17000 204.000
51.18500 176.000
51.20000 171.000
51.21500 190.000
51.23000 173.000
51.24500 156.000
51.26000 173.000
51.27500 174.000
51.29000 189.000
51.30500 174.000
51.32000 195.000
51.33500 195.000
51.35000 167.000
51.36500 179.000
51.38000 188.000
51.39500 170.000
51.41000 178.000
51.42500 165.000
51.44000 182.000
51.45500 167.000
51.47000 169.000
51.48500 161.000
51.50000 175.000
51.51500 189.000
51.53000 179.000
51.54500 176.000
51.56000 197.000
51.57500 184.000
51.59000 178.000
51.60500 192.000
51.62000 180.000
51.63500 169.000
51.65000 178.000
51.66500 191.000
51.68000 192.000
51.69500 209.000
51.71000 205.000
51.72500 215.000
51.74000 223.000
51.75500 227.000
51.77000 237.000
51.78500 226.000
51.80000 215.000
51.81500 236.000
51.83000 215.000
51.84500 246.000
51.86000 226.000
51.87500 223.000
51.89000 236.000
51.90500 233.000
51.92000 223.000
51.93500 231.000
51.95000 234.000
51.96500 233.000
51.98000 232.000
51.99500 238.000
52.01000 231.000
52.02500 215.000
52.04000 212.000
52.05500 189.000
52.07000 179.000
52.08500 171.000
52.10000 162.000
52.11500 148.000
52.13000 147.000
52.14500 174.000
52.16000 186.000
52.17500 187.000
52.19000 160.000
52.20500 161.000
52.22000 148.000
52.23500 172.000
52.25000 170.000
52.26500 176.000
52.28000 159.000
52.29500 144.000
52.31000 151.000
52.32500 160.000
52.34000 137.000
52.35500 151.000
52.37000 161.000
52.38500 165.000
52.40000 151.000
52.41500 153.000
52.43000 144.000
52.44500 150.000
52.46000 148.000
52.47500 148.000
52.49000 157.000
52.50500 163.000
52.52000 172.000
52.53500 182.000
52.55000 167.000
52.56500 190.000
52.58000 208.000
52.59500 213.000
52.61000 201.000
52.62500 225.000
52.64000 228.000
52.65500 240.000
52.67000 249.000
52.68500 254.000
52.70000 267.000
52.71500 312.000
52.73000 325.000
52.74500 348.000
52.76000 354.000
52.77500 395.000
52.79000 424.000
52.80500 456.000
52.82000 434.000
52.83500 412.000
52.85000 388.000
52.86500 369.000
52.88000 310.000
52.89500 309.000
52.91000 304.000
52.92500 278.000
52.94000 258.000
52.95500 267.000
52.97000 262.000
52.98500 263.000
53.00000 266.000
53.01500 254.000
53.03000 229.000
53.04500 235.000
53.06000 211.000
53.07500 261.000
53.09000 277.000
53.10500 220.000
53.12000 235.000
53.13500 268.000
53.15000 265.000
53.16500 255.000
53.18000 248.000
53.19500 240.000
53.21000 219.000
53.22500 212.000
53.24000 210.000
53.25500 218.000
53.27000 212.000
53.28500 204.000
53.30000 195.000
53.31500 189.000
53.33000 160.000
53.34500 201.000
53.36000 164.000
53.37500 155.000
53.39000 178.000
53.40500 181.000
53.42000 180.000
53.43500 199.000
53.45000 185.000
53.46500 191.000
53.48000 185.000
53.49500 186.000
53.51000 188.000
53.52500 171.000
53.54000 167.000
53.55500 156.000
53.57000 159.000
53.58500 146.000
53.60000 167.000
53.61500 135.000
53.63000 148.000
53.64500 149.000
53.66000 164.000
53.67500 171.000
53.69000 185.000
53.70500 160.000
53.72000 141.000
53.73500 164.000
53.75000 163.000
53.76500 158.000
53.78000 167.000
53.79500 178.000
53.81000 146.000
53.82500 161.000
53.84000 152.000
53.85500 150.000
53.87000 150.000
53.88500 176.000
53.90000 170.000
53.91500 156.000
53.93000 187.000
53.94500 174.000
53.96000 154.000
53.97500 164.000
53.99000 170.000
54.00500 149.000
54.02000 156.000
54.03500 149.000
54.05000 161.000
54.06500 154.000
54.08000 164.000
54.09500 163.000
54.11000 152.000
54.12500 165.000
54.14000 148.000
54.15500 157.000
54.17000 151.000
54.18500 164.000
54.20000 163.000
54.21500 155.000
54.23000 167.000
54.24500 163.000
54.26000 171.000
54.27500 182.000
54.29000 169.000
54.30500 149.000
54.32000 154.000
54.33500 201.000
54.35000 201.000
54.36500 197.000
54.38000 204.000
54.39500 218.000
54.41000 210.000
54.42500 230.000
54.44000 216.000
54.45500 229.000
54.47000 265.000
54.48500 258.000
54.50000 245.000
54.51500 310.000
54.53000 290.000
54.54500 307.000
54.56000 344.000
54.57500 396.000
54.59000 464.000
54.60500 507.000
54.62000 485.000
54.63500 506.000
54.65000 454.000
54.66500 488.000
54.68000 420.000
54.69500 362.000
54.71000 346.000
54.72500 324.000
54.74000 344.000
54.75500 348.000
54.77000 362.000
54.78500 361.000
54.80000 357.000
54.81500 347.000
54.83000 338.000
54.84500 321.000
54.86000 324.000
54.87500 354.000
54.89000 373.000
54.90500 374.000
54.92000 359.000
54.93500 412.000
54.95000 381.000
54.96500 360.000
54.98000 379.000
54.99500 371.000
55.01000 371.000
55.02500 354.000
55.04000 359.000
55.05500 320.000
55.07000 302.000
55.08500 298.000
55.10000 309.000
55.11500 297.000
55.13000 324.000
55.14500 339.000
55.16000 352.000
55.17500 389.000
55.19000 461.000
55.20500 518.000
55.22000 607.000
55.23500 654.000
55.25000 780.000
55.26500 831.000
55.28000 743.000
55.29500 663.000
55.31000 573.000
55.32500 533.000
55.34000 501.000
55.35500 541.000
55.37000 589.000
55.38500 741.000
55.40000 872.000
55.41500 893.000
55.43000 914.000
55.44500 840.000
55.46000 706.000
55.47500 605.000
55.49000 479.000
55.50500 373.000
55.52000 372.000
55.53500 335.000
55.55000 326.000
55.56500 324.000
55.58000 335.000
55.59500 327.000
55.61000 307.000
55.62500 293.000
55.64000 275.000
55.65500 249.000
55.67000 244.000
55.68500 219.000
55.70000 216.000
55.71500 192.000
55.73000 202.000
55.74500 198.000
55.76000 184.000
55.77500 187.000
55.79000 200.000
55.80500 201.000
55.82000 199.000
55.83500 202.000
55.85000 187.000
55.86500 208.000
55.88000 197.000
55.89500 191.000
55.91000 207.000
55.92500 204.000
55.94000 195.000
55.95500 224.000
55.97000 216.000
55.98500 211.000
56.00000 216.000
56.01500 233.000
56.03000 239.000
56.04500 271.000
56.06000 287.000
56.07500 276.000
56.09000 285.000
56.10500 288.000
56.12000 297.000
56.13500 295.000
56.15000 288.000
56.16500 286.000
56.18000 298.000
56.19500 279.000
56.21000 273.000
56.22500 252.000
56.24000 244.000
56.25500 258.000
56.27000 269.000
56.28500 258.000
56.30000 255.000
56.31500 257.000
56.33000 266.000
56.34500 233.000
56.36000 229.000
56.37500 258.000
56.39000 252.000
56.40500 250.000
56.42000 248.000
56.43500 260.000
56.45000 262.000
56.46500 279.000
56.48000 278.000
56.49500 272.000
56.51000 274.000
56.52500 287.000
56.54000 288.000
56.55500 273.000
56.57000 287.000
56.58500 314.000
56.60000 318.000
56.61500 315.000
56.63000 295.000
56.64500 319.000
56.66000 322.000
56.67500 342.000
56.69000 351.000
56.70500 309.000
56.72000 309.000
56.73500 289.000
56.75000 286.000
56.76500 297.000
56.78000 300.000
56.79500 302.000
56.81000 309.000
56.82500 293.000
56.84000 307.000
56.85500 296.000
56.87000 286.000
56.88500 256.000
56.90000 274.000
56.91500 255.000
56.93000 266.000
56.94500 261.000
56.96000 289.000
56.97500 283.000
56.99000 270.000
57.00500 246.000
57.02000 253.000
57.03500 241.000
57.05000 216.000
57.06500 206.000
57.08000 201.000
57.09500 214.000
57.11000 232.000
57.12500 237.000
57.14000 237.000
57.15500 230.000
57.17000 235.000
57.18500 225.000
57.20000 240.000
57.21500 233.000
57.23000 241.000
57.24500 244.000
57.26000 240.000
57.27500 256.000
57.29000 269.000
57.30500 258.000
57.32000 231.000
57.33500 243.000
57.35000 248.000
57.36500 264.000
57.38000 263.000
57.39500 251.000
57.41000 235.000
57.42500 230.000
57.44000 210.000
57.45500 222.000
57.47000 212.000
57.48500 206.000
57.50000 190.000
57.51500 182.000
57.53000 197.000
57.54500 207.000
57.56000 221.000
57.57500 196.000
57.59000 208.000
57.60500 226.000
57.62000 238.000
57.63500 228.000
57.65000 216.000
57.66500 210.000
57.68000 205.000
57.69500 193.000
57.71000 197.000
57.72500 232.000
57.74000 212.000
57.75500 202.000
57.77000 176.000
57.78500 201.000
57.80000 198.000
57.81500 193.000
57.83000 178.000
57.84500 174.000
57.86000 173.000
57.87500 190.000
57.89000 187.000
57.90500 171.000
57.92000 182.000
57.93500 199.000
57.95000 187.000
57.96500 202.000
57.98000 211.000
57.99500 202.000
58.01000 232.000
58.02500 260.000
58.04000 269.000
58.05500 277.000
58.07000 305.000
58.08500 335.000
58.10000 331.000
58.11500 322.000
58.13000 333.000
58.14500 360.000
58.16000 330.000
58.17500 345.000
58.19000 324.000
58.20500 284.000
58.22000 284.000
58.23500 301.000
58.25000 280.000
58.26500 276.000
58.28000 273.000
58.29500 257.000
58.31000 220.000
58.32500 254.000
58.34000 251.000
58.35500 237.000
58.37000 239.000
58.38500 245.000
58.40000 268.000
58.41500 237.000
58.43000 266.000
58.44500 236.000
58.46000 234.000
58.47500 230.000
58.49000 238.000
58.50500 243.000
58.52000 214.000
58.53500 206.000
58.55000 205.000
58.56500 197.000
58.58000 183.000
58.59500 222.000
58.61000 210.000
58.62500 206.000
58.64000 209.000
58.65500 217.000
58.67000 189.000
58.68500 187.000
58.70000 197.000
58.71500 216.000
58.73000 190.000
58.74500 198.000
58.76000 179.000
58.77500 175.000
58.79000 191.000
58.80500 194.000
58.82000 194.000
58.83500 196.000
58.85000 194.000
58.86500 184.000
58.88000 203.000
58.89500 205.000
58.91000 221.000
58.92500 222.000
58.94000 218.000
58.95500 195.000
58.97000 202.000
58.98500 203.000
59.00000 183.000
59.01500 165.000
59.03000 173.000
59.04500 181.000
59.06000 156.000
59.07500 163.000
59.09000 152.000
59.10500 139.000
59.12000 160.000
59.13500 165.000
59.15000 146.000
59.16500 152.000
59.18000 161.000
59.19500 149.000
59.21000 161.000
59.22500 179.000
59.24000 156.000
59.25500 153.000
59.27000 191.000
59.28500 184.000
59.30000 185.000
59.31500 184.000
59.33000 164.000
59.34500 199.000
59.36000 209.000
59.37500 194.000
59.39000 204.000
59.40500 201.000
59.42000 241.000
59.43500 235.000
59.45000 236.000
59.46500 255.000
59.48000 266.000
59.49500 298.000
59.51000 285.000
59.52500 282.000
59.54000 278.000
59.55500 274.000
59.57000 266.000
59.58500 287.000
59.60000 256.000
59.61500 227.000
59.63000 258.000
59.64500 253.000
59.66000 254.000
59.67500 227.000
59.69000 220.000
59.70500 225.000
59.72000 218.000
59.73500 225.000
59.75000 219.000
59.76500 215.000
59.78000 192.000
59.79500 209.000
59.81000 200.000
59.82500 193.000
59.84000 192.000
59.85500 205.000
59.87000 214.000
59.88500 238.000
59.90000 241.000
59.91500 262.000
59.93000 256.000
59.94500 268.000
59.96000 265.000
59.97500 254.000
59.99000 289.000
60.00500 285.000
60.02000 280.000
60.03500 278.000
60.05000 264.000
60.06500 297.000
60.08000 293.000
60.09500 311.000
60.11000 372.000
60.12500 363.000
60.14000 390.000
60.15500 416.000
60.17000 423.000
60.18500 464.000
60.20000 440.000
60.21500 424.000
60.23000 375.000
60.24500 348.000
60.26000 313.000
60.27500 292.000
60.29000 267.000
60.30500 275.000
60.32000 262.000
60.33500 236.000
60.35000 236.000
60.36500 220.000
60.38000 230.000
60.39500 242.000
60.41000 205.000
60.42500 182.000
60.44000 199.000
60.45500 193.000
60.47000 200.000
60.48500 181.000
60.50000 190.000
60.51500 189.000
60.53000 186.000
60.54500 199.000
60.56000 172.000
60.57500 173.000
60.59000 177.000
60.60500 158.000
60.62000 165.000
60.63500 168.000
60.65000 157.000
60.66500 154.000
60.68000 162.000
60.69500 165.000
60.71000 160.000
60.72500 164.000
60.74000 156.000
60.75500 130.000
60.77000 145.000
60.78500 162.000
60.80000 160.000
60.81500 156.000
60.83000 148.000
60.84500 149.000
60.86000 165.000
60.87500 165.000
60.89000 152.000
60.90500 177.000
60.92000 192.000
60.93500 197.000
60.95000 209.000
60.96500 204.000
60.98000 227.000
60.99500 250.000
61.01000 250.000
61.02500 273.000
61.04000 286.000
61.05500 280.000
61.07000 261.000
61.08500 240.000
61.10000 227.000
61.11500 199.000
61.13000 211.000
61.14500 203.000
61.16000 178.000
61.17500 212.000
61.19000 215.000
61.20500 219.000
61.22000 238.000
61.23500 225.000
61.25000 249.000
61.26500 237.000
61.28000 276.000
61.29500 258.000
61.31000 264.000
61.32500 266.000
61.34000 259.000
61.35500 275.000
61.37000 293.000
61.38500 266.000
61.40000 268.000
61.41500 263.000
61.43000 301.000
61.44500 279.000
61.46000 283.000
61.47500 253.000
61.49000 262.000
61.50500 228.000
61.52000 203.000
61.53500 178.000
61.55000 206.000
61.56500 179.000
61.58000 177.000
61.59500 162.000
61.61000 159.000
61.62500 180.000
61.64000 171.000
61.65500 176.000
61.67000 157.000
61.68500 164.000
61.70000 160.000
61.71500 148.000
61.73000 156.000
61.74500 141.000
61.76000 165.000
61.77500 151.000
61.79000 147.000
61.80500 160.000
61.82000 175.000
61.83500 164.000
61.85000 159.000
61.86500 171.000
61.88000 184.000
61.89500 199.000
61.91000 197.000
61.92500 212.000
61.94000 215.000
61.95500 220.000
61.97000 234.000
61.98500 237.000
