2.00000 3.000
2.01500 5.000
2.03000 7.000
2.04500 5.000
2.06000 4.000
2.07500 1.000
2.09000 2.000
2.10500 2.000
2.12000 5.000
2.13500 3.000
2.15000 3.000
2.16500 3.000
2.18000 4.000
2.19500 4.000
2.21000 2.000
2.22500 8.000
2.24000 5.000
2.25500 4.000
2.27000 6.000
2.28500 5.000
2.30000 2.000
2.31500 3.000
2.33000 3.000
2.34500 5.000
2.36000 3.000
2.37500 1.000
2.39000 1.000
2.40500 3.000
2.42000 5.000
2.43500 3.000
2.45000 3.000
2.46500 4.000
2.48000 6.000
2.49500 3.000
2.51000 3.000
2.52500 4.000
2.54000 4.000
2.55500 4.000
2.57000 3.000
2.58500 2.000
2.60000 1.000
2.61500 0.000
2.63000 1.000
2.64500 2.000
2.66000 5.000
2.67500 1.000
2.69000 0.000
2.70500 2.000
2.72000 6.000
2.73500 4.000
2.75000 3.000
2.76500 2.000
2.78000 2.000
2.79500 1.000
2.81000 2.000
2.82500 1.000
2.84000 4.000
2.85500 1.000
2.87000 3.000
2.88500 5.000
2.90000 4.000
2.91500 6.000
2.93000 5.000
2.94500 4.000
2.96000 3.000
2.97500 5.000
2.99000 5.000
3.00500 4.000
3.02000 6.000
3.03500 6.000
3.05000 7.000
3.06500 5.000
3.08000 5.000
3.09500 2.000
3.11000 1.000
3.12500 3.000
3.14000 4.000
3.15500 14.000
3.17000 17.000
3.18500 18.000
3.20000 23.000
3.21500 28.000
3.23000 37.000
3.24500 55.000
3.26000 56.000
3.27500 84.000
3.29000 103.000
3.30500 124.000
3.32000 159.000
3.33500 178.000
3.35000 202.000
3.36500 215.000
3.38000 204.000
3.39500 200.000
3.41000 215.000
3.42500 206.000
3.44000 198.000
3.45500 209.000
3.47000 226.000
3.48500 211.000
3.50000 206.000
3.51500 230.000
3.53000 214.000
3.54500 224.000
3.56000 220.000
3.57500 228.000
3.59000 217.000
3.60500 217.000
3.62000 204.000
3.63500 220.000
3.65000 229.000
3.66500 243.000
3.68000 209.000
3.69500 210.000
3.71000 242.000
3.72500 213.000
3.74000 218.000
3.75500 224.000
3.77000 208.000
3.78500 215.000
3.80000 237.000
3.81500 240.000
3.83000 238.000
3.84500 242.000
3.86000 234.000
3.87500 249.000
3.89000 229.000
3.90500 243.000
3.92000 244.000
3.93500 232.000
3.95000 226.000
3.96500 256.000
3.98000 262.000
3.99500 250.000
4.01000 247.000
4.02500 252.000
4.04000 238.000
4.05500 245.000
4.07000 238.000
4.08500 245.000
4.10000 282.000
4.11500 269.000
4.13000 251.000
4.14500 257.000
4.16000 260.000
4.17500 279.000
4.19000 261.000
4.20500 243.000
4.22000 256.000
4.23500 273.000
4.25000 264.000
4.26500 280.000
4.28000 275.000
4.29500 253.000
4.31000 254.000
4.32500 245.000
4.34000 292.000
4.35500 282.000
4.37000 283.000
4.38500 271.000
4.40000 275.000
4.41500 295.000
4.43000 282.000
4.44500 271.000
4.46000 290.000
4.47500 279.000
4.49000 259.000
4.50500 252.000
4.52000 268.000
4.53500 259.000
4.55000 270.000
4.56500 278.000
4.58000 276.000
4.59500 270.000
4.61000 284.000
4.62500 300.000
4.64000 311.000
4.65500 300.000
4.67000 301.000
4.68500 300.000
4.70000 303.000
4.71500 303.000
4.73000 285.000
4.74500 291.000
4.76000 312.000
4.77500 277.000
4.79000 289.000
4.80500 298.000
4.82000 305.000
4.83500 298.000
4.85000 285.000
4.86500 312.000
4.88000 305.000
4.89500 315.000
4.91000 280.000
4.92500 293.000
4.94000 305.000
4.95500 318.000
4.97000 310.000
4.98500 297.000
5.00000 317.000
5.01500 325.000
5.03000 308.000
5.04500 317.000
5.06000 329.000
5.07500 281.000
5.09000 314.000
5.10500 327.000
5.12000 303.000
5.13500 313.000
5.15000 338.000
5.16500 332.000
5.18000 326.000
5.19500 297.000
5.21000 306.000
5.22500 310.000
5.24000 291.000
5.25500 319.000
5.27000 342.000
5.28500 328.000
5.30000 340.000
5.31500 322.000
5.33000 339.000
5.34500 326.000
5.36000 317.000
5.37500 327.000
5.39000 335.000
5.40500 324.000
5.42000 328.000
5.43500 331.000
5.45000 349.000
5.46500 340.000
5.48000 345.000
5.49500 341.000
5.51000 318.000
5.52500 308.000
5.54000 329.000
5.55500 308.000
5.57000 345.000
5.58500 358.000
5.60000 336.000
5.61500 363.000
5.63000 341.000
5.64500 303.000
5.66000 319.000
5.67500 347.000
5.69000 328.000
5.70500 325.000
5.72000 333.000
5.73500 365.000
5.75000 318.000
5.76500 331.000
5.78000 333.000
5.79500 333.000
5.81000 365.000
5.82500 366.000
5.84000 332.000
5.85500 336.000
5.87000 365.000
5.88500 348.000
5.90000 345.000
5.91500 346.000
5.93000 361.000
5.94500 366.000
5.96000 357.000
5.97500 346.000
5.99000 364.000
6.00500 344.000
6.02000 332.000
6.03500 347.000
6.05000 353.000
6.06500 357.000
6.08000 341.000
6.09500 374.000
6.11000 360.000
6.12500 354.000
6.14000 357.000
6.15500 343.000
6.17000 352.000
6.18500 364.000
6.20000 350.000
6.21500 365.000
6.23000 390.000
6.24500 349.000
6.26000 348.000
6.27500 371.000
6.29000 370.000
6.30500 376.000
6.32000 350.000
6.33500 360.000
6.35000 385.000
6.36500 385.000
6.38000 381.000
6.39500 370.000
6.41000 367.000
6.42500 370.000
6.44000 399.000
6.45500 375.000
6.47000 367.000
6.48500 375.000
6.50000 360.000
6.51500 414.000
6.53000 372.000
6.54500 374.000
6.56000 407.000
6.57500 379.000
6.59000 347.000
6.60500 376.000
6.62000 410.000
6.63500 389.000
6.65000 396.000
6.66500 397.000
6.68000 368.000
6.69500 363.000
6.71000 375.000
6.72500 352.000
6.74000 353.000
6.75500 356.000
6.77000 359.000
6.78500 379.000
6.80000 401.000
6.81500 392.000
6.83000 409.000
6.84500 391.000
6.86000 365.000
6.87500 388.000
6.89000 400.000
6.90500 398.000
6.92000 375.000
6.93500 386.000
6.95000 365.000
6.96500 387.000
6.98000 379.000
6.99500 366.000
7.01000 377.000
7.02500 405.000
7.04000 399.000
7.05500 393.000
7.07000 376.000
7.08500 354.000
7.10000 377.000
7.11500 395.000
7.13000 387.000
7.14500 382.000
7.16000 377.000
7.17500 394.000
7.19000 369.000
7.20500 376.000
7.22000 413.000
7.23500 382.000
7.25000 376.000
7.26500 386.000
7.28000 401.000
7.29500 403.000
7.31000 378.000
7.32500 403.000
7.34000 419.000
7.35500 391.000
7.37000 369.000
7.38500 415.000
7.40000 387.000
7.41500 392.000
7.43000 399.000
7.44500 396.000
7.46000 379.000
7.47500 411.000
7.49000 418.000
7.50500 416.000
7.52000 391.000
7.53500 379.000
7.55000 401.000
7.56500 406.000
7.58000 383.000
7.59500 353.000
7.61000 395.000
7.62500 398.000
7.64000 376.000
7.65500 367.000
7.67000 377.000
7.68500 388.000
7.70000 407.000
7.71500 403.000
7.73000 407.000
7.74500 401.000
7.76000 406.000
7.77500 402.000
7.79000 381.000
7.80500 362.000
7.82000 381.000
7.83500 397.000
7.85000 409.000
7.86500 427.000
7.88000 405.000
7.89500 414.000
7.91000 404.000
7.92500 401.000
7.94000 406.000
7.95500 422.000
7.97000 376.000
7.98500 373.000
8.00000 407.000
8.01500 426.000
8.03000 387.000
8.04500 390.000
8.06000 415.000
8.07500 437.000
8.09000 403.000
8.10500 381.000
8.12000 369.000
8.13500 398.000
8.15000 410.000
8.16500 400.000
8.18000 443.000
8.19500 409.000
8.21000 389.000
8.22500 401.000
8.24000 378.000
8.25500 412.000
8.27000 396.000
8.28500 388.000
8.30000 393.000
8.31500 395.000
8.33000 396.000
8.34500 407.000
8.36000 398.000
8.37500 376.000
8.39000 425.000
8.40500 444.000
8.42000 412.000
8.43500 413.000
8.45000 399.000
8.46500 429.000
8.48000 406.000
8.49500 405.000
8.51000 426.000
8.52500 420.000
8.54000 372.000
8.55500 409.000
8.57000 413.000
8.58500 450.000
8.60000 425.000
8.61500 418.000
8.63000 400.000
8.64500 413.000
8.66000 419.000
8.67500 406.000
8.69000 402.000
8.70500 408.000
8.72000 399.000
8.73500 403.000
8.75000 406.000
8.76500 401.000
8.78000 407.000
8.79500 401.000
8.81000 446.000
8.82500 413.000
8.84000 418.000
8.85500 437.000
8.87000 426.000
8.88500 392.000
8.90000 394.000
8.91500 430.000
8.93000 425.000
8.94500 414.000
8.96000 401.000
8.97500 412.000
8.99000 400.000
9.00500 389.000
9.02000 403.000
9.03500 415.000
9.05000 403.000
9.06500 404.000
9.08000 397.000
9.09500 386.000
9.11000 411.000
9.12500 427.000
9.14000 420.000
9.15500 423.000
9.17000 422.000
9.18500 423.000
9.20000 429.000
9.21500 411.000
9.23000 360.000
9.24500 382.000
9.26000 397.000
9.27500 395.000
9.29000 411.000
9.30500 440.000
9.32000 412.000
9.33500 422.000
9.35000 407.000
9.36500 394.000
9.38000 440.000
9.39500 413.000
9.41000 407.000
9.42500 388.000
9.44000 430.000
9.45500 390.000
9.47000 397.000
9.48500 390.000
9.50000 444.000
9.51500 427.000
9.53000 420.000
9.54500 409.000
9.56000 416.000
9.57500 398.000
9.59000 399.000
9.60500 393.000
9.62000 403.000
9.63500 445.000
9.65000 445.000
9.66500 426.000
9.68000 416.000
9.69500 422.000
9.71000 424.000
9.72500 436.000
9.74000 442.000
9.75500 444.000
9.77000 404.000
9.78500 405.000
9.80000 422.000
9.81500 399.000
9.83000 420.000
9.84500 418.000
9.86000 411.000
9.87500 401.000
9.89000 407.000
9.90500 424.000
9.92000 425.000
9.93500 405.000
9.95000 414.000
9.96500 400.000
9.98000 405.000
9.99500 432.000
10.01000 416.000
10.02500 412.000
10.04000 422.000
10.05500 409.000
10.07000 454.000
10.08500 462.000
10.10000 437.000
10.11500 423.000
10.13000 415.000
10.14500 418.000
10.16000 403.000
10.17500 419.000
10.19000 427.000
10.20500 424.000
10.22000 441.000
10.23500 441.000
10.25000 433.000
10.26500 388.000
10.28000 427.000
10.29500 419.000
10.31000 406.000
10.32500 399.000
10.34000 432.000
10.35500 471.000
10.37000 434.000
10.38500 421.000
10.40000 438.000
10.41500 441.000
10.43000 429.000
10.44500 437.000
10.46000 432.000
10.47500 433.000
10.49000 436.000
10.50500 439.000
10.52000 432.000
10.53500 438.000
10.55000 415.000
10.56500 422.000
10.58000 380.000
10.59500 419.000
10.61000 440.000
10.62500 450.000
10.64000 431.000
10.65500 439.000
10.67000 391.000
10.68500 403.000
10.70000 422.000
10.71500 423.000
10.73000 410.000
10.74500 443.000
10.76000 431.000
10.77500 435.000
10.79000 435.000
10.80500 437.000
10.82000 412.000
10.83500 454.000
10.85000 437.000
10.86500 421.000
10.88000 417.000
10.89500 417.000
10.91000 412.000
10.92500 440.000
10.94000 433.000
10.95500 436.000
10.97000 403.000
10.98500 430.000
11.00000 462.000
11.01500 438.000
11.03000 439.000
11.04500 416.000
11.06000 441.000
11.07500 439.000
11.09000 435.000
11.10500 430.000
11.12000 409.000
11.13500 443.000
11.15000 447.000
11.16500 466.000
11.18000 474.000
11.19500 418.000
11.21000 459.000
11.22500 457.000
11.24000 439.000
11.25500 439.000
11.27000 438.000
11.28500 428.000
11.30000 439.000
11.31500 441.000
11.33000 472.000
11.34500 453.000
11.36000 458.000
11.37500 415.000
11.39000 414.000
11.40500 449.000
11.42000 456.000
11.43500 431.000
11.45000 453.000
11.46500 456.000
11.48000 419.000
11.49500 435.000
11.51000 452.000
11.52500 448.000
11.54000 430.000
11.55500 429.000
11.57000 453.000
11.58500 444.000
11.60000 425.000
11.61500 421.000
11.63000 450.000
11.64500 450.000
11.66000 441.000
11.67500 445.000
11.69000 439.000
11.70500 466.000
11.72000 442.000
11.73500 447.000
11.75000 442.000
11.76500 418.000
11.78000 425.000
11.79500 458.000
11.81000 476.000
11.82500 459.000
11.84000 443.000
11.85500 436.000
11.87000 445.000
11.88500 450.000
11.90000 443.000
11.91500 446.000
11.93000 442.000
11.94500 436.000
11.96000 427.000
11.97500 446.000
11.99000 453.000
12.00500 412.000
12.02000 420.000
12.03500 456.000
12.05000 420.000
12.06500 438.000
12.08000 465.000
12.09500 441.000
12.11000 442.000
12.12500 423.000
12.14000 437.000
12.15500 444.000
12.17000 443.000
12.18500 445.000
12.20000 435.000
12.21500 439.000
12.23000 461.000
12.24500 453.000
12.26000 486.000
12.27500 476.000
12.29000 427.000
12.30500 443.000
12.32000 482.000
12.33500 454.000
12.35000 458.000
12.36500 463.000
12.38000 444.000
12.39500 464.000
12.41000 461.000
12.42500 449.000
12.44000 439.000
12.45500 451.000
12.47000 460.000
12.48500 464.000
12.50000 436.000
12.51500 447.000
12.53000 455.000
12.54500 445.000
12.56000 458.000
12.57500 449.000
12.59000 463.000
12.60500 446.000
12.62000 448.000
12.63500 444.000
12.65000 454.000
12.66500 459.000
12.68000 482.000
12.69500 461.000
12.71000 446.000
12.72500 445.000
12.74000 446.000
12.75500 446.000
12.77000 453.000
12.78500 463.000
12.80000 459.000
12.81500 479.000
12.83000 474.000
12.84500 442.000
12.86000 468.000
12.87500 416.000
12.89000 437.000
12.90500 457.000
12.92000 462.000
12.93500 435.000
12.95000 438.000
12.96500 425.000
12.98000 429.000
12.99500 464.000
13.01000 448.000
13.02500 463.000
13.04000 450.000
13.05500 487.000
13.07000 488.000
13.08500 485.000
13.10000 473.000
13.11500 454.000
13.13000 424.000
13.14500 442.000
13.16000 482.000
13.17500 489.000
13.19000 456.000
13.20500 450.000
13.22000 482.000
13.23500 479.000
13.25000 444.000
13.26500 432.000
13.28000 426.000
13.29500 480.000
13.31000 482.000
13.32500 476.000
13.34000 448.000
13.35500 477.000
13.37000 475.000
13.38500 486.000
13.40000 472.000
13.41500 459.000
13.43000 494.000
13.44500 477.000
13.46000 465.000
13.47500 459.000
13.49000 448.000
13.50500 459.000
13.52000 472.000
13.53500 470.000
13.55000 450.000
13.56500 450.000
13.58000 455.000
13.59500 442.000
13.61000 472.000
13.62500 483.000
13.64000 446.000
13.65500 456.000
13.67000 443.000
13.68500 440.000
13.70000 490.000
13.71500 473.000
13.73000 479.000
13.74500 451.000
13.76000 466.000
13.77500 478.000
13.79000 452.000
13.80500 457.000
13.82000 463.000
13.83500 472.000
13.85000 491.000
13.86500 466.000
13.88000 443.000
13.89500 443.000
13.91000 452.000
13.92500 462.000
13.94000 482.000
13.95500 463.000
13.97000 469.000
13.98500 466.000
14.00000 454.000
14.01500 484.000
14.03000 497.000
14.04500 507.000
14.06000 495.000
14.07500 479.000
14.09000 469.000
14.10500 491.000
14.12000 496.000
14.13500 471.000
14.15000 477.000
14.16500 470.000
14.18000 481.000
14.19500 479.000
14.21000 491.000
14.22500 480.000
14.24000 448.000
14.25500 484.000
14.27000 470.000
14.28500 461.000
14.30000 470.000
14.31500 480.000
14.33000 506.000
14.34500 438.000
14.36000 457.000
14.37500 438.000
14.39000 521.000
14.40500 496.000
14.42000 478.000
14.43500 443.000
14.45000 454.000
14.46500 464.000
14.48000 482.000
14.49500 502.000
14.51000 483.000
14.52500 488.000
14.54000 507.000
14.55500 487.000
14.57000 496.000
14.58500 503.000
14.60000 464.000
14.61500 467.000
14.63000 482.000
14.64500 483.000
14.66000 474.000
14.67500 474.000
14.69000 479.000
14.70500 495.000
14.72000 477.000
14.73500 478.000
14.75000 465.000
14.76500 450.000
14.78000 477.000
14.79500 477.000
14.81000 482.000
14.82500 487.000
14.84000 489.000
14.85500 476.000
14.87000 466.000
14.88500 478.000
14.90000 468.000
14.91500 487.000
14.93000 463.000
14.94500 490.000
14.96000 470.000
14.97500 476.000
14.99000 500.000
15.00500 513.000
15.02000 477.000
15.03500 482.000
15.05000 469.000
15.06500 479.000
15.08000 485.000
15.09500 489.000
15.11000 486.000
15.12500 488.000
15.14000 479.000
15.15500 489.000
15.17000 516.000
15.18500 490.000
15.20000 479.000
15.21500 489.000
15.23000 488.000
15.24500 474.000
15.26000 472.000
15.27500 498.000
15.29000 491.000
15.30500 512.000
15.32000 483.000
15.33500 486.000
15.35000 446.000
15.36500 498.000
15.38000 489.000
15.39500 506.000
15.41000 492.000
15.42500 439.000
15.44000 456.000
15.45500 478.000
15.47000 476.000
15.48500 474.000
15.50000 468.000
15.51500 460.000
15.53000 479.000
15.54500 461.000
15.56000 502.000
15.57500 467.000
15.59000 501.000
15.60500 486.000
15.62000 492.000
15.63500 490.000
15.65000 505.000
15.66500 465.000
15.68000 491.000
15.69500 511.000
15.71000 517.000
15.72500 476.000
15.74000 470.000
15.75500 468.000
15.77000 457.000
15.78500 487.000
15.80000 484.000
15.81500 478.000
15.83000 461.000
15.84500 497.000
15.86000 457.000
15.87500 472.000
15.89000 477.000
15.90500 483.000
15.92000 479.000
15.93500 497.000
15.95000 498.000
15.96500 496.000
15.98000 484.000
15.99500 497.000
16.01000 491.000
16.02500 493.000
16.04000 530.000
16.05500 503.000
16.07000 496.000
16.08500 484.000
16.10000 482.000
16.11500 492.000
16.13000 464.000
16.14500 473.000
16.16000 481.000
16.17500 514.000
16.19000 497.000
16.20500 491.000
16.22000 476.000
16.23500 504.000
16.25000 503.000
16.26500 502.000
16.28000 470.000
16.29500 445.000
16.31000 459.000
16.32500 512.000
16.34000 532.000
16.35500 496.000
16.37000 490.000
16.38500 492.000
16.40000 498.000
16.41500 462.000
16.43000 515.000
16.44500 490.000
16.46000 495.000
16.47500 465.000
16.49000 495.000
16.50500 522.000
16.52000 491.000
16.53500 478.000
16.55000 459.000
16.56500 485.000
16.58000 476.000
16.59500 521.000
16.61000 519.000
16.62500 502.000
16.64000 510.000
16.65500 508.000
16.67000 470.000
16.68500 477.000
16.70000 482.000
16.71500 496.000
16.73000 531.000
16.74500 476.000
16.76000 506.000
16.77500 492.000
16.79000 470.000
16.80500 495.000
16.82000 499.000
16.83500 500.000
16.85000 516.000
16.86500 476.000
16.88000 487.000
16.89500 530.000
16.91000 506.000
16.92500 502.000
16.94000 487.000
16.95500 488.000
16.97000 519.000
16.98500 514.000
17.00000 515.000
17.01500 485.000
17.03000 494.000
17.04500 480.000
17.06000 491.000
17.07500 482.000
17.09000 514.000
17.10500 524.000
17.12000 496.000
17.13500 510.000
17.15000 495.000
17.16500 469.000
17.18000 489.000
17.19500 473.000
17.21000 502.000
17.22500 503.000
17.24000 471.000
17.25500 499.000
17.27000 484.000
17.28500 509.000
17.30000 481.000
17.31500 522.000
17.33000 483.000
17.34500 522.000
17.36000 481.000
17.37500 473.000
17.39000 462.000
17.40500 484.000
17.42000 490.000
17.43500 501.000
17.45000 498.000
17.46500 504.000
17.48000 509.000
17.49500 522.000
17.51000 542.000
17.52500 536.000
17.54000 511.000
17.55500 540.000
17.57000 533.000
17.58500 502.000
17.60000 501.000
17.61500 507.000
17.63000 522.000
17.64500 524.000
17.66000 509.000
17.67500 505.000
17.69000 507.000
17.70500 515.000
17.72000 485.000
17.73500 500.000
17.75000 520.000
17.76500 524.000
17.78000 506.000
17.79500 499.000
17.81000 507.000
17.82500 514.000
17.84000 544.000
17.85500 525.000
17.87000 533.000
17.88500 505.000
17.90000 510.000
17.91500 538.000
17.93000 512.000
17.94500 513.000
17.96000 491.000
17.97500 507.000
17.99000 508.000
18.00500 529.000
18.02000 490.000
18.03500 521.000
18.05000 518.000
18.06500 514.000
18.08000 487.000
18.09500 529.000
18.11000 543.000
18.12500 526.000
18.14000 494.000
18.15500 502.000
18.17000 513.000
18.18500 478.000
18.20000 486.000
18.21500 519.000
18.23000 540.000
18.24500 547.000
18.26000 502.000
18.27500 508.000
18.29000 490.000
18.30500 497.000
18.32000 510.000
18.33500 503.000
18.35000 523.000
18.36500 517.000
18.38000 487.000
18.39500 521.000
18.41000 526.000
18.42500 515.000
18.44000 525.000
18.45500 513.000
18.47000 536.000
18.48500 547.000
18.50000 497.000
18.51500 530.000
18.53000 537.000
18.54500 513.000
18.56000 541.000
18.57500 539.000
18.59000 529.000
18.60500 510.000
18.62000 531.000
18.63500 538.000
18.65000 514.000
18.66500 511.000
18.68000 504.000
18.69500 504.000
18.71000 527.000
18.72500 530.000
18.74000 528.000
18.75500 510.000
18.77000 492.000
18.78500 512.000
18.80000 540.000
18.81500 548.000
18.83000 541.000
18.84500 531.000
18.86000 509.000
18.87500 531.000
18.89000 532.000
18.90500 532.000
18.92000 513.000
18.93500 480.000
18.95000 501.000
18.96500 498.000
18.98000 502.000
18.99500 490.000
19.01000 514.000
19.02500 518.000
19.04000 497.000
19.05500 547.000
19.07000 564.000
19.08500 561.000
19.10000 544.000
19.11500 538.000
19.13000 505.000
19.14500 497.000
19.16000 513.000
19.17500 560.000
19.19000 554.000
19.20500 530.000
19.22000 492.000
19.23500 531.000
19.25000 504.000
19.26500 526.000
19.28000 514.000
19.29500 532.000
19.31000 524.000
19.32500 536.000
19.34000 547.000
19.35500 541.000
19.37000 492.000
19.38500 484.000
19.40000 507.000
19.41500 565.000
19.43000 515.000
19.44500 496.000
19.46000 529.000
19.47500 528.000
19.49000 522.000
19.50500 510.000
19.52000 510.000
19.53500 548.000
19.55000 498.000
19.56500 512.000
19.58000 541.000
19.59500 540.000
19.61000 536.000
19.62500 559.000
19.64000 511.000
19.65500 510.000
19.67000 545.000
19.68500 547.000
19.70000 529.000
19.71500 504.000
19.73000 549.000
19.74500 505.000
19.76000 499.000
19.77500 520.000
19.79000 566.000
19.80500 554.000
19.82000 489.000
19.83500 525.000
19.85000 479.000
19.86500 504.000
19.88000 507.000
19.89500 507.000
19.91000 532.000
19.92500 505.000
19.94000 521.000
19.95500 510.000
19.97000 504.000
19.98500 530.000
20.00000 512.000
20.01500 515.000
20.03000 518.000
20.04500 523.000
20.06000 546.000
20.07500 517.000
20.09000 555.000
20.10500 498.000
20.12000 528.000
20.13500 567.000
20.15000 564.000
20.16500 516.000
20.18000 507.000
20.19500 588.000
20.21000 542.000
20.22500 531.000
20.24000 556.000
20.25500 537.000
20.27000 535.000
20.28500 549.000
20.30000 512.000
20.31500 516.000
20.33000 527.000
20.34500 529.000
20.36000 533.000
20.37500 535.000
20.39000 534.000
20.40500 537.000
20.42000 533.000
20.43500 515.000
20.45000 527.000
20.46500 553.000
20.48000 527.000
20.49500 520.000
20.51000 517.000
20.52500 513.000
20.54000 514.000
20.55500 561.000
20.57000 546.000
20.58500 548.000
20.60000 562.000
20.61500 516.000
20.63000 533.000
20.64500 566.000
20.66000 545.000
20.67500 529.000
20.69000 510.000
20.70500 528.000
20.72000 507.000
20.73500 543.000
20.75000 549.000
20.76500 554.000
20.78000 520.000
20.79500 546.000
20.81000 541.000
20.82500 544.000
20.84000 557.000
20.85500 525.000
20.87000 540.000
20.88500 565.000
20.90000 544.000
20.91500 554.000
20.93000 555.000
20.94500 520.000
20.96000 536.000
20.97500 536.000
20.99000 566.000
21.00500 541.000
21.02000 578.000
21.03500 555.000
21.05000 510.000
21.06500 513.000
21.08000 534.000
21.09500 520.000
21.11000 524.000
21.12500 570.000
21.14000 557.000
21.15500 523.000
21.17000 547.000
21.18500 514.000
21.20000 551.000
21.21500 503.000
21.23000 532.000
21.24500 508.000
21.26000 536.000
21.27500 533.000
21.29000 542.000
21.30500 530.000
21.32000 536.000
21.33500 530.000
21.35000 563.000
21.36500 537.000
21.38000 521.000
21.39500 543.000
21.41000 546.000
21.42500 543.000
21.44000 530.000
21.45500 542.000
21.47000 526.000
21.48500 556.000
21.50000 535.000
21.51500 531.000
21.53000 496.000
21.54500 502.000
21.56000 568.000
21.57500 529.000
21.59000 534.000
21.60500 544.000
21.62000 540.000
21.63500 561.000
21.65000 563.000
21.66500 539.000
21.68000 532.000
21.69500 559.000
21.71000 560.000
21.72500 505.000
21.74000 518.000
21.75500 522.000
21.77000 535.000
21.78500 548.000
21.80000 524.000
21.81500 542.000
21.83000 560.000
21.84500 520.000
21.86000 502.000
21.87500 546.000
21.89000 530.000
21.90500 514.000
21.92000 500.000
21.93500 516.000
21.95000 568.000
21.96500 552.000
21.98000 519.000
21.99500 537.000
22.01000 564.000
22.02500 530.000
22.04000 542.000
22.05500 548.000
22.07000 530.000
22.08500 546.000
22.10000 518.000
22.11500 524.000
22.13000 538.000
22.14500 542.000
22.16000 536.000
22.17500 516.000
22.19000 509.000
22.20500 543.000
22.22000 557.000
22.23500 538.000
22.25000 517.000
22.26500 544.000
22.28000 544.000
22.29500 541.000
22.31000 544.000
22.32500 536.000
22.34000 545.000
22.35500 544.000
22.37000 553.000
22.38500 549.000
22.40000 561.000
22.41500 537.000
22.43000 526.000
22.44500 563.000
22.46000 536.000
22.47500 503.000
22.49000 506.000
22.50500 518.000
22.52000 567.000
22.53500 544.000
22.55000 515.000
22.56500 521.000
22.58000 530.000
22.59500 534.000
22.61000 523.000
22.62500 547.000
22.64000 553.000
22.65500 561.000
22.67000 518.000
22.68500 498.000
22.70000 508.000
22.71500 537.000
22.73000 517.000
22.74500 562.000
22.76000 524.000
22.77500 513.000
22.79000 519.000
22.80500 534.000
22.82000 523.000
22.83500 496.000
22.85000 532.000
22.86500 519.000
22.88000 541.000
22.89500 476.000
22.91000 529.000
22.92500 536.000
22.94000 552.000
22.95500 529.000
22.97000 541.000
22.98500 533.000
23.00000 525.000
23.01500 560.000
23.03000 534.000
23.04500 553.000
23.06000 508.000
23.07500 497.000
23.09000 511.000
23.10500 508.000
23.12000 536.000
23.13500 563.000
23.15000 552.000
23.16500 495.000
23.18000 512.000
23.19500 525.000
23.21000 532.000
23.22500 525.000
23.24000 512.000
23.25500 493.000
23.27000 539.000
23.28500 489.000
23.30000 545.000
23.31500 555.000
23.33000 511.000
23.34500 498.000
23.36000 510.000
23.37500 494.000
23.39000 510.000
23.40500 539.000
23.42000 515.000
23.43500 541.000
23.45000 527.000
23.46500 534.000
23.48000 535.000
23.49500 530.000
23.51000 543.000
23.52500 548.000
23.54000 575.000
23.55500 540.000
23.57000 520.000
23.58500 541.000
23.60000 547.000
23.61500 506.000
23.63000 525.000
23.64500 550.000
23.66000 532.000
23.67500 545.000
23.69000 529.000
23.70500 500.000
23.72000 514.000
23.73500 526.000
23.75000 520.000
23.76500 547.000
23.78000 524.000
23.79500 523.000
23.81000 503.000
23.82500 530.000
23.84000 534.000
23.85500 530.000
23.87000 520.000
23.88500 532.000
23.90000 540.000
23.91500 527.000
23.93000 541.000
23.94500 514.000
23.96000 531.000
23.97500 499.000
23.99000 502.000
24.00500 512.000
24.02000 527.000
24.03500 514.000
24.05000 495.000
24.06500 507.000
24.08000 531.000
24.09500 539.000
24.11000 512.000
24.12500 504.000
24.14000 483.000
24.15500 494.000
24.17000 533.000
24.18500 505.000
24.20000 514.000
24.21500 515.000
24.23000 510.000
24.24500 497.000
24.26000 498.000
24.27500 525.000
24.29000 510.000
24.30500 488.000
24.32000 515.000
24.33500 526.000
24.35000 504.000
24.36500 492.000
24.38000 478.000
24.39500 495.000
24.41000 515.000
24.42500 517.000
24.44000 506.000
24.45500 500.000
24.47000 475.000
24.48500 513.000
24.50000 503.000
24.51500 532.000
24.53000 530.000
24.54500 517.000
24.56000 544.000
24.57500 543.000
24.59000 503.000
24.60500 486.000
24.62000 471.000
24.63500 487.000
24.65000 534.000
24.66500 492.000
24.68000 500.000
24.69500 526.000
24.71000 466.000
24.72500 523.000
24.74000 488.000
24.75500 475.000
24.77000 497.000
24.78500 484.000
24.80000 493.000
24.81500 473.000
24.83000 479.000
24.84500 477.000
24.86000 522.000
24.87500 525.000
24.89000 460.000
24.90500 491.000
24.92000 487.000
24.93500 497.000
24.95000 470.000
24.96500 463.000
24.98000 505.000
24.99500 513.000
25.01000 501.000
25.02500 530.000
25.04000 494.000
25.05500 469.000
25.07000 486.000
25.08500 487.000
25.10000 503.000
25.11500 506.000
25.13000 456.000
25.14500 475.000
25.16000 477.000
25.17500 500.000
25.19000 497.000
25.20500 497.000
25.22000 487.000
25.23500 513.000
25.25000 469.000
25.26500 467.000
25.28000 484.000
25.29500 521.000
25.31000 524.000
25.32500 514.000
25.34000 490.000
25.35500 511.000
25.37000 506.000
25.38500 512.000
25.40000 516.000
25.41500 481.000
25.43000 482.000
25.44500 496.000
25.46000 501.000
25.47500 523.000
25.49000 463.000
25.50500 472.000
25.52000 494.000
25.53500 469.000
25.55000 489.000
25.56500 496.000
25.58000 470.000
25.59500 486.000
25.61000 515.000
25.62500 481.000
25.64000 461.000
25.65500 512.000
25.67000 496.000
25.68500 495.000
25.70000 479.000
25.71500 497.000
25.73000 496.000
25.74500 494.000
25.76000 485.000
25.77500 484.000
25.79000 458.000
25.80500 477.000
25.82000 476.000
25.83500 494.000
25.85000 517.000
25.86500 465.000
25.88000 469.000
25.89500 465.000
25.91000 463.000
25.92500 439.000
25.94000 533.000
25.95500 491.000
25.97000 474.000
25.98500 452.000
26.00000 468.000
26.01500 467.000
26.03000 470.000
26.04500 494.000
26.06000 458.000
26.07500 485.000
26.09000 480.000
26.10500 482.000
26.12000 467.000
26.13500 461.000
26.15000 467.000
26.16500 466.000
26.18000 483.000
26.19500 461.000
26.21000 448.000
26.22500 467.000
26.24000 494.000
26.25500 460.000
26.27000 478.000
26.28500 455.000
26.30000 463.000
26.31500 443.000
26.33000 467.000
26.34500 458.000
26.36000 469.000
26.37500 478.000
26.39000 478.000
26.40500 443.000
26.42000 443.000
26.43500 445.000
26.45000 472.000
26.46500 468.000
26.48000 476.000
26.49500 477.000
26.51000 461.000
26.52500 483.000
26.54000 495.000
26.55500 454.000
26.57000 466.000
26.58500 469.000
26.60000 462.000
26.61500 482.000
26.63000 459.000
26.64500 443.000
26.66000 445.000
26.67500 441.000
26.69000 447.000
26.70500 447.000
26.72000 463.000
26.73500 492.000
26.75000 488.000
26.76500 442.000
26.78000 451.000
26.79500 448.000
26.81000 449.000
26.82500 463.000
26.84000 463.000
26.85500 460.000
26.87000 437.000
26.88500 467.000
26.90000 462.000
26.91500 443.000
26.93000 458.000
26.94500 488.000
26.96000 476.000
26.97500 448.000
26.99000 436.000
27.00500 463.000
27.02000 464.000
27.03500 471.000
27.05000 431.000
27.06500 430.000
27.08000 454.000
27.09500 437.000
27.11000 415.000
27.12500 427.000
27.14000 426.000
27.15500 435.000
27.17000 465.000
27.18500 449.000
27.20000 447.000
27.21500 476.000
27.23000 462.000
27.24500 463.000
27.26000 443.000
27.27500 450.000
27.29000 427.000
27.30500 446.000
27.32000 435.000
27.33500 426.000
27.35000 427.000
27.36500 438.000
27.38000 422.000
27.39500 432.000
27.41000 414.000
27.42500 448.000
27.44000 443.000
27.45500 428.000
27.47000 439.000
27.48500 410.000
27.50000 445.000
27.51500 435.000
27.53000 436.000
27.54500 423.000
27.56000 411.000
27.57500 429.000
27.59000 426.000
27.60500 421.000
27.62000 438.000
27.63500 424.000
27.65000 446.000
27.66500 456.000
27.68000 436.000
27.69500 427.000
27.71000 422.000
27.72500 442.000
27.74000 430.000
27.75500 428.000
27.77000 409.000
27.78500 432.000
27.80000 427.000
27.81500 420.000
27.83000 379.000
27.84500 434.000
27.86000 430.000
27.87500 427.000
27.89000 430.000
27.90500 452.000
27.92000 450.000
27.93500 430.000
27.95000 393.000
27.96500 427.000
27.98000 430.000
27.99500 418.000
28.01000 428.000
28.02500 416.000
28.04000 399.000
28.05500 401.000
28.07000 417.000
28.08500 409.000
28.10000 399.000
28.11500 407.000
28.13000 436.000
28.14500 397.000
28.16000 392.000
28.17500 424.000
28.19000 416.000
28.20500 426.000
28.22000 415.000
28.23500 410.000
28.25000 415.000
28.26500 409.000
28.28000 409.000
28.29500 409.000
28.31000 409.000
28.32500 416.000
28.34000 448.000
28.35500 436.000
28.37000 410.000
28.38500 405.000
28.40000 420.000
28.41500 423.000
28.43000 389.000
28.44500 365.000
28.46000 391.000
28.47500 402.000
28.49000 424.000
28.50500 408.000
28.52000 419.000
28.53500 418.000
28.55000 406.000
28.56500 378.000
28.58000 408.000
28.59500 405.000
28.61000 401.000
28.62500 396.000
28.64000 395.000
28.65500 419.000
28.67000 418.000
28.68500 431.000
28.70000 419.000
28.71500 406.000
28.73000 406.000
28.74500 400.000
28.76000 376.000
28.77500 402.000
28.79000 394.000
28.80500 406.000
28.82000 382.000
28.83500 384.000
28.85000 444.000
28.86500 396.000
28.88000 400.000
28.89500 392.000
28.91000 394.000
28.92500 390.000
28.94000 389.000
28.95500 406.000
28.97000 400.000
28.98500 407.000
29.00000 385.000
29.01500 392.000
29.03000 415.000
29.04500 414.000
29.06000 408.000
29.07500 402.000
29.09000 422.000
29.10500 407.000
29.12000 396.000
29.13500 404.000
29.15000 430.000
29.16500 373.000
29.18000 409.000
29.19500 418.000
29.21000 433.000
29.22500 421.000
29.24000 387.000
29.25500 370.000
29.27000 378.000
29.28500 380.000
29.30000 410.000
29.31500 379.000
29.33000 362.000
29.34500 401.000
29.36000 387.000
29.37500 404.000
29.39000 408.000
29.40500 401.000
29.42000 411.000
29.43500 398.000
29.45000 376.000
29.46500 391.000
29.48000 396.000
29.49500 416.000
29.51000 398.000
29.52500 410.000
29.54000 404.000
29.55500 368.000
29.57000 373.000
29.58500 388.000
29.60000 410.000
29.61500 395.000
29.63000 399.000
29.64500 388.000
29.66000 403.000
29.67500 420.000
29.69000 390.000
29.70500 402.000
29.72000 398.000
29.73500 389.000
29.75000 381.000
29.76500 389.000
29.78000 400.000
29.79500 384.000
29.81000 379.000
29.82500 410.000
29.84000 401.000
29.85500 392.000
29.87000 390.000
29.88500 370.000
29.90000 372.000
29.91500 386.000
29.93000 387.000
29.94500 356.000
29.96000 359.000
29.97500 379.000
29.99000 359.000
30.00500 369.000
30.02000 357.000
30.03500 370.000
30.05000 368.000
30.06500 364.000
30.08000 368.000
30.09500 398.000
30.11000 364.000
30.12500 360.000
30.14000 370.000
30.15500 376.000
30.17000 376.000
30.18500 380.000
30.20000 362.000
30.21500 370.000
30.23000 409.000
30.24500 399.000
30.26000 385.000
30.27500 379.000
30.29000 370.000
30.30500 384.000
30.32000 375.000
30.33500 342.000
30.35000 358.000
30.36500 369.000
30.38000 359.000
30.39500 367.000
30.41000 361.000
30.42500 352.000
30.44000 372.000
30.45500 393.000
30.47000 361.000
30.48500 339.000
30.50000 343.000
30.51500 370.000
30.53000 395.000
30.54500 369.000
30.56000 380.000
30.57500 363.000
30.59000 350.000
30.60500 347.000
30.62000 349.000
30.63500 352.000
30.65000 373.000
30.66500 327.000
30.68000 353.000
30.69500 365.000
30.71000 396.000
30.72500 356.000
30.74000 354.000
30.75500 359.000
30.77000 369.000
30.78500 370.000
30.80000 330.000
30.81500 344.000
30.83000 367.000
30.84500 348.000
30.86000 360.000
30.87500 342.000
30.89000 340.000
30.90500 383.000
30.92000 375.000
30.93500 372.000
30.95000 393.000
30.96500 348.000
30.98000 347.000
30.99500 364.000
31.01000 385.000
31.02500 357.000
31.04000 360.000
31.05500 356.000
31.07000 351.000
31.08500 379.000
31.10000 377.000
31.11500 351.000
31.13000 325.000
31.14500 354.000
31.16000 360.000
31.17500 333.000
31.19000 357.000
31.20500 362.000
31.22000 353.000
31.23500 374.000
31.25000 358.000
31.26500 346.000
31.28000 362.000
31.29500 330.000
31.31000 333.000
31.32500 360.000
31.34000 345.000
31.35500 347.000
31.37000 347.000
31.38500 325.000
31.40000 340.000
31.41500 329.000
31.43000 332.000
31.44500 366.000
31.46000 355.000
31.47500 372.000
31.49000 342.000
31.50500 343.000
31.52000 347.000
31.53500 338.000
31.55000 339.000
31.56500 350.000
31.58000 350.000
31.59500 333.000
31.61000 346.000
31.62500 334.000
31.64000 308.000
31.65500 324.000
31.67000 352.000
31.68500 328.000
31.70000 311.000
31.71500 325.000
31.73000 332.000
31.74500 326.000
31.76000 336.000
31.77500 334.000
31.79000 315.000
31.80500 320.000
31.82000 340.000
31.83500 353.000
31.85000 354.000
31.86500 322.000
31.88000 310.000
31.89500 330.000
31.91000 311.000
31.92500 316.000
31.94000 339.000
31.95500 325.000
31.97000 340.000
31.98500 355.000
32.00000 354.000
32.01500 330.000
32.03000 324.000
32.04500 359.000
32.06000 316.000
32.07500 350.000
32.09000 351.000
32.10500 334.000
32.12000 331.000
32.13500 292.000
32.15000 355.000
32.16500 330.000
32.18000 308.000
32.19500 320.000
32.21000 323.000
32.22500 322.000
32.24000 339.000
32.25500 330.000
32.27000 333.000
32.28500 324.000
32.30000 307.000
32.31500 317.000
32.33000 303.000
32.34500 289.000
32.36000 296.000
32.37500 315.000
32.39000 306.000
32.40500 303.000
32.42000 331.000
32.43500 315.000
32.45000 291.000
32.46500 307.000
32.48000 311.000
32.49500 321.000
32.51000 330.000
32.52500 326.000
32.54000 329.000
32.55500 307.000
32.57000 293.000
32.58500 343.000
32.60000 344.000
32.61500 314.000
32.63000 318.000
32.64500 315.000
32.66000 291.000
32.67500 286.000
32.69000 306.000
32.70500 303.000
32.72000 314.000
32.73500 314.000
32.75000 308.000
32.76500 330.000
32.78000 312.000
32.79500 312.000
32.81000 317.000
32.82500 313.000
32.84000 312.000
32.85500 312.000
32.87000 290.000
32.88500 295.000
32.90000 293.000
32.91500 285.000
32.93000 302.000
32.94500 306.000
32.96000 319.000
32.97500 321.000
32.99000 328.000
33.00500 314.000
33.02000 314.000
33.03500 327.000
33.05000 319.000
33.06500 292.000
33.08000 274.000
33.09500 303.000
33.11000 327.000
33.12500 301.000
33.14000 304.000
33.15500 311.000
33.17000 322.000
33.18500 322.000
33.20000 297.000
33.21500 298.000
33.23000 305.000
33.24500 283.000
33.26000 306.000
33.27500 318.000
33.29000 270.000
33.30500 274.000
33.32000 322.000
33.33500 314.000
33.35000 288.000
33.36500 301.000
33.38000 301.000
33.39500 303.000
33.41000 312.000
33.42500 271.000
33.44000 304.000
33.45500 299.000
33.47000 302.000
33.48500 291.000
33.50000 283.000
33.51500 269.000
33.53000 285.000
33.54500 304.000
33.56000 297.000
33.57500 305.000
33.59000 284.000
33.60500 300.000
33.62000 277.000
33.63500 280.000
33.65000 277.000
33.66500 298.000
33.68000 286.000
33.69500 274.000
33.71000 287.000
33.72500 293.000
33.74000 269.000
33.75500 287.000
33.77000 283.000
33.78500 263.000
33.80000 284.000
33.81500 301.000
33.83000 298.000
33.84500 286.000
33.86000 275.000
33.87500 268.000
33.89000 285.000
33.90500 282.000
33.92000 278.000
33.93500 286.000
33.95000 283.000
33.96500 324.000
33.98000 281.000
33.99500 282.000
34.01000 312.000
34.02500 281.000
34.04000 287.000
34.05500 267.000
34.07000 275.000
34.08500 303.000
34.10000 286.000
34.11500 274.000
34.13000 274.000
34.14500 261.000
34.16000 263.000
34.17500 270.000
34.19000 296.000
34.20500 274.000
34.22000 267.000
34.23500 278.000
34.25000 271.000
34.26500 273.000
34.28000 285.000
34.29500 263.000
34.31000 259.000
34.32500 268.000
34.34000 282.000
34.35500 289.000
34.37000 271.000
34.38500 260.000
34.40000 270.000
34.41500 248.000
34.43000 241.000
34.44500 252.000
34.46000 262.000
34.47500 257.000
34.49000 264.000
34.50500 271.000
34.52000 267.000
34.53500 279.000
34.55000 258.000
34.56500 271.000
34.58000 289.000
34.59500 292.000
34.61000 283.000
34.62500 267.000
34.64000 267.000
34.65500 276.000
34.67000 290.000
34.68500 274.000
34.70000 265.000
34.71500 275.000
34.73000 276.000
34.74500 265.000
34.76000 270.000
34.77500 271.000
34.79000 262.000
34.80500 232.000
34.82000 242.000
34.83500 254.000
34.85000 280.000
34.86500 249.000
34.88000 254.000
34.89500 251.000
34.91000 258.000
34.92500 247.000
34.94000 258.000
34.95500 245.000
34.97000 247.000
34.98500 266.000
35.00000 265.000
35.01500 265.000
35.03000 274.000
35.04500 246.000
35.06000 254.000
35.07500 254.000
35.09000 248.000
35.10500 248.000
35.12000 239.000
35.13500 261.000
35.15000 243.000
35.16500 255.000
35.18000 244.000
35.19500 232.000
35.21000 242.000
35.22500 254.000
35.24000 251.000
35.25500 252.000
35.27000 243.000
35.28500 249.000
35.30000 260.000
35.31500 254.000
35.33000 241.000
35.34500 227.000
35.36000 259.000
35.37500 255.000
35.39000 235.000
35.40500 249.000
35.42000 267.000
35.43500 248.000
35.45000 241.000
35.46500 245.000
35.48000 230.000
35.49500 255.000
35.51000 266.000
35.52500 262.000
35.54000 249.000
35.55500 262.000
35.57000 251.000
35.58500 230.000
35.60000 265.000
35.61500 256.000
35.63000 248.000
35.64500 233.000
35.66000 248.000
35.67500 239.000
35.69000 241.000
35.70500 249.000
35.72000 266.000
35.73500 266.000
35.75000 228.000
35.76500 235.000
35.78000 236.000
35.79500 234.000
35.81000 243.000
35.82500 245.000
35.84000 247.000
35.85500 226.000
35.87000 244.000
35.88500 225.000
35.90000 221.000
35.91500 238.000
35.93000 249.000
35.94500 229.000
35.96000 255.000
35.97500 245.000
35.99000 240.000
36.00500 237.000
36.02000 242.000
36.03500 239.000
36.05000 232.000
36.06500 254.000
36.08000 238.000
36.09500 247.000
36.11000 237.000
36.12500 243.000
36.14000 225.000
36.15500 242.000
36.17000 205.000
36.18500 211.000
36.20000 230.000
36.21500 220.000
36.23000 229.000
36.24500 226.000
36.26000 230.000
36.27500 230.000
36.29000 245.000
36.30500 240.000
36.32000 222.000
36.33500 226.000
36.35000 235.000
36.36500 225.000
36.38000 225.000
36.39500 225.000
36.41000 228.000
36.42500 222.000
36.44000 223.000
36.45500 250.000
36.47000 246.000
36.48500 224.000
36.50000 235.000
36.51500 230.000
36.53000 227.000
36.54500 228.000
36.56000 245.000
36.57500 238.000
36.59000 224.000
36.60500 238.000
36.62000 246.000
36.63500 254.000
36.65000 236.000
36.66500 238.000
36.68000 232.000
36.69500 227.000
36.71000 222.000
36.72500 225.000
36.74000 235.000
36.75500 243.000
36.77000 232.000
36.78500 225.000
36.80000 239.000
36.81500 232.000
36.83000 215.000
36.84500 193.000
36.86000 220.000
36.87500 232.000
36.89000 231.000
36.90500 213.000
36.92000 233.000
36.93500 244.000
36.95000 224.000
36.96500 219.000
36.98000 219.000
36.99500 238.000
37.01000 229.000
37.02500 227.000
37.04000 218.000
37.05500 223.000
37.07000 223.000
37.08500 231.000
37.10000 223.000
37.11500 223.000
37.13000 197.000
37.14500 209.000
37.16000 227.000
37.17500 216.000
37.19000 209.000
37.20500 222.000
37.22000 222.000
37.23500 231.000
37.25000 197.000
37.26500 209.000
37.28000 224.000
37.29500 232.000
37.31000 220.000
37.32500 228.000
37.34000 230.000
37.35500 222.000
37.37000 196.000
37.38500 230.000
37.40000 232.000
37.41500 222.000
37.43000 225.000
37.44500 214.000
37.46000 210.000
37.47500 206.000
37.49000 193.000
37.50500 212.000
37.52000 194.000
37.53500 222.000
37.55000 192.000
37.56500 193.000
37.58000 213.000
37.59500 218.000
37.61000 213.000
37.62500 220.000
37.64000 189.000
37.65500 204.000
37.67000 217.000
37.68500 232.000
37.70000 218.000
37.71500 201.000
37.73000 228.000
37.74500 234.000
37.76000 213.000
37.77500 210.000
37.79000 200.000
37.80500 197.000
37.82000 193.000
37.83500 212.000
37.85000 224.000
37.86500 218.000
37.88000 221.000
37.89500 221.000
37.91000 191.000
37.92500 223.000
37.94000 215.000
37.95500 210.000
37.97000 219.000
37.98500 206.000
38.00000 225.000
38.01500 211.000
38.03000 219.000
38.04500 218.000
38.06000 239.000
38.07500 201.000
38.09000 190.000
38.10500 187.000
38.12000 210.000
38.13500 197.000
38.15000 207.000
38.16500 201.000
38.18000 188.000
38.19500 205.000
38.21000 226.000
38.22500 216.000
38.24000 233.000
38.25500 212.000
38.27000 212.000
38.28500 205.000
38.30000 216.000
38.31500 210.000
38.33000 179.000
38.34500 188.000
38.36000 186.000
38.37500 189.000
38.39000 224.000
38.40500 216.000
38.42000 196.000
38.43500 200.000
38.45000 202.000
38.46500 202.000
38.48000 200.000
38.49500 198.000
38.51000 203.000
38.52500 211.000
38.54000 214.000
38.55500 195.000
38.57000 198.000
38.58500 203.000
38.60000 189.000
38.61500 210.000
38.63000 196.000
38.64500 215.000
38.66000 191.000
38.67500 208.000
38.69000 204.000
38.70500 197.000
38.72000 200.000
38.73500 215.000
38.75000 202.000
38.76500 203.000
38.78000 193.000
38.79500 211.000
38.81000 219.000
38.82500 207.000
38.84000 192.000
38.85500 227.000
38.87000 206.000
38.88500 188.000
38.90000 191.000
38.91500 190.000
38.93000 205.000
38.94500 200.000
38.96000 211.000
38.97500 200.000
38.99000 200.000
39.00500 190.000
39.02000 195.000
39.03500 200.000
39.05000 185.000
39.06500 197.000
39.08000 187.000
39.09500 182.000
39.11000 194.000
39.12500 192.000
39.14000 218.000
39.15500 210.000
39.17000 202.000
39.18500 218.000
39.20000 195.000
39.21500 206.000
39.23000 197.000
39.24500 186.000
39.26000 197.000
39.27500 203.000
39.29000 215.000
39.30500 223.000
39.32000 203.000
39.33500 203.000
39.35000 197.000
39.36500 192.000
39.38000 198.000
39.39500 197.000
39.41000 210.000
39.42500 195.000
39.44000 198.000
39.45500 203.000
39.47000 194.000
39.48500 208.000
39.50000 189.000
39.51500 205.000
39.53000 201.000
39.54500 200.000
39.56000 191.000
39.57500 192.000
39.59000 190.000
39.60500 198.000
39.62000 211.000
39.63500 225.000
39.65000 215.000
39.66500 184.000
39.68000 224.000
39.69500 203.000
39.71000 220.000
39.72500 195.000
39.74000 179.000
39.75500 181.000
39.77000 187.000
39.78500 212.000
39.80000 188.000
39.81500 195.000
39.83000 199.000
39.84500 187.000
39.86000 210.000
39.87500 192.000
39.89000 185.000
39.90500 186.000
39.92000 194.000
39.93500 183.000
39.95000 200.000
39.96500 188.000
39.98000 193.000
39.99500 182.000
40.01000 187.000
40.02500 209.000
40.04000 199.000
40.05500 189.000
40.07000 187.000
40.08500 197.000
40.10000 198.000
40.11500 204.000
40.13000 203.000
40.14500 192.000
40.16000 177.000
40.17500 208.000
40.19000 205.000
40.20500 202.000
40.22000 215.000
40.23500 189.000
40.25000 186.000
40.26500 182.000
40.28000 200.000
40.29500 189.000
40.31000 170.000
40.32500 190.000
40.34000 195.000
40.35500 198.000
40.37000 188.000
40.38500 209.000
40.40000 189.000
40.41500 190.000
40.43000 203.000
40.44500 202.000
40.46000 206.000
40.47500 205.000
40.49000 217.000
40.50500 193.000
40.52000 194.000
40.53500 185.000
40.55000 184.000
40.56500 208.000
40.58000 173.000
40.59500 180.000
40.61000 204.000
40.62500 200.000
40.64000 184.000
40.65500 180.000
40.67000 180.000
40.68500 194.000
40.70000 186.000
40.71500 196.000
40.73000 185.000
40.74500 189.000
40.76000 185.000
40.77500 175.000
40.79000 207.000
40.80500 185.000
40.82000 187.000
40.83500 178.000
40.85000 185.000
40.86500 178.000
40.88000 184.000
40.89500 194.000
40.91000 195.000
40.92500 176.000
40.94000 159.000
40.95500 171.000
40.97000 207.000
40.98500 198.000
41.00000 209.000
41.01500 212.000
41.03000 199.000
41.04500 187.000
41.06000 188.000
41.07500 184.000
41.09000 171.000
41.10500 167.000
41.12000 186.000
41.13500 184.000
41.15000 215.000
41.16500 185.000
41.18000 186.000
41.19500 219.000
41.21000 196.000
41.22500 206.000
41.24000 193.000
41.25500 209.000
41.27000 177.000
41.28500 187.000
41.30000 191.000
41.31500 178.000
41.33000 160.000
41.34500 182.000
41.36000 186.000
41.37500 183.000
41.39000 185.000
41.40500 200.000
41.42000 179.000
41.43500 167.000
41.45000 187.000
41.46500 189.000
41.48000 183.000
41.49500 179.000
41.51000 181.000
41.52500 188.000
41.54000 198.000
41.55500 177.000
41.57000 191.000
41.58500 195.000
41.60000 190.000
41.61500 190.000
41.63000 193.000
41.64500 201.000
41.66000 184.000
41.67500 194.000
41.69000 208.000
41.70500 192.000
41.72000 197.000
41.73500 208.000
41.75000 177.000
41.76500 178.000
41.78000 174.000
41.79500 193.000
41.81000 198.000
41.82500 194.000
41.84000 181.000
41.85500 199.000
41.87000 195.000
41.88500 199.000
41.90000 189.000
41.91500 188.000
41.93000 215.000
41.94500 186.000
41.96000 184.000
41.97500 177.000
41.99000 201.000
42.00500 171.000
42.02000 184.000
42.03500 187.000
42.05000 169.000
42.06500 163.000
42.08000 181.000
42.09500 190.000
42.11000 175.000
42.12500 186.000
42.14000 193.000
42.15500 204.000
42.17000 179.000
42.18500 181.000
42.20000 180.000
42.21500 188.000
42.23000 204.000
42.24500 201.000
42.26000 188.000
42.27500 193.000
42.29000 192.000
42.30500 201.000
42.32000 193.000
42.33500 195.000
42.35000 195.000
42.36500 167.000
42.38000 173.000
42.39500 155.000
42.41000 180.000
42.42500 188.000
42.44000 204.000
42.45500 158.000
42.47000 163.000
42.48500 187.000
42.50000 186.000
42.51500 181.000
42.53000 166.000
42.54500 165.000
42.56000 176.000
42.57500 173.000
42.59000 161.000
42.60500 182.000
42.62000 200.000
42.63500 166.000
42.65000 172.000
42.66500 183.000
42.68000 207.000
42.69500 191.000
42.71000 178.000
42.72500 153.000
42.74000 181.000
42.75500 192.000
42.77000 183.000
42.78500 171.000
42.80000 177.000
42.81500 190.000
42.83000 173.000
42.84500 164.000
42.86000 167.000
42.87500 195.000
42.89000 192.000
42.90500 175.000
42.92000 180.000
42.93500 174.000
42.95000 178.000
42.96500 186.000
42.98000 184.000
42.99500 204.000
43.01000 193.000
43.02500 196.000
43.04000 190.000
43.05500 179.000
43.07000 173.000
43.08500 178.000
43.10000 183.000
43.11500 171.000
43.13000 179.000
43.14500 182.000
43.16000 167.000
43.17500 177.000
43.19000 199.000
43.20500 173.000
43.22000 177.000
43.23500 179.000
43.25000 174.000
43.26500 185.000
43.28000 187.000
43.29500 175.000
43.31000 180.000
43.32500 183.000
43.34000 191.000
43.35500 189.000
43.37000 178.000
43.38500 187.000
43.40000 172.000
43.41500 189.000
43.43000 200.000
43.44500 188.000
43.46000 189.000
43.47500 162.000
43.49000 167.000
43.50500 161.000
43.52000 169.000
43.53500 175.000
43.55000 177.000
43.56500 162.000
43.58000 186.000
43.59500 189.000
43.61000 186.000
43.62500 177.000
43.64000 177.000
43.65500 170.000
43.67000 170.000
43.68500 188.000
43.70000 180.000
43.71500 188.000
43.73000 168.000
43.74500 177.000
43.76000 170.000
43.77500 183.000
43.79000 185.000
43.80500 155.000
43.82000 189.000
43.83500 177.000
43.85000 184.000
43.86500 162.000
43.88000 170.000
43.89500 192.000
43.91000 175.000
43.92500 180.000
43.94000 175.000
43.95500 180.000
43.97000 159.000
43.98500 166.000
44.00000 169.000
44.01500 185.000
44.03000 179.000
44.04500 174.000
44.06000 187.000
44.07500 186.000
44.09000 167.000
44.10500 173.000
44.12000 171.000
44.13500 206.000
44.15000 181.000
44.16500 161.000
44.18000 183.000
44.19500 176.000
44.21000 188.000
44.22500 181.000
44.24000 185.000
44.25500 170.000
44.27000 200.000
44.28500 180.000
44.30000 168.000
44.31500 183.000
44.33000 190.000
44.34500 182.000
44.36000 168.000
44.37500 166.000
44.39000 181.000
44.40500 174.000
44.42000 178.000
44.43500 172.000
44.45000 169.000
44.46500 161.000
44.48000 159.000
44.49500 189.000
44.51000 183.000
44.52500 176.000
44.54000 173.000
44.55500 174.000
44.57000 193.000
44.58500 168.000
44.60000 184.000
44.61500 166.000
44.63000 173.000
44.64500 187.000
44.66000 205.000
44.67500 180.000
44.69000 171.000
44.70500 158.000
44.72000 160.000
44.73500 186.000
44.75000 173.000
44.76500 181.000
44.78000 172.000
44.79500 165.000
44.81000 179.000
44.82500 167.000
44.84000 160.000
44.85500 177.000
44.87000 184.000
44.88500 175.000
44.90000 191.000
44.91500 161.000
44.93000 155.000
44.94500 193.000
44.96000 165.000
44.97500 163.000
44.99000 169.000
45.00500 184.000
45.02000 174.000
45.03500 168.000
45.05000 160.000
45.06500 179.000
45.08000 175.000
45.09500 168.000
45.11000 176.000
45.12500 167.000
45.14000 175.000
45.15500 187.000
45.17000 186.000
45.18500 193.000
45.20000 156.000
45.21500 160.000
45.23000 155.000
45.24500 155.000
45.26000 180.000
45.27500 168.000
45.29000 173.000
45.30500 173.000
45.32000 178.000
45.33500 150.000
45.35000 183.000
45.36500 164.000
45.38000 186.000
45.39500 186.000
45.41000 161.000
45.42500 166.000
45.44000 185.000
45.45500 169.000
45.47000 181.000
45.48500 166.000
45.50000 173.000
45.51500 163.000
45.53000 165.000
45.54500 173.000
45.56000 151.000
45.57500 158.000
45.59000 177.000
45.60500 164.000
45.62000 169.000
45.63500 173.000
45.65000 176.000
45.66500 198.000
45.68000 170.000
45.69500 167.000
45.71000 158.000
45.72500 168.000
45.74000 159.000
45.75500 169.000
45.77000 180.000
45.78500 189.000
45.80000 157.000
45.81500 162.000
45.83000 164.000
45.84500 156.000
45.86000 164.000
45.87500 176.000
45.89000 184.000
45.90500 163.000
45.92000 160.000
45.93500 172.000
45.95000 183.000
45.96500 185.000
45.98000 170.000
45.99500 155.000
46.01000 182.000
46.02500 165.000
46.04000 173.000
46.05500 174.000
46.07000 157.000
46.08500 180.000
46.10000 170.000
46.11500 186.000
46.13000 177.000
46.14500 172.000
46.16000 155.000
46.17500 184.000
46.19000 182.000
46.20500 153.000
46.22000 170.000
46.23500 172.000
46.25000 164.000
46.26500 194.000
46.28000 182.000
46.29500 163.000
46.31000 163.000
46.32500 170.000
46.34000 163.000
46.35500 167.000
46.37000 155.000
46.38500 154.000
46.40000 171.000
46.41500 154.000
46.43000 163.000
46.44500 161.000
46.46000 163.000
46.47500 155.000
46.49000 156.000
46.50500 178.000
46.52000 165.000
46.53500 168.000
46.55000 160.000
46.56500 154.000
46.58000 163.000
46.59500 183.000
46.61000 166.000
46.62500 167.000
46.64000 164.000
46.65500 160.000
46.67000 150.000
46.68500 162.000
46.70000 168.000
46.71500 177.000
46.73000 169.000
46.74500 169.000
46.76000 177.000
46.77500 177.000
46.79000 159.000
46.80500 135.000
46.82000 150.000
46.83500 149.000
46.85000 169.000
46.86500 157.000
46.88000 143.000
46.89500 164.000
46.91000 167.000
46.92500 146.000
46.94000 172.000
46.95500 146.000
46.97000 155.000
46.98500 145.000
47.00000 163.000
47.01500 167.000
47.03000 140.000
47.04500 148.000
47.06000 158.000
47.07500 170.000
47.09000 173.000
47.10500 157.000
47.12000 181.000
47.13500 171.000
47.15000 150.000
47.16500 156.000
47.18000 167.000
47.19500 164.000
47.21000 162.000
47.22500 182.000
47.24000 160.000
47.25500 149.000
47.27000 166.000
47.28500 153.000
47.30000 156.000
47.31500 168.000
47.33000 161.000
47.34500 145.000
47.36000 143.000
47.37500 177.000
47.39000 185.000
47.40500 180.000
47.42000 171.000
47.43500 156.000
47.45000 155.000
47.46500 166.000
47.48000 156.000
47.49500 165.000
47.51000 177.000
47.52500 175.000
47.54000 168.000
47.55500 158.000
47.57000 164.000
47.58500 161.000
47.60000 152.000
47.61500 147.000
47.63000 152.000
47.64500 150.000
47.66000 166.000
47.67500 157.000
47.69000 159.000
47.70500 175.000
47.72000 160.000
47.73500 171.000
47.75000 136.000
47.76500 164.000
47.78000 170.000
47.79500 174.000
47.81000 193.000
47.82500 167.000
47.84000 135.000
47.85500 158.000
47.87000 161.000
47.88500 154.000
47.90000 147.000
47.91500 169.000
47.93000 167.000
47.94500 151.000
47.96000 140.000
47.97500 154.000
47.99000 153.000
48.00500 157.000
48.02000 148.000
48.03500 150.000
48.05000 152.000
48.06500 155.000
48.08000 147.000
48.09500 155.000
48.11000 169.000
48.12500 152.000
48.14000 161.000
48.15500 169.000
48.17000 141.000
48.18500 163.000
48.20000 149.000
48.21500 163.000
48.23000 169.000
48.24500 168.000
48.26000 158.000
48.27500 142.000
48.29000 144.000
48.30500 167.000
48.32000 158.000
48.33500 139.000
48.35000 156.000
48.36500 157.000
48.38000 155.000
48.39500 162.000
48.41000 162.000
48.42500 172.000
48.44000 145.000
48.45500 155.000
48.47000 160.000
48.48500 153.000
48.50000 156.000
48.51500 153.000
48.53000 174.000
48.54500 173.000
48.56000 162.000
48.57500 158.000
48.59000 155.000
48.60500 158.000
48.62000 153.000
48.63500 167.000
48.65000 154.000
48.66500 149.000
48.68000 148.000
48.69500 142.000
48.71000 131.000
48.72500 150.000
48.74000 165.000
48.75500 159.000
48.77000 144.000
48.78500 153.000
48.80000 157.000
48.81500 163.000
48.83000 159.000
48.84500 141.000
48.86000 141.000
48.87500 151.000
48.89000 145.000
48.90500 137.000
48.92000 142.000
48.93500 163.000
48.95000 155.000
48.96500 143.000
48.98000 157.000
48.99500 183.000
49.01000 162.000
49.02500 154.000
49.04000 150.000
49.05500 150.000
49.07000 146.000
49.08500 138.000
49.10000 148.000
49.11500 143.000
49.13000 163.000
49.14500 140.000
49.16000 150.000
49.17500 160.000
49.19000 158.000
49.20500 147.000
49.22000 160.000
49.23500 162.000
49.25000 156.000
49.26500 157.000
49.28000 145.000
49.29500 160.000
49.31000 169.000
49.32500 152.000
49.34000 131.000
49.35500 155.000
49.37000 158.000
49.38500 147.000
49.40000 156.000
49.41500 147.000
49.43000 155.000
49.44500 157.000
49.46000 147.000
49.47500 147.000
49.49000 145.000
49.50500 151.000
49.52000 158.000
49.53500 154.000
49.55000 141.000
49.56500 137.000
49.58000 139.000
49.59500 141.000
49.61000 137.000
49.62500 149.000
49.64000 142.000
49.65500 132.000
49.67000 139.000
49.68500 153.000
49.70000 137.000
49.71500 143.000
49.73000 159.000
49.74500 150.000
49.76000 164.000
49.77500 138.000
49.79000 148.000
49.80500 170.000
49.82000 184.000
49.83500 158.000
49.85000 143.000
49.86500 151.000
49.88000 153.000
49.89500 157.000
49.91000 149.000
49.92500 148.000
49.94000 139.000
49.95500 135.000
49.97000 157.000
49.98500 146.000
50.00000 147.000
50.01500 150.000
50.03000 131.000
50.04500 138.000
50.06000 143.000
50.07500 166.000
50.09000 148.000
50.10500 142.000
50.12000 128.000
50.13500 135.000
50.15000 138.000
50.16500 155.000
50.18000 172.000
50.19500 167.000
50.21000 137.000
50.22500 152.000
50.24000 157.000
50.25500 149.000
50.27000 141.000
50.28500 122.000
50.30000 140.000
50.31500 139.000
50.33000 150.000
50.34500 155.000
50.36000 140.000
50.37500 126.000
50.39000 146.000
50.40500 157.000
50.42000 149.000
50.43500 160.000
50.45000 134.000
50.46500 146.000
50.48000 137.000
50.49500 156.000
50.51000 150.000
50.52500 158.000
50.54000 125.000
50.55500 161.000
50.57000 149.000
50.58500 141.000
50.60000 150.000
50.61500 130.000
50.63000 153.000
50.64500 148.000
50.66000 146.000
50.67500 144.000
50.69000 132.000
50.70500 130.000
50.72000 149.000
50.73500 136.000
50.75000 127.000
50.76500 144.000
50.78000 140.000
50.79500 155.000
50.81000 148.000
50.82500 161.000
50.84000 152.000
50.85500 144.000
50.87000 126.000
50.88500 142.000
50.90000 146.000
50.91500 139.000
50.93000 147.000
50.94500 134.000
50.96000 138.000
50.97500 141.000
50.99000 143.000
51.00500 143.000
51.02000 136.000
51.03500 149.000
51.05000 132.000
51.06500 143.000
51.08000 130.000
51.09500 136.000
51.11000 137.000
51.12500 137.000
51.14000 140.000
51.15500 149.000
51.17000 162.000
51.18500 142.000
51.20000 155.000
51.21500 148.000
51.23000 141.000
51.24500 141.000
51.26000 142.000
51.27500 170.000
51.29000 145.000
51.30500 147.000
51.32000 143.000
51.33500 137.000
51.35000 153.000
51.36500 152.000
51.38000 137.000
51.39500 140.000
51.41000 130.000
51.42500 137.000
51.44000 135.000
51.45500 131.000
51.47000 133.000
51.48500 135.000
51.50000 147.000
51.51500 140.000
51.53000 142.000
51.54500 118.000
51.56000 153.000
51.57500 139.000
51.59000 132.000
51.60500 127.000
51.62000 138.000
51.63500 158.000
51.65000 141.000
51.66500 133.000
51.68000 140.000
51.69500 136.000
51.71000 145.000
51.72500 146.000
51.74000 127.000
51.75500 154.000
51.77000 152.000
51.78500 155.000
51.80000 135.000
51.81500 131.000
51.83000 161.000
51.84500 146.000
51.86000 134.000
51.87500 132.000
51.89000 138.000
51.90500 142.000
51.92000 143.000
51.93500 138.000
51.95000 144.000
51.96500 126.000
51.98000 144.000
51.99500 145.000
52.01000 143.000
52.02500 134.000
52.04000 122.000
52.05500 137.000
52.07000 144.000
52.08500 145.000
52.10000 151.000
52.11500 137.000
52.13000 129.000
52.14500 145.000
52.16000 146.000
52.17500 133.000
52.19000 131.000
52.20500 138.000
52.22000 140.000
52.23500 122.000
52.25000 122.000
52.26500 123.000
52.28000 136.000
52.29500 133.000
52.31000 138.000
52.32500 141.000
52.34000 124.000
52.35500 129.000
52.37000 141.000
52.38500 147.000
52.40000 139.000
52.41500 145.000
52.43000 125.000
52.44500 130.000
52.46000 141.000
52.47500 142.000
52.49000 133.000
52.50500 139.000
52.52000 138.000
52.53500 149.000
52.55000 148.000
52.56500 132.000
52.58000 146.000
52.59500 136.000
52.61000 139.000
52.62500 144.000
52.64000 141.000
52.65500 140.000
52.67000 138.000
52.68500 104.000
52.70000 122.000
52.71500 134.000
52.73000 132.000
52.74500 151.000
52.76000 146.000
52.77500 143.000
52.79000 141.000
52.80500 129.000
52.82000 143.000
52.83500 149.000
52.85000 129.000
52.86500 126.000
52.88000 125.000
52.89500 122.000
52.91000 144.000
52.92500 139.000
52.94000 130.000
52.95500 139.000
52.97000 126.000
52.98500 136.000
53.00000 139.000
53.01500 142.000
53.03000 143.000
53.04500 131.000
53.06000 153.000
53.07500 127.000
53.09000 136.000
53.10500 137.000
53.12000 119.000
53.13500 153.000
53.15000 135.000
53.16500 131.000
53.18000 140.000
53.19500 149.000
53.21000 150.000
53.22500 150.000
53.24000 134.000
53.25500 132.000
53.27000 149.000
53.28500 149.000
53.30000 145.000
53.31500 146.000
53.33000 117.000
53.34500 133.000
53.36000 139.000
53.37500 114.000
53.39000 123.000
53.40500 141.000
53.42000 148.000
53.43500 129.000
53.45000 132.000
53.46500 144.000
53.48000 145.000
53.49500 148.000
53.51000 139.000
53.52500 122.000
53.54000 129.000
53.55500 141.000
53.57000 142.000
53.58500 127.000
53.60000 132.000
53.61500 145.000
53.63000 125.000
53.64500 133.000
53.66000 131.000
53.67500 127.000
53.69000 139.000
53.70500 140.000
53.72000 127.000
53.73500 141.000
53.75000 129.000
53.76500 125.000
53.78000 139.000
53.79500 137.000
53.81000 154.000
53.82500 136.000
53.84000 134.000
53.85500 145.000
53.87000 130.000
53.88500 131.000
53.90000 132.000
53.91500 120.000
53.93000 126.000
53.94500 133.000
53.96000 130.000
53.97500 145.000
53.99000 138.000
54.00500 133.000
54.02000 132.000
54.03500 141.000
54.05000 149.000
54.06500 138.000
54.08000 129.000
54.09500 141.000
54.11000 146.000
54.12500 121.000
54.14000 135.000
54.15500 146.000
54.17000 135.000
54.18500 122.000
54.20000 133.000
54.21500 136.000
54.23000 131.000
54.24500 123.000
54.26000 131.000
54.27500 134.000
54.29000 145.000
54.30500 141.000
54.32000 131.000
54.33500 135.000
54.35000 128.000
54.36500 123.000
54.38000 137.000
54.39500 132.000
54.41000 128.000
54.42500 117.000
54.44000 126.000
54.45500 146.000
54.47000 128.000
54.48500 125.000
54.50000 121.000
54.51500 116.000
54.53000 132.000
54.54500 129.000
54.56000 127.000
54.57500 118.000
54.59000 124.000
54.60500 131.000
54.62000 137.000
54.63500 157.000
54.65000 127.000
54.66500 138.000
54.68000 142.000
54.69500 127.000
54.71000 145.000
54.72500 140.000
54.74000 124.000
54.75500 123.000
54.77000 128.000
54.78500 135.000
54.80000 119.000
54.81500 127.000
54.83000 129.000
54.84500 119.000
54.86000 110.000
54.87500 137.000
54.89000 129.000
54.90500 130.000
54.92000 124.000
54.93500 134.000
54.95000 126.000
54.96500 152.000
54.98000 127.000
54.99500 110.000
55.01000 128.000
55.02500 133.000
55.04000 148.000
55.05500 120.000
55.07000 114.000
55.08500 122.000
55.10000 134.000
55.11500 121.000
55.13000 128.000
55.14500 138.000
55.16000 119.000
55.17500 126.000
55.19000 121.000
55.20500 126.000
55.22000 122.000
55.23500 126.000
55.25000 117.000
55.26500 138.000
55.28000 131.000
55.29500 131.000
55.31000 141.000
55.32500 145.000
55.34000 145.000
55.35500 140.000
55.37000 113.000
55.38500 113.000
55.40000 130.000
55.41500 130.000
55.43000 126.000
55.44500 138.000
55.46000 122.000
55.47500 128.000
55.49000 126.000
55.50500 144.000
55.52000 133.000
55.53500 132.000
55.55000 133.000
55.56500 127.000
55.58000 138.000
55.59500 132.000
55.61000 133.000
55.62500 123.000
55.64000 119.000
55.65500 127.000
55.67000 124.000
55.68500 125.000
55.70000 123.000
55.71500 130.000
55.73000 151.000
55.74500 138.000
55.76000 123.000
55.77500 126.000
55.79000 131.000
55.80500 140.000
55.82000 120.000
55.83500 117.000
55.85000 120.000
55.86500 118.000
55.88000 126.000
55.89500 120.000
55.91000 121.000
55.92500 135.000
55.94000 139.000
55.95500 133.000
55.97000 137.000
55.98500 137.000
56.00000 125.000
56.01500 129.000
56.03000 134.000
56.04500 126.000
56.06000 118.000
56.07500 127.000
56.09000 122.000
56.10500 139.000
56.12000 127.000
56.13500 145.000
56.15000 138.000
56.16500 148.000
56.18000 124.000
56.19500 138.000
56.21000 140.000
56.22500 141.000
56.24000 122.000
56.25500 124.000
56.27000 111.000
56.28500 129.000
56.30000 130.000
56.31500 124.000
56.33000 127.000
56.34500 130.000
56.36000 124.000
56.37500 130.000
56.39000 145.000
56.40500 140.000
56.42000 135.000
56.43500 120.000
56.45000 124.000
56.46500 128.000
56.48000 132.000
56.49500 145.000
56.51000 115.000
56.52500 120.000
56.54000 130.000
56.55500 126.000
56.57000 116.000
56.58500 123.000
56.60000 137.000
56.61500 143.000
56.63000 146.000
56.64500 124.000
56.66000 139.000
56.67500 125.000
56.69000 130.000
56.70500 142.000
56.72000 138.000
56.73500 138.000
56.75000 153.000
56.76500 138.000
56.78000 121.000
56.79500 139.000
56.81000 122.000
56.82500 113.000
56.84000 120.000
56.85500 136.000
56.87000 132.000
56.88500 136.000
56.90000 118.000
56.91500 112.000
56.93000 107.000
56.94500 125.000
56.96000 128.000
56.97500 115.000
56.99000 132.000
57.00500 128.000
57.02000 126.000
57.03500 130.000
57.05000 124.000
57.06500 109.000
57.08000 119.000
57.09500 125.000
57.11000 124.000
57.12500 120.000
57.14000 128.000
57.15500 134.000
57.17000 128.000
57.18500 129.000
57.20000 138.000
57.21500 123.000
57.23000 125.000
57.24500 126.000
57.26000 134.000
57.27500 145.000
57.29000 139.000
57.30500 130.000
57.32000 133.000
57.33500 124.000
57.35000 119.000
57.36500 137.000
57.38000 135.000
57.39500 130.000
57.41000 124.000
57.42500 120.000
57.44000 130.000
57.45500 131.000
57.47000 139.000
57.48500 128.000
57.50000 113.000
57.51500 129.000
57.53000 129.000
57.54500 118.000
57.56000 139.000
57.57500 136.000
57.59000 126.000
57.60500 124.000
57.62000 130.000
57.63500 128.000
57.65000 126.000
57.66500 125.000
57.68000 118.000
57.69500 126.000
57.71000 138.000
57.72500 128.000
57.74000 123.000
57.75500 137.000
57.77000 116.000
57.78500 118.000
57.80000 132.000
57.81500 133.000
57.83000 128.000
57.84500 135.000
57.86000 117.000
57.87500 106.000
57.89000 132.000
57.90500 128.000
57.92000 136.000
57.93500 137.000
57.95000 138.000
57.96500 115.000
57.98000 125.000
57.99500 136.000
58.01000 132.000
58.02500 119.000
58.04000 115.000
58.05500 107.000
58.07000 127.000
58.08500 144.000
58.10000 129.000
58.11500 127.000
58.13000 120.000
58.14500 114.000
58.16000 148.000
58.17500 139.000
58.19000 130.000
58.20500 111.000
58.22000 123.000
58.23500 128.000
58.25000 120.000
58.26500 116.000
58.28000 123.000
58.29500 122.000
58.31000 124.000
58.32500 117.000
58.34000 128.000
58.35500 129.000
58.37000 125.000
58.38500 120.000
58.40000 116.000
58.41500 120.000
58.43000 116.000
58.44500 125.000
58.46000 117.000
58.47500 128.000
58.49000 120.000
58.50500 117.000
58.52000 118.000
58.53500 142.000
58.55000 137.000
58.56500 128.000
58.58000 125.000
58.59500 138.000
58.61000 134.000
58.62500 137.000
58.64000 116.000
58.65500 112.000
58.67000 117.000
58.68500 123.000
58.70000 136.000
58.71500 131.000
58.73000 146.000
58.74500 113.000
58.76000 117.000
58.77500 131.000
58.79000 127.000
58.80500 118.000
58.82000 126.000
58.83500 141.000
58.85000 152.000
58.86500 123.000
58.88000 122.000
58.89500 115.000
58.91000 133.000
58.92500 127.000
58.94000 122.000
58.95500 120.000
58.97000 130.000
58.98500 116.000
59.00000 127.000
59.01500 124.000
59.03000 133.000
59.04500 124.000
59.06000 112.000
59.07500 124.000
59.09000 125.000
59.10500 132.000
59.12000 124.000
59.13500 133.000
59.15000 122.000
59.16500 137.000
59.18000 119.000
59.19500 114.000
59.21000 121.000
59.22500 133.000
59.24000 134.000
59.25500 111.000
59.27000 117.000
59.28500 119.000
59.30000 118.000
59.31500 125.000
59.33000 125.000
59.34500 128.000
59.36000 128.000
59.37500 126.000
59.39000 133.000
59.40500 135.000
59.42000 121.000
59.43500 123.000
59.45000 129.000
59.46500 127.000
59.48000 123.000
59.49500 125.000
59.51000 123.000
59.52500 112.000
59.54000 116.000
59.55500 106.000
59.57000 121.000
59.58500 124.000
59.60000 116.000
59.61500 125.000
59.63000 132.000
59.64500 124.000
59.66000 119.000
59.67500 111.000
59.69000 111.000
59.70500 119.000
59.72000 118.000
59.73500 106.000
59.75000 103.000
59.76500 111.000
59.78000 147.000
59.79500 123.000
59.81000 122.000
59.82500 121.000
59.84000 130.000
59.85500 120.000
59.87000 141.000
59.88500 116.000
59.90000 109.000
59.91500 98.000
59.93000 115.000
59.94500 106.000
59.96000 136.000
59.97500 122.000
59.99000 104.000
60.00500 121.000
60.02000 125.000
60.03500 139.000
60.05000 130.000
60.06500 107.000
60.08000 113.000
60.09500 131.000
60.11000 124.000
60.12500 120.000
60.14000 115.000
60.15500 114.000
60.17000 111.000
60.18500 140.000
60.20000 140.000
60.21500 136.000
60.23000 127.000
60.24500 119.000
60.26000 107.000
60.27500 121.000
60.29000 127.000
60.30500 123.000
60.32000 99.000
60.33500 124.000
60.35000 127.000
60.36500 122.000
60.38000 144.000
60.39500 132.000
60.41000 116.000
60.42500 115.000
60.44000 134.000
60.45500 134.000
60.47000 116.000
60.48500 108.000
60.50000 122.000
60.51500 119.000
60.53000 121.000
60.54500 119.000
60.56000 123.000
60.57500 118.000
60.59000 115.000
60.60500 105.000
60.62000 129.000
60.63500 114.000
60.65000 113.000
60.66500 122.000
60.68000 109.000
60.69500 135.000
60.71000 128.000
60.72500 141.000
60.74000 137.000
60.75500 130.000
60.77000 122.000
60.78500 115.000
60.80000 126.000
60.81500 135.000
60.83000 121.000
60.84500 116.000
60.86000 131.000
60.87500 125.000
60.89000 136.000
60.90500 111.000
60.92000 108.000
60.93500 120.000
60.95000 120.000
60.96500 106.000
60.98000 118.000
60.99500 122.000
61.01000 122.000
61.02500 119.000
61.04000 103.000
61.05500 116.000
61.07000 118.000
61.08500 120.000
61.10000 118.000
61.11500 116.000
61.13000 138.000
61.14500 113.000
61.16000 106.000
61.17500 101.000
61.19000 114.000
61.20500 110.000
61.22000 117.000
61.23500 127.000
61.25000 116.000
61.26500 113.000
61.28000 124.000
61.29500 122.000
61.31000 134.000
61.32500 118.000
61.34000 114.000
61.35500 110.000
61.37000 121.000
61.38500 112.000
61.40000 107.000
61.41500 106.000
61.43000 121.000
61.44500 121.000
61.46000 117.000
61.47500 119.000
61.49000 92.000
61.50500 110.000
61.52000 120.000
61.53500 117.000
61.55000 106.000
61.56500 125.000
61.58000 143.000
61.59500 131.000
61.61000 137.000
61.62500 121.000
61.64000 124.000
61.65500 121.000
61.67000 120.000
61.68500 119.000
61.70000 116.000
61.71500 114.000
61.73000 96.000
61.74500 118.000
61.76000 105.000
61.77500 116.000
61.79000 104.000
61.80500 133.000
61.82000 133.000
61.83500 127.000
61.85000 117.000
61.86500 111.000
61.88000 123.000
61.89500 129.000
61.91000 115.000
61.92500 109.000
61.94000 116.000
61.95500 121.000
61.97000 118.000
61.98500 126.000
