2.00000 2.000
2.01500 4.000
2.03000 6.000
2.04500 1.000
2.06000 1.000
2.07500 5.000
2.09000 3.000
2.10500 4.000
2.12000 3.000
2.13500 4.000
2.15000 9.000
2.16500 8.000
2.18000 6.000
2.19500 4.000
2.21000 3.000
2.22500 4.000
2.24000 2.000
2.25500 5.000
2.27000 6.000
2.28500 4.000
2.30000 5.000
2.31500 5.000
2.33000 4.000
2.34500 2.000
2.36000 2.000
2.37500 4.000
2.39000 7.000
2.40500 9.000
2.42000 3.000
2.43500 1.000
2.45000 4.000
2.46500 5.000
2.48000 4.000
2.49500 7.000
2.51000 3.000
2.52500 3.000
2.54000 5.000
2.55500 3.000
2.57000 3.000
2.58500 4.000
2.60000 3.000
2.61500 3.000
2.63000 6.000
2.64500 6.000
2.66000 2.000
2.67500 3.000
2.69000 5.000
2.70500 4.000
2.72000 3.000
2.73500 2.000
2.75000 2.000
2.76500 2.000
2.78000 4.000
2.79500 4.000
2.81000 4.000
2.82500 5.000
2.84000 3.000
2.85500 5.000
2.87000 9.000
2.88500 22.000
2.90000 22.000
2.91500 51.000
2.93000 78.000
2.94500 103.000
2.96000 134.000
2.97500 177.000
2.99000 226.000
3.00500 242.000
3.02000 351.000
3.03500 373.000
3.05000 381.000
3.06500 405.000
3.08000 414.000
3.09500 457.000
3.11000 449.000
3.12500 432.000
3.14000 430.000
3.15500 438.000
3.17000 398.000
3.18500 382.000
3.20000 390.000
3.21500 423.000
3.23000 442.000
3.24500 421.000
3.26000 387.000
3.27500 374.000
3.29000 363.000
3.30500 398.000
3.32000 387.000
3.33500 392.000
3.35000 381.000
3.36500 373.000
3.38000 391.000
3.39500 396.000
3.41000 378.000
3.42500 376.000
3.44000 364.000
3.45500 359.000
3.47000 405.000
3.48500 380.000
3.50000 384.000
3.51500 370.000
3.53000 366.000
3.54500 403.000
3.56000 364.000
3.57500 344.000
3.59000 378.000
3.60500 376.000
3.62000 385.000
3.63500 363.000
3.65000 376.000
3.66500 362.000
3.68000 351.000
3.69500 388.000
3.71000 376.000
3.72500 380.000
3.74000 372.000
3.75500 386.000
3.77000 373.000
3.78500 359.000
3.80000 361.000
3.81500 363.000
3.83000 353.000
3.84500 333.000
3.86000 338.000
3.87500 349.000
3.89000 375.000
3.90500 349.000
3.92000 370.000
3.93500 369.000
3.95000 356.000
3.96500 342.000
3.98000 355.000
3.99500 360.000
4.01000 359.000
4.02500 346.000
4.04000 364.000
4.05500 368.000
4.07000 353.000
4.08500 359.000
4.10000 351.000
4.11500 352.000
4.13000 332.000
4.14500 326.000
4.16000 338.000
4.17500 365.000
4.19000 370.000
4.20500 371.000
4.22000 359.000
4.23500 359.000
4.25000 346.000
4.26500 342.000
4.28000 344.000
4.29500 348.000
4.31000 361.000
4.32500 347.000
4.34000 340.000
4.35500 351.000
4.37000 369.000
4.38500 381.000
4.40000 361.000
4.41500 350.000
4.43000 367.000
4.44500 363.000
4.46000 361.000
4.47500 354.000
4.49000 330.000
4.50500 344.000
4.52000 354.000
4.53500 356.000
4.55000 351.000
4.56500 363.000
4.58000 369.000
4.59500 367.000
4.61000 366.000
4.62500 362.000
4.64000 346.000
4.65500 348.000
4.67000 363.000
4.68500 355.000
4.70000 381.000
4.71500 368.000
4.73000 345.000
4.74500 332.000
4.76000 385.000
4.77500 356.000
4.79000 360.000
4.80500 344.000
4.82000 373.000
4.83500 388.000
4.85000 364.000
4.86500 349.000
4.88000 361.000
4.89500 358.000
4.91000 371.000
4.92500 369.000
4.94000 392.000
4.95500 370.000
4.97000 372.000
4.98500 358.000
5.00000 394.000
5.01500 380.000
5.03000 397.000
5.04500 390.000
5.06000 379.000
5.07500 361.000
5.09000 375.000
5.10500 387.000
5.12000 381.000
5.13500 350.000
5.15000 372.000
5.16500 350.000
5.18000 354.000
5.19500 370.000
5.21000 396.000
5.22500 387.000
5.24000 370.000
5.25500 369.000
5.27000 368.000
5.28500 386.000
5.30000 370.000
5.31500 363.000
5.33000 361.000
5.34500 402.000
5.36000 385.000
5.37500 368.000
5.39000 388.000
5.40500 386.000
5.42000 422.000
5.43500 385.000
5.45000 409.000
5.46500 385.000
5.48000 387.000
5.49500 362.000
5.51000 376.000
5.52500 376.000
5.54000 393.000
5.55500 398.000
5.57000 373.000
5.58500 395.000
5.60000 389.000
5.61500 381.000
5.63000 402.000
5.64500 375.000
5.66000 379.000
5.67500 385.000
5.69000 397.000
5.70500 372.000
5.72000 354.000
5.73500 414.000
5.75000 390.000
5.76500 389.000
5.78000 383.000
5.79500 379.000
5.81000 379.000
5.82500 346.000
5.84000 378.000
5.85500 409.000
5.87000 408.000
5.88500 400.000
5.90000 401.000
5.91500 384.000
5.93000 377.000
5.94500 349.000
5.96000 353.000
5.97500 381.000
5.99000 397.000
6.00500 425.000
6.02000 418.000
6.03500 393.000
6.05000 369.000
6.06500 375.000
6.08000 398.000
6.09500 426.000
6.11000 406.000
6.12500 413.000
6.14000 382.000
6.15500 414.000
6.17000 392.000
6.18500 408.000
6.20000 404.000
6.21500 403.000
6.23000 392.000
6.24500 420.000
6.26000 428.000
6.27500 397.000
6.29000 398.000
6.30500 403.000
6.32000 411.000
6.33500 404.000
6.35000 391.000
6.36500 426.000
6.38000 420.000
6.39500 412.000
6.41000 412.000
6.42500 433.000
6.44000 431.000
6.45500 413.000
6.47000 419.000
6.48500 431.000
6.50000 426.000
6.51500 446.000
6.53000 457.000
6.54500 428.000
6.56000 456.000
6.57500 430.000
6.59000 428.000
6.60500 410.000
6.62000 410.000
6.63500 407.000
6.65000 413.000
6.66500 389.000
6.68000 388.000
6.69500 402.000
6.71000 417.000
6.72500 416.000
6.74000 397.000
6.75500 407.000
6.77000 399.000
6.78500 396.000
6.80000 378.000
6.81500 409.000
6.83000 397.000
6.84500 391.000
6.86000 379.000
6.87500 376.000
6.89000 384.000
6.90500 420.000
6.92000 399.000
6.93500 403.000
6.95000 404.000
6.96500 384.000
6.98000 385.000
6.99500 430.000
7.01000 395.000
7.02500 386.000
7.04000 413.000
7.05500 412.000
7.07000 399.000
7.08500 396.000
7.10000 398.000
7.11500 412.000
7.13000 422.000
7.14500 427.000
7.16000 401.000
7.17500 390.000
7.19000 409.000
7.20500 379.000
7.22000 371.000
7.23500 390.000
7.25000 411.000
7.26500 427.000
7.28000 375.000
7.29500 381.000
7.31000 420.000
7.32500 420.000
7.34000 404.000
7.35500 406.000
7.37000 403.000
7.38500 409.000
7.40000 434.000
7.41500 400.000
7.43000 381.000
7.44500 415.000
7.46000 425.000
7.47500 429.000
7.49000 409.000
7.50500 405.000
7.52000 391.000
7.53500 394.000
7.55000 382.000
7.56500 393.000
7.58000 422.000
7.59500 408.000
7.61000 391.000
7.62500 390.000
7.64000 407.000
7.65500 433.000
7.67000 435.000
7.68500 425.000
7.70000 385.000
7.71500 389.000
7.73000 401.000
7.74500 401.000
7.76000 403.000
7.77500 435.000
7.79000 431.000
7.80500 425.000
7.82000 419.000
7.83500 392.000
7.85000 390.000
7.86500 417.000
7.88000 391.000
7.89500 377.000
7.91000 390.000
7.92500 410.000
7.94000 424.000
7.95500 419.000
7.97000 361.000
7.98500 383.000
8.00000 421.000
8.01500 424.000
8.03000 386.000
8.04500 410.000
8.06000 401.000
8.07500 386.000
8.09000 394.000
8.10500 398.000
8.12000 414.000
8.13500 440.000
8.15000 434.000
8.16500 412.000
8.18000 437.000
8.19500 428.000
8.21000 394.000
8.22500 426.000
8.24000 406.000
8.25500 393.000
8.27000 398.000
8.28500 401.000
8.30000 383.000
8.31500 394.000
8.33000 390.000
8.34500 394.000
8.36000 410.000
8.37500 395.000
8.39000 412.000
8.40500 412.000
8.42000 420.000
8.43500 421.000
8.45000 403.000
8.46500 433.000
8.48000 415.000
8.49500 415.000
8.51000 418.000
8.52500 422.000
8.54000 399.000
8.55500 413.000
8.57000 399.000
8.58500 423.000
8.60000 414.000
8.61500 405.000
8.63000 422.000
8.64500 444.000
8.66000 454.000
8.67500 413.000
8.69000 418.000
8.70500 421.000
8.72000 411.000
8.73500 410.000
8.75000 392.000
8.76500 404.000
8.78000 406.000
8.79500 399.000
8.81000 412.000
8.82500 399.000
8.84000 435.000
8.85500 417.000
8.87000 404.000
8.88500 409.000
8.90000 443.000
8.91500 428.000
8.93000 388.000
8.94500 428.000
8.96000 419.000
8.97500 394.000
8.99000 408.000
9.00500 426.000
9.02000 445.000
9.03500 420.000
9.05000 395.000
9.06500 428.000
9.08000 431.000
9.09500 416.000
9.11000 418.000
9.12500 429.000
9.14000 398.000
9.15500 404.000
9.17000 427.000
9.18500 412.000
9.20000 423.000
9.21500 457.000
9.23000 399.000
9.24500 388.000
9.26000 433.000
9.27500 441.000
9.29000 423.000
9.30500 429.000
9.32000 426.000
9.33500 435.000
9.35000 449.000
9.36500 466.000
9.38000 422.000
9.39500 397.000
9.41000 411.000
9.42500 390.000
9.44000 432.000
9.45500 401.000
9.47000 415.000
9.48500 427.000
9.50000 428.000
9.51500 429.000
9.53000 433.000
9.54500 409.000
9.56000 426.000
9.57500 459.000
9.59000 418.000
9.60500 436.000
9.62000 421.000
9.63500 414.000
9.65000 409.000
9.66500 417.000
9.68000 426.000
9.69500 431.000
9.71000 424.000
9.72500 425.000
9.74000 424.000
9.75500 429.000
9.77000 444.000
9.78500 449.000
9.80000 458.000
9.81500 464.000
9.83000 434.000
9.84500 442.000
9.86000 437.000
9.87500 448.000
9.89000 437.000
9.90500 414.000
9.92000 460.000
9.93500 465.000
9.95000 448.000
9.96500 429.000
9.98000 441.000
9.99500 458.000
10.01000 439.000
10.02500 467.000
10.04000 487.000
10.05500 486.000
10.07000 483.000
10.08500 466.000
10.10000 491.000
10.11500 459.000
10.13000 488.000
10.14500 527.000
10.16000 511.000
10.17500 565.000
10.19000 565.000
10.20500 572.000
10.22000 554.000
10.23500 578.000
10.25000 621.000
10.26500 618.000
10.28000 612.000
10.29500 617.000
10.31000 601.000
10.32500 592.000
10.34000 556.000
10.35500 529.000
10.37000 530.000
10.38500 534.000
10.40000 503.000
10.41500 511.000
10.43000 530.000
10.44500 490.000
10.46000 494.000
10.47500 503.000
10.49000 490.000
10.50500 460.000
10.52000 495.000
10.53500 507.000
10.55000 495.000
10.56500 535.000
10.58000 532.000
10.59500 553.000
10.61000 515.000
10.62500 552.000
10.64000 517.000
10.65500 513.000
10.67000 540.000
10.68500 511.000
10.70000 515.000
10.71500 534.000
10.73000 502.000
10.74500 513.000
10.76000 515.000
10.77500 514.000
10.79000 515.000
10.80500 544.000
10.82000 565.000
10.83500 537.000
10.85000 556.000
10.86500 547.000
10.88000 548.000
10.89500 518.000
10.91000 569.000
10.92500 615.000
10.94000 586.000
10.95500 607.000
10.97000 587.000
10.98500 583.000
11.00000 611.000
11.01500 581.000
11.03000 567.000
11.04500 549.000
11.06000 545.000
11.07500 526.000
11.09000 540.000
11.10500 502.000
11.12000 511.000
11.13500 489.000
11.15000 512.000
11.16500 505.000
11.18000 499.000
11.19500 503.000
11.21000 497.000
11.22500 488.000
11.24000 493.000
11.25500 473.000
11.27000 451.000
11.28500 486.000
11.30000 511.000
11.31500 474.000
11.33000 470.000
11.34500 499.000
11.36000 481.000
11.37500 454.000
11.39000 477.000
11.40500 490.000
11.42000 447.000
11.43500 438.000
11.45000 435.000
11.46500 464.000
11.48000 473.000
11.49500 434.000
11.51000 459.000
11.52500 506.000
11.54000 469.000
11.55500 495.000
11.57000 489.000
11.58500 504.000
11.60000 496.000
11.61500 486.000
11.63000 479.000
11.64500 465.000
11.66000 478.000
11.67500 458.000
11.69000 498.000
11.70500 488.000
11.72000 506.000
11.73500 574.000
11.75000 543.000
11.76500 518.000
11.78000 523.000
11.79500 545.000
11.81000 574.000
11.82500 601.000
11.84000 644.000
11.85500 695.000
11.87000 713.000
11.88500 769.000
11.90000 822.000
11.91500 893.000
11.93000 1023.000
11.94500 1122.000
11.96000 1178.000
11.97500 1383.000
11.99000 1556.000
12.00500 1767.000
12.02000 2072.000
12.03500 2478.000
12.05000 2775.000
12.06500 3006.000
12.08000 2857.000
12.09500 2508.000
12.11000 2010.000
12.12500 1434.000
12.14000 1169.000
12.15500 989.000
12.17000 861.000
12.18500 720.000
12.20000 666.000
12.21500 664.000
12.23000 601.000
12.24500 565.000
12.26000 515.000
12.27500 520.000
12.29000 493.000
12.30500 513.000
12.32000 509.000
12.33500 514.000
12.35000 501.000
12.36500 485.000
12.38000 474.000
12.39500 474.000
12.41000 496.000
12.42500 470.000
12.44000 448.000
12.45500 452.000
12.47000 469.000
12.48500 479.000
12.50000 491.000
12.51500 470.000
12.53000 500.000
12.54500 475.000
12.56000 495.000
12.57500 463.000
12.59000 463.000
12.60500 470.000
12.62000 455.000
12.63500 475.000
12.65000 479.000
12.66500 464.000
12.68000 458.000
12.69500 438.000
12.71000 475.000
12.72500 476.000
12.74000 438.000
12.75500 418.000
12.77000 444.000
12.78500 430.000
12.80000 442.000
12.81500 428.000
12.83000 431.000
12.84500 440.000
12.86000 447.000
12.87500 449.000
12.89000 448.000
12.90500 429.000
12.92000 446.000
12.93500 468.000
12.95000 431.000
12.96500 421.000
12.98000 434.000
12.99500 441.000
13.01000 407.000
13.02500 411.000
13.04000 412.000
13.05500 423.000
13.07000 435.000
13.08500 465.000
13.10000 432.000
13.11500 470.000
13.13000 436.000
13.14500 435.000
13.16000 460.000
13.17500 423.000
13.19000 423.000
13.20500 425.000
13.22000 437.000
13.23500 432.000
13.25000 401.000
13.26500 406.000
13.28000 433.000
13.29500 447.000
13.31000 459.000
13.32500 430.000
13.34000 411.000
13.35500 423.000
13.37000 420.000
13.38500 418.000
13.40000 409.000
13.41500 404.000
13.43000 400.000
13.44500 403.000
13.46000 431.000
13.47500 445.000
13.49000 454.000
13.50500 440.000
13.52000 423.000
13.53500 416.000
13.55000 422.000
13.56500 439.000
13.58000 433.000
13.59500 425.000
13.61000 465.000
13.62500 460.000
13.64000 423.000
13.65500 431.000
13.67000 434.000
13.68500 405.000
13.70000 424.000
13.71500 437.000
13.73000 434.000
13.74500 432.000
13.76000 424.000
13.77500 400.000
13.79000 401.000
13.80500 403.000
13.82000 439.000
13.83500 436.000
13.85000 407.000
13.86500 448.000
13.88000 423.000
13.89500 419.000
13.91000 420.000
13.92500 393.000
13.94000 389.000
13.95500 437.000
13.97000 430.000
13.98500 438.000
14.00000 469.000
14.01500 414.000
14.03000 415.000
14.04500 447.000
14.06000 446.000
14.07500 432.000
14.09000 434.000
14.10500 456.000
14.12000 423.000
14.13500 431.000
14.15000 428.000
14.16500 420.000
14.18000 443.000
14.19500 427.000
14.21000 431.000
14.22500 428.000
14.24000 430.000
14.25500 407.000
14.27000 435.000
14.28500 439.000
14.30000 442.000
14.31500 396.000
14.33000 428.000
14.34500 458.000
14.36000 438.000
14.37500 422.000
14.39000 447.000
14.40500 442.000
14.42000 438.000
14.43500 426.000
14.45000 440.000
14.46500 455.000
14.48000 425.000
14.49500 444.000
14.51000 430.000
14.52500 413.000
14.54000 434.000
14.55500 428.000
14.57000 455.000
14.58500 466.000
14.60000 421.000
14.61500 404.000
14.63000 409.000
14.64500 433.000
14.66000 468.000
14.67500 427.000
14.69000 412.000
14.70500 425.000
14.72000 469.000
14.73500 439.000
14.75000 454.000
14.76500 436.000
14.78000 428.000
14.79500 440.000
14.81000 461.000
14.82500 430.000
14.84000 433.000
14.85500 452.000
14.87000 422.000
14.88500 466.000
14.90000 436.000
14.91500 416.000
14.93000 446.000
14.94500 430.000
14.96000 447.000
14.97500 430.000
14.99000 423.000
15.00500 408.000
15.02000 414.000
15.03500 433.000
15.05000 422.000
15.06500 427.000
15.08000 440.000
15.09500 449.000
15.11000 441.000
15.12500 432.000
15.14000 433.000
15.15500 457.000
15.17000 442.000
15.18500 453.000
15.20000 473.000
15.21500 458.000
15.23000 451.000
15.24500 453.000
15.26000 474.000
15.27500 462.000
15.29000 423.000
15.30500 456.000
15.32000 456.000
15.33500 456.000
15.35000 434.000
15.36500 447.000
15.38000 458.000
15.39500 458.000
15.41000 458.000
15.42500 440.000
15.44000 444.000
15.45500 450.000
15.47000 472.000
15.48500 463.000
15.50000 449.000
15.51500 445.000
15.53000 447.000
15.54500 458.000
15.56000 438.000
15.57500 421.000
15.59000 437.000
15.60500 410.000
15.62000 427.000
15.63500 450.000
15.65000 441.000
15.66500 448.000
15.68000 413.000
15.69500 449.000
15.71000 449.000
15.72500 456.000
15.74000 425.000
15.75500 445.000
15.77000 453.000
15.78500 438.000
15.80000 422.000
15.81500 427.000
15.83000 452.000
15.84500 447.000
15.86000 440.000
15.87500 447.000
15.89000 432.000
15.90500 425.000
15.92000 437.000
15.93500 428.000
15.95000 461.000
15.96500 435.000
15.98000 428.000
15.99500 429.000
16.01000 424.000
16.02500 454.000
16.04000 444.000
16.05500 407.000
16.07000 416.000
16.08500 426.000
16.10000 410.000
16.11500 432.000
16.13000 434.000
16.14500 438.000
16.16000 398.000
16.17500 423.000
16.19000 421.000
16.20500 441.000
16.22000 447.000
16.23500 455.000
16.25000 464.000
16.26500 463.000
16.28000 435.000
16.29500 458.000
16.31000 413.000
16.32500 450.000
16.34000 454.000
16.35500 456.000
16.37000 426.000
16.38500 477.000
16.40000 456.000
16.41500 459.000
16.43000 455.000
16.44500 457.000
16.46000 429.000
16.47500 435.000
16.49000 451.000
16.50500 435.000
16.52000 435.000
16.53500 426.000
16.55000 411.000
16.56500 467.000
16.58000 448.000
16.59500 454.000
16.61000 447.000
16.62500 455.000
16.64000 413.000
16.65500 438.000
16.67000 448.000
16.68500 436.000
16.70000 439.000
16.71500 451.000
16.73000 463.000
16.74500 436.000
16.76000 476.000
16.77500 457.000
16.79000 430.000
16.80500 425.000
16.82000 411.000
16.83500 432.000
16.85000 431.000
16.86500 430.000
16.88000 459.000
16.89500 462.000
16.91000 470.000
16.92500 449.000
16.94000 457.000
16.95500 462.000
16.97000 451.000
16.98500 450.000
17.00000 442.000
17.01500 434.000
17.03000 465.000
17.04500 466.000
17.06000 473.000
17.07500 462.000
17.09000 471.000
17.10500 459.000
17.12000 461.000
17.13500 480.000
17.15000 511.000
17.16500 493.000
17.18000 468.000
17.19500 478.000
17.21000 484.000
17.22500 499.000
17.24000 463.000
17.25500 457.000
17.27000 462.000
17.28500 455.000
17.30000 445.000
17.31500 439.000
17.33000 455.000
17.34500 474.000
17.36000 457.000
17.37500 429.000
17.39000 457.000
17.40500 471.000
17.42000 456.000
17.43500 422.000
17.45000 419.000
17.46500 436.000
17.48000 450.000
17.49500 477.000
17.51000 439.000
17.52500 430.000
17.54000 415.000
17.55500 440.000
17.57000 436.000
17.58500 435.000
17.60000 411.000
17.61500 437.000
17.63000 426.000
17.64500 431.000
17.66000 424.000
17.67500 452.000
17.69000 423.000
17.70500 446.000
17.72000 441.000
17.73500 426.000
17.75000 457.000
17.76500 420.000
17.78000 418.000
17.79500 427.000
17.81000 452.000
17.82500 436.000
17.84000 437.000
17.85500 448.000
17.87000 428.000
17.88500 429.000
17.90000 430.000
17.91500 435.000
17.93000 415.000
17.94500 392.000
17.96000 443.000
17.97500 454.000
17.99000 452.000
18.00500 435.000
18.02000 445.000
18.03500 446.000
18.05000 427.000
18.06500 422.000
18.08000 417.000
18.09500 445.000
18.11000 446.000
18.12500 428.000
18.14000 460.000
18.15500 465.000
18.17000 432.000
18.18500 466.000
18.20000 453.000
18.21500 440.000
18.23000 442.000
18.24500 447.000
18.26000 440.000
18.27500 435.000
18.29000 401.000
18.30500 452.000
18.32000 430.000
18.33500 430.000
18.35000 446.000
18.36500 441.000
18.38000 449.000
18.39500 438.000
18.41000 416.000
18.42500 418.000
18.44000 438.000
18.45500 457.000
18.47000 466.000
18.48500 457.000
18.50000 440.000
18.51500 491.000
18.53000 461.000
18.54500 460.000
18.56000 468.000
18.57500 438.000
18.59000 450.000
18.60500 446.000
18.62000 440.000
18.63500 460.000
18.65000 486.000
18.66500 448.000
18.68000 440.000
18.69500 471.000
18.71000 436.000
18.72500 449.000
18.74000 491.000
18.75500 437.000
18.77000 416.000
18.78500 459.000
18.80000 473.000
18.81500 457.000
18.83000 432.000
18.84500 423.000
18.86000 453.000
18.87500 433.000
18.89000 414.000
18.90500 433.000
18.92000 452.000
18.93500 458.000
18.95000 431.000
18.96500 423.000
18.98000 435.000
18.99500 466.000
19.01000 448.000
19.02500 433.000
19.04000 450.000
19.05500 436.000
19.07000 392.000
19.08500 439.000
19.10000 463.000
19.11500 458.000
19.13000 446.000
19.14500 451.000
19.16000 455.000
19.17500 443.000
19.19000 471.000
19.20500 452.000
19.22000 456.000
19.23500 418.000
19.25000 406.000
19.26500 456.000
19.28000 443.000
19.29500 450.000
19.31000 448.000
19.32500 458.000
19.34000 472.000
19.35500 464.000
19.37000 464.000
19.38500 451.000
19.40000 459.000
19.41500 447.000
19.43000 455.000
19.44500 422.000
19.46000 467.000
19.47500 467.000
19.49000 442.000
19.50500 444.000
19.52000 444.000
19.53500 432.000
19.55000 432.000
19.56500 439.000
19.58000 458.000
19.59500 458.000
19.61000 466.000
19.62500 502.000
19.64000 453.000
19.65500 435.000
19.67000 454.000
19.68500 460.000
19.70000 446.000
19.71500 454.000
19.73000 431.000
19.74500 436.000
19.76000 439.000
19.77500 470.000
19.79000 454.000
19.80500 459.000
19.82000 474.000
19.83500 474.000
19.85000 491.000
19.86500 457.000
19.88000 461.000
19.89500 450.000
19.91000 415.000
19.92500 454.000
19.94000 467.000
19.95500 427.000
19.97000 436.000
19.98500 468.000
20.00000 486.000
20.01500 485.000
20.03000 459.000
20.04500 444.000
20.06000 461.000
20.07500 469.000
20.09000 470.000
20.10500 476.000
20.12000 455.000
20.13500 448.000
20.15000 459.000
20.16500 448.000
20.18000 456.000
20.19500 460.000
20.21000 469.000
20.22500 501.000
20.24000 474.000
20.25500 486.000
20.27000 492.000
20.28500 475.000
20.30000 460.000
20.31500 503.000
20.33000 483.000
20.34500 476.000
20.36000 492.000
20.37500 483.000
20.39000 500.000
20.40500 495.000
20.42000 513.000
20.43500 510.000
20.45000 479.000
20.46500 486.000
20.48000 495.000
20.49500 481.000
20.51000 491.000
20.52500 496.000
20.54000 474.000
20.55500 510.000
20.57000 530.000
20.58500 579.000
20.60000 561.000
20.61500 547.000
20.63000 544.000
20.64500 529.000
20.66000 562.000
20.67500 560.000
20.69000 590.000
20.70500 597.000
20.72000 602.000
20.73500 648.000
20.75000 681.000
20.76500 690.000
20.78000 696.000
20.79500 839.000
20.81000 812.000
20.82500 950.000
20.84000 1068.000
20.85500 1165.000
20.87000 1393.000
20.88500 1655.000
20.90000 1950.000
20.91500 2347.000
20.93000 2923.000
20.94500 3482.000
20.96000 4273.000
20.97500 4828.000
20.99000 5166.000
21.00500 4737.000
21.02000 3973.000
21.03500 3172.000
21.05000 2333.000
21.06500 1834.000
21.08000 1457.000
21.09500 1181.000
21.11000 1033.000
21.12500 895.000
21.14000 780.000
21.15500 717.000
21.17000 677.000
21.18500 636.000
21.20000 595.000
21.21500 570.000
21.23000 593.000
21.24500 587.000
21.26000 557.000
21.27500 532.000
21.29000 503.000
21.30500 531.000
21.32000 537.000
21.33500 516.000
21.35000 508.000
21.36500 496.000
21.38000 526.000
21.39500 515.000
21.41000 505.000
21.42500 510.000
21.44000 513.000
21.45500 531.000
21.47000 541.000
21.48500 516.000
21.50000 497.000
21.51500 508.000
21.53000 537.000
21.54500 534.000
21.56000 494.000
21.57500 491.000
21.59000 497.000
21.60500 489.000
21.62000 476.000
21.63500 493.000
21.65000 521.000
21.66500 536.000
21.68000 497.000
21.69500 474.000
21.71000 519.000
21.72500 513.000
21.74000 520.000
21.75500 493.000
21.77000 474.000
21.78500 480.000
21.80000 478.000
21.81500 486.000
21.83000 491.000
21.84500 493.000
21.86000 481.000
21.87500 472.000
21.89000 518.000
21.90500 516.000
21.92000 464.000
21.93500 447.000
21.95000 479.000
21.96500 468.000
21.98000 519.000
21.99500 506.000
22.01000 520.000
22.02500 506.000
22.04000 520.000
22.05500 488.000
22.07000 502.000
22.08500 518.000
22.10000 497.000
22.11500 509.000
22.13000 502.000
22.14500 504.000
22.16000 488.000
22.17500 491.000
22.19000 505.000
22.20500 489.000
22.22000 484.000
22.23500 491.000
22.25000 504.000
22.26500 497.000
22.28000 478.000
22.29500 494.000
22.31000 477.000
22.32500 492.000
22.34000 465.000
22.35500 501.000
22.37000 511.000
22.38500 519.000
22.40000 533.000
22.41500 498.000
22.43000 518.000
22.44500 490.000
22.46000 501.000
22.47500 555.000
22.49000 538.000
22.50500 521.000
22.52000 520.000
22.53500 493.000
22.55000 515.000
22.56500 506.000
22.58000 473.000
22.59500 490.000
22.61000 497.000
22.62500 531.000
22.64000 548.000
22.65500 532.000
22.67000 488.000
22.68500 504.000
22.70000 554.000
22.71500 528.000
22.73000 565.000
22.74500 548.000
22.76000 512.000
22.77500 555.000
22.79000 518.000
22.80500 520.000
22.82000 506.000
22.83500 526.000
22.85000 531.000
22.86500 510.000
22.88000 507.000
22.89500 513.000
22.91000 527.000
22.92500 535.000
22.94000 534.000
22.95500 499.000
22.97000 518.000
22.98500 540.000
23.00000 488.000
23.01500 539.000
23.03000 517.000
23.04500 525.000
23.06000 524.000
23.07500 564.000
23.09000 510.000
23.10500 491.000
23.12000 541.000
23.13500 504.000
23.15000 497.000
23.16500 484.000
23.18000 507.000
23.19500 515.000
23.21000 461.000
23.22500 488.000
23.24000 499.000
23.25500 502.000
23.27000 489.000
23.28500 469.000
23.30000 495.000
23.31500 481.000
23.33000 493.000
23.34500 514.000
23.36000 515.000
23.37500 501.000
23.39000 510.000
23.40500 509.000
23.42000 512.000
23.43500 510.000
23.45000 475.000
23.46500 485.000
23.48000 500.000
23.49500 494.000
23.51000 498.000
23.52500 485.000
23.54000 477.000
23.55500 480.000
23.57000 526.000
23.58500 471.000
23.60000 489.000
23.61500 504.000
23.63000 493.000
23.64500 458.000
23.66000 461.000
23.67500 512.000
23.69000 494.000
23.70500 497.000
23.72000 507.000
23.73500 516.000
23.75000 488.000
23.76500 486.000
23.78000 466.000
23.79500 506.000
23.81000 491.000
23.82500 462.000
23.84000 482.000
23.85500 501.000
23.87000 464.000
23.88500 482.000
23.90000 529.000
23.91500 532.000
23.93000 516.000
23.94500 540.000
23.96000 522.000
23.97500 508.000
23.99000 511.000
24.00500 536.000
24.02000 551.000
24.03500 542.000
24.05000 589.000
24.06500 559.000
24.08000 565.000
24.09500 629.000
24.11000 638.000
24.12500 684.000
24.14000 750.000
24.15500 831.000
24.17000 944.000
24.18500 1046.000
24.20000 1315.000
24.21500 1540.000
24.23000 1743.000
24.24500 1991.000
24.26000 2360.000
24.27500 2631.000
24.29000 2592.000
24.30500 2325.000
24.32000 1996.000
24.33500 1649.000
24.35000 1406.000
24.36500 1122.000
24.38000 953.000
24.39500 901.000
24.41000 785.000
24.42500 725.000
24.44000 708.000
24.45500 701.000
24.47000 695.000
24.48500 708.000
24.50000 681.000
24.51500 682.000
24.53000 670.000
24.54500 696.000
24.56000 695.000
24.57500 702.000
24.59000 745.000
24.60500 748.000
24.62000 725.000
24.63500 761.000
24.65000 827.000
24.66500 858.000
24.68000 906.000
24.69500 941.000
24.71000 968.000
24.72500 1026.000
24.74000 1101.000
24.75500 1123.000
24.77000 1131.000
24.78500 1213.000
24.80000 1268.000
24.81500 1271.000
24.83000 1232.000
24.84500 1289.000
24.86000 1203.000
24.87500 1114.000
24.89000 1072.000
24.90500 1061.000
24.92000 1010.000
24.93500 931.000
24.95000 866.000
24.96500 873.000
24.98000 796.000
24.99500 763.000
25.01000 723.000
25.02500 717.000
25.04000 715.000
25.05500 695.000
25.07000 696.000
25.08500 677.000
25.10000 620.000
25.11500 595.000
25.13000 607.000
25.14500 584.000
25.16000 565.000
25.17500 592.000
25.19000 588.000
25.20500 589.000
25.22000 568.000
25.23500 587.000
25.25000 543.000
25.26500 566.000
25.28000 549.000
25.29500 600.000
25.31000 582.000
25.32500 583.000
25.34000 582.000
25.35500 571.000
25.37000 582.000
25.38500 586.000
25.40000 556.000
25.41500 569.000
25.43000 616.000
25.44500 578.000
25.46000 611.000
25.47500 586.000
25.49000 583.000
25.50500 575.000
25.52000 560.000
25.53500 576.000
25.55000 563.000
25.56500 545.000
25.58000 559.000
25.59500 574.000
25.61000 577.000
25.62500 593.000
25.64000 604.000
25.65500 619.000
25.67000 569.000
25.68500 553.000
25.70000 564.000
25.71500 568.000
25.73000 577.000
25.74500 597.000
25.76000 603.000
25.77500 608.000
25.79000 588.000
25.80500 585.000
25.82000 588.000
25.83500 556.000
25.85000 595.000
25.86500 600.000
25.88000 611.000
25.89500 590.000
25.91000 575.000
25.92500 601.000
25.94000 647.000
25.95500 677.000
25.97000 676.000
25.98500 723.000
26.00000 700.000
26.01500 737.000
26.03000 758.000
26.04500 787.000
26.06000 832.000
26.07500 858.000
26.09000 954.000
26.10500 965.000
26.12000 1075.000
26.13500 1216.000
26.15000 1358.000
26.16500 1488.000
26.18000 1763.000
26.19500 1952.000
26.21000 2216.000
26.22500 2634.000
26.24000 2890.000
26.25500 3314.000
26.27000 3715.000
26.28500 4225.000
26.30000 4756.000
26.31500 5240.000
26.33000 5701.000
26.34500 6044.000
26.36000 6372.000
26.37500 6566.000
26.39000 6775.000
26.40500 6633.000
26.42000 6451.000
26.43500 6282.000
26.45000 5839.000
26.46500 5120.000
26.48000 4436.000
26.49500 3657.000
26.51000 3073.000
26.52500 2545.000
26.54000 2103.000
26.55500 1784.000
26.57000 1563.000
26.58500 1445.000
26.60000 1334.000
26.61500 1191.000
26.63000 1109.000
26.64500 1086.000
26.66000 989.000
26.67500 946.000
26.69000 913.000
26.70500 856.000
26.72000 846.000
26.73500 787.000
26.75000 782.000
26.76500 769.000
26.78000 745.000
26.79500 775.000
26.81000 746.000
26.82500 700.000
26.84000 721.000
26.85500 684.000
26.87000 648.000
26.88500 680.000
26.90000 668.000
26.91500 645.000
26.93000 678.000
26.94500 642.000
26.96000 697.000
26.97500 633.000
26.99000 622.000
27.00500 615.000
27.02000 597.000
27.03500 608.000
27.05000 617.000
27.06500 595.000
27.08000 576.000
27.09500 604.000
27.11000 645.000
27.12500 599.000
27.14000 586.000
27.15500 573.000
27.17000 610.000
27.18500 558.000
27.20000 592.000
27.21500 594.000
27.23000 565.000
27.24500 588.000
27.26000 575.000
27.27500 605.000
27.29000 571.000
27.30500 577.000
27.32000 572.000
27.33500 589.000
27.35000 583.000
27.36500 577.000
27.38000 577.000
27.39500 623.000
27.41000 564.000
27.42500 584.000
27.44000 582.000
27.45500 576.000
27.47000 569.000
27.48500 583.000
27.50000 601.000
27.51500 615.000
27.53000 629.000
27.54500 589.000
27.56000 583.000
27.57500 639.000
27.59000 644.000
27.60500 621.000
27.62000 623.000
27.63500 620.000
27.65000 618.000
27.66500 676.000
27.68000 674.000
27.69500 651.000
27.71000 643.000
27.72500 664.000
27.74000 632.000
27.75500 671.000
27.77000 672.000
27.78500 674.000
27.80000 716.000
27.81500 714.000
27.83000 703.000
27.84500 733.000
27.86000 717.000
27.87500 737.000
27.89000 721.000
27.90500 742.000
27.92000 712.000
27.93500 724.000
27.95000 732.000
27.96500 742.000
27.98000 780.000
27.99500 754.000
28.01000 779.000
28.02500 763.000
28.04000 785.000
28.05500 776.000
28.07000 812.000
28.08500 765.000
28.10000 785.000
28.11500 784.000
28.13000 772.000
28.14500 747.000
28.16000 710.000
28.17500 689.000
28.19000 721.000
28.20500 739.000
28.22000 709.000
28.23500 673.000
28.25000 656.000
28.26500 672.000
28.28000 678.000
28.29500 639.000
28.31000 631.000
28.32500 652.000
28.34000 689.000
28.35500 642.000
28.37000 624.000
28.38500 642.000
28.40000 621.000
28.41500 637.000
28.43000 639.000
28.44500 618.000
28.46000 630.000
28.47500 638.000
28.49000 640.000
28.50500 615.000
28.52000 657.000
28.53500 662.000
28.55000 665.000
28.56500 672.000
28.58000 660.000
28.59500 730.000
28.61000 721.000
28.62500 766.000
28.64000 809.000
28.65500 829.000
28.67000 873.000
28.68500 896.000
28.70000 931.000
28.71500 980.000
28.73000 1038.000
28.74500 1094.000
28.76000 1182.000
28.77500 1295.000
28.79000 1371.000
28.80500 1434.000
28.82000 1576.000
28.83500 1707.000
28.85000 1832.000
28.86500 1966.000
28.88000 2099.000
28.89500 2309.000
28.91000 2453.000
28.92500 2614.000
28.94000 2946.000
28.95500 3147.000
28.97000 3331.000
28.98500 3658.000
29.00000 3847.000
29.01500 3970.000
29.03000 4232.000
29.04500 4497.000
29.06000 4701.000
29.07500 4902.000
29.09000 5071.000
29.10500 5226.000
29.12000 5494.000
29.13500 5508.000
29.15000 5700.000
29.16500 5716.000
29.18000 5368.000
29.19500 5036.000
29.21000 4652.000
29.22500 4101.000
29.24000 3687.000
29.25500 3292.000
29.27000 2909.000
29.28500 2619.000
29.30000 2369.000
29.31500 2107.000
29.33000 1906.000
29.34500 1752.000
29.36000 1613.000
29.37500 1479.000
29.39000 1401.000
29.40500 1325.000
29.42000 1166.000
29.43500 1124.000
29.45000 1033.000
29.46500 965.000
29.48000 908.000
29.49500 863.000
29.51000 787.000
29.52500 766.000
29.54000 766.000
29.55500 748.000
29.57000 708.000
29.58500 685.000
29.60000 653.000
29.61500 644.000
29.63000 608.000
29.64500 589.000
29.66000 582.000
29.67500 562.000
29.69000 560.000
29.70500 560.000
29.72000 542.000
29.73500 554.000
29.75000 551.000
29.76500 516.000
29.78000 548.000
29.79500 518.000
29.81000 493.000
29.82500 546.000
29.84000 502.000
29.85500 523.000
29.87000 500.000
29.88500 501.000
29.90000 521.000
29.91500 501.000
29.93000 503.000
29.94500 461.000
29.96000 500.000
29.97500 486.000
29.99000 460.000
30.00500 464.000
30.02000 486.000
30.03500 467.000
30.05000 451.000
30.06500 444.000
30.08000 444.000
30.09500 429.000
30.11000 451.000
30.12500 478.000
30.14000 458.000
30.15500 456.000
30.17000 457.000
30.18500 465.000
30.20000 458.000
30.21500 442.000
30.23000 469.000
30.24500 444.000
30.26000 468.000
30.27500 460.000
30.29000 432.000
30.30500 435.000
30.32000 447.000
30.33500 445.000
30.35000 451.000
30.36500 414.000
30.38000 419.000
30.39500 398.000
30.41000 459.000
30.42500 437.000
30.44000 424.000
30.45500 421.000
30.47000 428.000
30.48500 454.000
30.50000 452.000
30.51500 452.000
30.53000 459.000
30.54500 420.000
30.56000 460.000
30.57500 440.000
30.59000 426.000
30.60500 412.000
30.62000 419.000
30.63500 436.000
30.65000 422.000
30.66500 403.000
30.68000 422.000
30.69500 434.000
30.71000 425.000
30.72500 419.000
30.74000 447.000
30.75500 424.000
30.77000 378.000
30.78500 425.000
30.80000 395.000
30.81500 398.000
30.83000 447.000
30.84500 476.000
30.86000 414.000
30.87500 394.000
30.89000 386.000
30.90500 397.000
30.92000 423.000
30.93500 416.000
30.95000 414.000
30.96500 439.000
30.98000 443.000
30.99500 425.000
31.01000 427.000
31.02500 412.000
31.04000 379.000
31.05500 429.000
31.07000 416.000
31.08500 418.000
31.10000 412.000
31.11500 402.000
31.13000 410.000
31.14500 427.000
31.16000 397.000
31.17500 398.000
31.19000 405.000
31.20500 401.000
31.22000 375.000
31.23500 375.000
31.25000 371.000
31.26500 387.000
31.28000 368.000
31.29500 404.000
31.31000 410.000
31.32500 387.000
31.34000 394.000
31.35500 393.000
31.37000 388.000
31.38500 382.000
31.40000 382.000
31.41500 393.000
31.43000 408.000
31.44500 419.000
31.46000 404.000
31.47500 386.000
31.49000 371.000
31.50500 389.000
31.52000 382.000
31.53500 382.000
31.55000 393.000
31.56500 379.000
31.58000 390.000
31.59500 428.000
31.61000 367.000
31.62500 377.000
31.64000 408.000
31.65500 402.000
31.67000 390.000
31.68500 390.000
31.70000 397.000
31.71500 396.000
31.73000 401.000
31.74500 382.000
31.76000 389.000
31.77500 406.000
31.79000 371.000
31.80500 370.000
31.82000 428.000
31.83500 411.000
31.85000 411.000
31.86500 406.000
31.88000 390.000
31.89500 431.000
31.91000 394.000
31.92500 391.000
31.94000 410.000
31.95500 452.000
31.97000 421.000
31.98500 430.000
32.00000 408.000
32.01500 428.000
32.03000 459.000
32.04500 481.000
32.06000 452.000
32.07500 513.000
32.09000 536.000
32.10500 572.000
32.12000 586.000
32.13500 614.000
32.15000 635.000
32.16500 796.000
32.18000 855.000
32.19500 1032.000
32.21000 1235.000
32.22500 1571.000
32.24000 1907.000
32.25500 2321.000
32.27000 2760.000
32.28500 3390.000
32.30000 3765.000
32.31500 3757.000
32.33000 3408.000
32.34500 3067.000
32.36000 2640.000
32.37500 2041.000
32.39000 1627.000
32.40500 1350.000
32.42000 1099.000
32.43500 934.000
32.45000 777.000
32.46500 692.000
32.48000 611.000
32.49500 568.000
32.51000 544.000
32.52500 518.000
32.54000 500.000
32.55500 480.000
32.57000 488.000
32.58500 453.000
32.60000 437.000
32.61500 442.000
32.63000 403.000
32.64500 389.000
32.66000 404.000
32.67500 405.000
32.69000 434.000
32.70500 394.000
32.72000 389.000
32.73500 399.000
32.75000 361.000
32.76500 366.000
32.78000 385.000
32.79500 406.000
32.81000 422.000
32.82500 391.000
32.84000 383.000
32.85500 397.000
32.87000 399.000
32.88500 369.000
32.90000 371.000
32.91500 366.000
32.93000 410.000
32.94500 361.000
32.96000 346.000
32.97500 337.000
32.99000 377.000
33.00500 371.000
33.02000 339.000
33.03500 336.000
33.05000 344.000
33.06500 352.000
33.08000 332.000
33.09500 329.000
33.11000 338.000
33.12500 355.000
33.14000 357.000
33.15500 354.000
33.17000 333.000
33.18500 352.000
33.20000 341.000
33.21500 369.000
33.23000 348.000
33.24500 349.000
33.26000 343.000
33.27500 383.000
33.29000 372.000
33.30500 351.000
33.32000 368.000
33.33500 369.000
33.35000 363.000
33.36500 355.000
33.38000 346.000
33.39500 379.000
33.41000 349.000
33.42500 334.000
33.44000 382.000
33.45500 371.000
33.47000 375.000
33.48500 394.000
33.50000 397.000
33.51500 391.000
33.53000 388.000
33.54500 378.000
33.56000 377.000
33.57500 402.000
33.59000 375.000
33.60500 381.000
33.62000 409.000
33.63500 380.000
33.65000 425.000
33.66500 422.000
33.68000 421.000
33.69500 404.000
33.71000 429.000
33.72500 461.000
33.74000 467.000
33.75500 462.000
33.77000 441.000
33.78500 456.000
33.80000 478.000
33.81500 488.000
33.83000 501.000
33.84500 521.000
33.86000 521.000
33.87500 530.000
33.89000 538.000
33.90500 540.000
33.92000 530.000
33.93500 558.000
33.95000 553.000
33.96500 538.000
33.98000 566.000
33.99500 578.000
34.01000 614.000
34.02500 573.000
34.04000 587.000
34.05500 547.000
34.07000 505.000
34.08500 517.000
34.10000 492.000
34.11500 451.000
34.13000 475.000
34.14500 480.000
34.16000 441.000
34.17500 409.000
34.19000 411.000
34.20500 413.000
34.22000 377.000
34.23500 380.000
34.25000 385.000
34.26500 354.000
34.28000 383.000
34.29500 364.000
34.31000 375.000
34.32500 378.000
34.34000 357.000
34.35500 362.000
34.37000 330.000
34.38500 346.000
34.40000 345.000
34.41500 341.000
34.43000 362.000
34.44500 328.000
34.46000 338.000
34.47500 326.000
34.49000 368.000
34.50500 358.000
34.52000 317.000
34.53500 350.000
34.55000 340.000
34.56500 338.000
34.58000 341.000
34.59500 355.000
34.61000 334.000
34.62500 335.000
34.64000 327.000
34.65500 354.000
34.67000 335.000
34.68500 363.000
34.70000 369.000
34.71500 336.000
34.73000 369.000
34.74500 363.000
34.76000 357.000
34.77500 337.000
34.79000 387.000
34.80500 380.000
34.82000 398.000
34.83500 393.000
34.85000 401.000
34.86500 402.000
34.88000 421.000
34.89500 435.000
34.91000 468.000
34.92500 479.000
34.94000 484.000
34.95500 525.000
34.97000 572.000
34.98500 567.000
35.00000 494.000
35.01500 543.000
35.03000 496.000
35.04500 504.000
35.06000 490.000
35.07500 481.000
35.09000 458.000
35.10500 418.000
35.12000 414.000
35.13500 407.000
35.15000 416.000
35.16500 400.000
35.18000 386.000
35.19500 382.000
35.21000 372.000
35.22500 344.000
35.24000 330.000
35.25500 356.000
35.27000 309.000
35.28500 338.000
35.30000 338.000
35.31500 308.000
35.33000 348.000
35.34500 316.000
35.36000 297.000
35.37500 327.000
35.39000 306.000
35.40500 291.000
35.42000 306.000
35.43500 310.000
35.45000 289.000
35.46500 278.000
35.48000 291.000
35.49500 309.000
35.51000 309.000
35.52500 305.000
35.54000 309.000
35.55500 335.000
35.57000 315.000
35.58500 316.000
35.60000 321.000
35.61500 314.000
35.63000 304.000
35.64500 321.000
35.66000 303.000
35.67500 311.000
35.69000 300.000
35.70500 311.000
35.72000 332.000
35.73500 358.000
35.75000 323.000
35.76500 326.000
35.78000 323.000
35.79500 338.000
35.81000 342.000
35.82500 363.000
35.84000 354.000
35.85500 369.000
35.87000 406.000
35.88500 401.000
35.90000 413.000
35.91500 414.000
35.93000 425.000
35.94500 428.000
35.96000 439.000
35.97500 446.000
35.99000 458.000
36.00500 487.000
36.02000 448.000
36.03500 472.000
36.05000 449.000
36.06500 492.000
36.08000 488.000
36.09500 471.000
36.11000 488.000
36.12500 511.000
36.14000 537.000
36.15500 543.000
36.17000 591.000
36.18500 546.000
36.20000 555.000
36.21500 563.000
36.23000 519.000
36.24500 545.000
36.26000 549.000
36.27500 547.000
36.29000 499.000
36.30500 455.000
36.32000 428.000
36.33500 452.000
36.35000 453.000
36.36500 409.000
36.38000 417.000
36.39500 397.000
36.41000 354.000
36.42500 360.000
36.44000 387.000
36.45500 347.000
36.47000 361.000
36.48500 330.000
36.50000 342.000
36.51500 342.000
36.53000 360.000
36.54500 353.000
36.56000 331.000
36.57500 315.000
36.59000 340.000
36.60500 313.000
36.62000 306.000
36.63500 319.000
36.65000 323.000
36.66500 334.000
36.68000 327.000
36.69500 317.000
36.71000 357.000
36.72500 374.000
36.74000 390.000
36.75500 398.000
36.77000 434.000
36.78500 429.000
36.80000 424.000
36.81500 407.000
36.83000 381.000
36.84500 326.000
36.86000 323.000
36.87500 321.000
36.89000 309.000
36.90500 310.000
36.92000 300.000
36.93500 290.000
36.95000 280.000
36.96500 278.000
36.98000 288.000
36.99500 288.000
37.01000 289.000
37.02500 280.000
37.04000 272.000
37.05500 254.000
37.07000 259.000
37.08500 269.000
37.10000 273.000
37.11500 262.000
37.13000 248.000
37.14500 266.000
37.16000 268.000
37.17500 268.000
37.19000 273.000
37.20500 241.000
37.22000 239.000
37.23500 256.000
37.25000 271.000
37.26500 255.000
37.28000 256.000
37.29500 277.000
37.31000 271.000
37.32500 276.000
37.34000 260.000
37.35500 261.000
37.37000 266.000
37.38500 256.000
37.40000 265.000
37.41500 254.000
37.43000 244.000
37.44500 243.000
37.46000 250.000
37.47500 255.000
37.49000 271.000
37.50500 282.000
37.52000 271.000
37.53500 265.000
37.55000 260.000
37.56500 255.000
37.58000 278.000
37.59500 275.000
37.61000 262.000
37.62500 279.000
37.64000 237.000
37.65500 258.000
37.67000 264.000
37.68500 255.000
37.70000 251.000
37.71500 272.000
37.73000 245.000
37.74500 234.000
37.76000 257.000
37.77500 246.000
37.79000 282.000
37.80500 265.000
37.82000 250.000
37.83500 259.000
37.85000 264.000
37.86500 234.000
37.88000 234.000
37.89500 247.000
37.91000 246.000
37.92500 240.000
37.94000 252.000
37.95500 242.000
37.97000 259.000
37.98500 237.000
38.00000 247.000
38.01500 272.000
38.03000 251.000
38.04500 260.000
38.06000 265.000
38.07500 259.000
38.09000 247.000
38.10500 217.000
38.12000 229.000
38.13500 250.000
38.15000 242.000
38.16500 260.000
38.18000 240.000
38.19500 230.000
38.21000 231.000
38.22500 230.000
38.24000 263.000
38.25500 253.000
38.27000 242.000
38.28500 254.000
38.30000 238.000
38.31500 255.000
38.33000 253.000
38.34500 253.000
38.36000 239.000
38.37500 254.000
38.39000 262.000
38.40500 274.000
38.42000 253.000
38.43500 248.000
38.45000 248.000
38.46500 263.000
38.48000 263.000
38.49500 244.000
38.51000 236.000
38.52500 250.000
38.54000 251.000
38.55500 253.000
38.57000 261.000
38.58500 252.000
38.60000 273.000
38.61500 261.000
38.63000 238.000
38.64500 254.000
38.66000 273.000
38.67500 254.000
38.69000 256.000
38.70500 249.000
38.72000 242.000
38.73500 233.000
38.75000 254.000
38.76500 250.000
38.78000 231.000
38.79500 251.000
38.81000 246.000
38.82500 251.000
38.84000 266.000
38.85500 263.000
38.87000 228.000
38.88500 261.000
38.90000 272.000
38.91500 231.000
38.93000 263.000
38.94500 255.000
38.96000 233.000
38.97500 258.000
38.99000 266.000
39.00500 242.000
39.02000 248.000
39.03500 249.000
39.05000 258.000
39.06500 255.000
39.08000 238.000
39.09500 246.000
39.11000 275.000
39.12500 250.000
39.14000 230.000
39.15500 254.000
39.17000 254.000
39.18500 230.000
39.20000 242.000
39.21500 219.000
39.23000 248.000
39.24500 249.000
39.26000 268.000
39.27500 237.000
39.29000 227.000
39.30500 241.000
39.32000 258.000
39.33500 255.000
39.35000 267.000
39.36500 226.000
39.38000 262.000
39.39500 256.000
39.41000 275.000
39.42500 257.000
39.44000 250.000
39.45500 245.000
39.47000 238.000
39.48500 245.000
39.50000 282.000
39.51500 287.000
39.53000 242.000
39.54500 255.000
39.56000 251.000
39.57500 237.000
39.59000 251.000
39.60500 247.000
39.62000 253.000
39.63500 243.000
39.65000 239.000
39.66500 242.000
39.68000 253.000
39.69500 246.000
39.71000 237.000
39.72500 255.000
39.74000 258.000
39.75500 231.000
39.77000 234.000
39.78500 235.000
39.80000 236.000
39.81500 260.000
39.83000 248.000
39.84500 256.000
39.86000 253.000
39.87500 247.000
39.89000 256.000
39.90500 261.000
39.92000 238.000
39.93500 226.000
39.95000 238.000
39.96500 243.000
39.98000 267.000
39.99500 232.000
40.01000 244.000
40.02500 245.000
40.04000 224.000
40.05500 254.000
40.07000 238.000
40.08500 241.000
40.10000 242.000
40.11500 225.000
40.13000 223.000
40.14500 245.000
40.16000 233.000
40.17500 244.000
40.19000 230.000
40.20500 239.000
40.22000 240.000
40.23500 257.000
40.25000 223.000
40.26500 246.000
40.28000 220.000
40.29500 233.000
40.31000 231.000
40.32500 225.000
40.34000 226.000
40.35500 257.000
40.37000 249.000
40.38500 234.000
40.40000 240.000
40.41500 252.000
40.43000 251.000
40.44500 239.000
40.46000 256.000
40.47500 245.000
40.49000 238.000
40.50500 252.000
40.52000 253.000
40.53500 249.000
40.55000 231.000
40.56500 236.000
40.58000 246.000
40.59500 239.000
40.61000 237.000
40.62500 223.000
40.64000 243.000
40.65500 245.000
40.67000 250.000
40.68500 226.000
40.70000 244.000
40.71500 243.000
40.73000 230.000
40.74500 241.000
40.76000 239.000
40.77500 260.000
40.79000 232.000
40.80500 223.000
40.82000 273.000
40.83500 252.000
40.85000 242.000
40.86500 227.000
40.88000 239.000
40.89500 256.000
40.91000 247.000
40.92500 233.000
40.94000 214.000
40.95500 228.000
40.97000 228.000
40.98500 247.000
41.00000 256.000
41.01500 249.000
41.03000 235.000
41.04500 219.000
41.06000 256.000
41.07500 245.000
41.09000 249.000
41.10500 232.000
41.12000 208.000
41.13500 233.000
41.15000 254.000
41.16500 246.000
41.18000 233.000
41.19500 229.000
41.21000 212.000
41.22500 219.000
41.24000 253.000
41.25500 246.000
41.27000 241.000
41.28500 233.000
41.30000 235.000
41.31500 236.000
41.33000 238.000
41.34500 255.000
41.36000 259.000
41.37500 241.000
41.39000 242.000
41.40500 240.000
41.42000 258.000
41.43500 269.000
41.45000 243.000
41.46500 254.000
41.48000 240.000
41.49500 226.000
41.51000 247.000
41.52500 248.000
41.54000 249.000
41.55500 257.000
41.57000 256.000
41.58500 247.000
41.60000 221.000
41.61500 251.000
41.63000 229.000
41.64500 241.000
41.66000 234.000
41.67500 265.000
41.69000 223.000
41.70500 222.000
41.72000 248.000
41.73500 272.000
41.75000 283.000
41.76500 260.000
41.78000 231.000
41.79500 256.000
41.81000 244.000
41.82500 266.000
41.84000 270.000
41.85500 274.000
41.87000 266.000
41.88500 256.000
41.90000 298.000
41.91500 283.000
41.93000 278.000
41.94500 279.000
41.96000 277.000
41.97500 305.000
41.99000 308.000
42.00500 299.000
42.02000 294.000
42.03500 314.000
42.05000 302.000
42.06500 279.000
42.08000 275.000
42.09500 321.000
42.11000 305.000
42.12500 308.000
42.14000 339.000
42.15500 319.000
42.17000 321.000
42.18500 314.000
42.20000 319.000
42.21500 334.000
42.23000 314.000
42.24500 327.000
42.26000 328.000
42.27500 281.000
42.29000 306.000
42.30500 303.000
42.32000 288.000
42.33500 311.000
42.35000 290.000
42.36500 273.000
42.38000 305.000
42.39500 280.000
42.41000 290.000
42.42500 304.000
42.44000 281.000
42.45500 294.000
42.47000 295.000
42.48500 290.000
42.50000 284.000
42.51500 293.000
42.53000 273.000
42.54500 300.000
42.56000 333.000
42.57500 329.000
42.59000 334.000
42.60500 370.000
42.62000 386.000
42.63500 422.000
42.65000 514.000
42.66500 573.000
42.68000 622.000
42.69500 700.000
42.71000 742.000
42.72500 778.000
42.74000 744.000
42.75500 730.000
42.77000 636.000
42.78500 604.000
42.80000 536.000
42.81500 449.000
42.83000 403.000
42.84500 366.000
42.86000 346.000
42.87500 324.000
42.89000 310.000
42.90500 307.000
42.92000 304.000
42.93500 289.000
42.95000 264.000
42.96500 284.000
42.98000 283.000
42.99500 252.000
43.01000 277.000
43.02500 269.000
43.04000 267.000
43.05500 261.000
43.07000 260.000
43.08500 238.000
43.10000 228.000
43.11500 243.000
43.13000 255.000
43.14500 231.000
43.16000 247.000
43.17500 278.000
43.19000 282.000
43.20500 257.000
43.22000 259.000
43.23500 249.000
43.25000 255.000
43.26500 255.000
43.28000 241.000
43.29500 248.000
43.31000 235.000
43.32500 239.000
43.34000 233.000
43.35500 255.000
43.37000 245.000
43.38500 244.000
43.40000 271.000
43.41500 237.000
43.43000 275.000
43.44500 237.000
43.46000 239.000
43.47500 246.000
43.49000 233.000
43.50500 234.000
43.52000 249.000
43.53500 237.000
43.55000 231.000
43.56500 250.000
43.58000 247.000
43.59500 249.000
43.61000 237.000
43.62500 218.000
43.64000 223.000
43.65500 264.000
43.67000 246.000
43.68500 239.000
43.70000 215.000
43.71500 242.000
43.73000 238.000
43.74500 225.000
43.76000 256.000
43.77500 226.000
43.79000 263.000
43.80500 232.000
43.82000 236.000
43.83500 213.000
43.85000 225.000
43.86500 254.000
43.88000 231.000
43.89500 246.000
43.91000 220.000
43.92500 241.000
43.94000 245.000
43.95500 241.000
43.97000 243.000
43.98500 249.000
44.00000 252.000
44.01500 236.000
44.03000 253.000
44.04500 252.000
44.06000 249.000
44.07500 245.000
44.09000 260.000
44.10500 252.000
44.12000 270.000
44.13500 238.000
44.15000 246.000
44.16500 258.000
44.18000 274.000
44.19500 257.000
44.21000 246.000
44.22500 264.000
44.24000 252.000
44.25500 278.000
44.27000 278.000
44.28500 294.000
44.30000 285.000
44.31500 264.000
44.33000 278.000
44.34500 276.000
44.36000 300.000
44.37500 288.000
44.39000 299.000
44.40500 321.000
44.42000 346.000
44.43500 349.000
44.45000 412.000
44.46500 455.000
44.48000 520.000
44.49500 575.000
44.51000 644.000
44.52500 771.000
44.54000 847.000
44.55500 935.000
44.57000 968.000
44.58500 915.000
44.60000 845.000
44.61500 781.000
44.63000 721.000
44.64500 640.000
44.66000 568.000
44.67500 600.000
44.69000 537.000
44.70500 537.000
44.72000 525.000
44.73500 522.000
44.75000 534.000
44.76500 535.000
44.78000 578.000
44.79500 554.000
44.81000 587.000
44.82500 627.000
44.84000 615.000
44.85500 642.000
44.87000 651.000
44.88500 652.000
44.90000 655.000
44.91500 570.000
44.93000 608.000
44.94500 565.000
44.96000 537.000
44.97500 513.000
44.99000 475.000
45.00500 455.000
45.02000 443.000
45.03500 461.000
45.05000 463.000
45.06500 421.000
45.08000 423.000
45.09500 394.000
45.11000 402.000
45.12500 334.000
45.14000 344.000
45.15500 340.000
45.17000 327.000
45.18500 327.000
45.20000 327.000
45.21500 330.000
45.23000 333.000
45.24500 310.000
45.26000 306.000
45.27500 323.000
45.29000 333.000
45.30500 329.000
45.32000 304.000
45.33500 301.000
45.35000 322.000
45.36500 329.000
45.38000 331.000
45.39500 291.000
45.41000 316.000
45.42500 312.000
45.44000 328.000
45.45500 335.000
45.47000 332.000
45.48500 391.000
45.50000 396.000
45.51500 355.000
45.53000 393.000
45.54500 351.000
45.56000 374.000
45.57500 400.000
45.59000 398.000
45.60500 406.000
45.62000 425.000
45.63500 419.000
45.65000 438.000
45.66500 420.000
45.68000 434.000
45.69500 435.000
45.71000 439.000
45.72500 456.000
45.74000 408.000
45.75500 453.000
45.77000 475.000
45.78500 479.000
45.80000 446.000
45.81500 460.000
45.83000 444.000
45.84500 475.000
45.86000 484.000
45.87500 470.000
45.89000 478.000
45.90500 446.000
45.92000 458.000
45.93500 446.000
45.95000 411.000
45.96500 396.000
45.98000 419.000
45.99500 398.000
46.01000 416.000
46.02500 368.000
46.04000 368.000
46.05500 366.000
46.07000 368.000
46.08500 357.000
46.10000 340.000
46.11500 334.000
46.13000 315.000
46.14500 321.000
46.16000 327.000
46.17500 345.000
46.19000 328.000
46.20500 314.000
46.22000 320.000
46.23500 298.000
46.25000 286.000
46.26500 300.000
46.28000 303.000
46.29500 300.000
46.31000 311.000
46.32500 291.000
46.34000 332.000
46.35500 352.000
46.37000 311.000
46.38500 347.000
46.40000 358.000
46.41500 350.000
46.43000 371.000
46.44500 368.000
46.46000 339.000
46.47500 364.000
46.49000 385.000
46.50500 389.000
46.52000 381.000
46.53500 430.000
46.55000 429.000
46.56500 473.000
46.58000 505.000
46.59500 503.000
46.61000 502.000
46.62500 496.000
46.64000 517.000
46.65500 531.000
46.67000 544.000
46.68500 520.000
46.70000 499.000
46.71500 480.000
46.73000 444.000
46.74500 454.000
46.76000 420.000
46.77500 431.000
46.79000 386.000
46.80500 369.000
46.82000 372.000
46.83500 353.000
46.85000 357.000
46.86500 317.000
46.88000 317.000
46.89500 330.000
46.91000 312.000
46.92500 278.000
46.94000 270.000
46.95500 269.000
46.97000 255.000
46.98500 257.000
47.00000 280.000
47.01500 220.000
47.03000 245.000
47.04500 262.000
47.06000 240.000
47.07500 259.000
47.09000 231.000
47.10500 241.000
47.12000 240.000
47.13500 240.000
47.15000 234.000
47.16500 259.000
47.18000 235.000
47.19500 228.000
47.21000 219.000
47.22500 228.000
47.24000 215.000
47.25500 237.000
47.27000 228.000
47.28500 221.000
47.30000 240.000
47.31500 245.000
47.33000 223.000
47.34500 232.000
47.36000 235.000
47.37500 207.000
47.39000 221.000
47.40500 230.000
47.42000 256.000
47.43500 241.000
47.45000 219.000
47.46500 208.000
47.48000 217.000
47.49500 245.000
47.51000 213.000
47.52500 230.000
47.54000 212.000
47.55500 205.000
47.57000 214.000
47.58500 234.000
47.60000 228.000
47.61500 221.000
47.63000 226.000
47.64500 235.000
47.66000 223.000
47.67500 219.000
47.69000 221.000
47.70500 215.000
47.72000 194.000
47.73500 189.000
47.75000 209.000
47.76500 195.000
47.78000 191.000
47.79500 212.000
47.81000 222.000
47.82500 214.000
47.84000 202.000
47.85500 198.000
47.87000 209.000
47.88500 206.000
47.90000 217.000
47.91500 220.000
47.93000 207.000
47.94500 218.000
47.96000 234.000
47.97500 212.000
47.99000 227.000
48.00500 196.000
48.02000 215.000
48.03500 205.000
48.05000 218.000
48.06500 225.000
48.08000 201.000
48.09500 196.000
48.11000 220.000
48.12500 217.000
48.14000 211.000
48.15500 220.000
48.17000 203.000
48.18500 212.000
48.20000 228.000
48.21500 227.000
48.23000 227.000
48.24500 189.000
48.26000 193.000
48.27500 199.000
48.29000 208.000
48.30500 209.000
48.32000 192.000
48.33500 213.000
48.35000 222.000
48.36500 210.000
48.38000 230.000
48.39500 213.000
48.41000 220.000
48.42500 204.000
48.44000 202.000
48.45500 224.000
48.47000 220.000
48.48500 250.000
48.50000 231.000
48.51500 223.000
48.53000 240.000
48.54500 213.000
48.56000 230.000
48.57500 209.000
48.59000 213.000
48.60500 197.000
48.62000 195.000
48.63500 200.000
48.65000 208.000
48.66500 208.000
48.68000 205.000
48.69500 224.000
48.71000 220.000
48.72500 246.000
48.74000 208.000
48.75500 195.000
48.77000 212.000
48.78500 214.000
48.80000 213.000
48.81500 223.000
48.83000 205.000
48.84500 222.000
48.86000 236.000
48.87500 207.000
48.89000 199.000
48.90500 204.000
48.92000 200.000
48.93500 213.000
48.95000 205.000
48.96500 220.000
48.98000 203.000
48.99500 209.000
49.01000 203.000
49.02500 222.000
49.04000 196.000
49.05500 222.000
49.07000 224.000
49.08500 236.000
49.10000 221.000
49.11500 220.000
49.13000 216.000
49.14500 219.000
49.16000 238.000
49.17500 209.000
49.19000 194.000
49.20500 222.000
49.22000 209.000
49.23500 212.000
49.25000 243.000
49.26500 242.000
49.28000 220.000
49.29500 217.000
49.31000 231.000
49.32500 211.000
49.34000 221.000
49.35500 233.000
49.37000 247.000
49.38500 233.000
49.40000 212.000
49.41500 204.000
49.43000 235.000
49.44500 239.000
49.46000 227.000
49.47500 212.000
49.49000 206.000
49.50500 213.000
49.52000 259.000
49.53500 242.000
49.55000 225.000
49.56500 240.000
49.58000 245.000
49.59500 284.000
49.61000 238.000
49.62500 253.000
49.64000 283.000
49.65500 283.000
49.67000 309.000
49.68500 331.000
49.70000 356.000
49.71500 350.000
49.73000 404.000
49.74500 446.000
49.76000 430.000
49.77500 416.000
49.79000 346.000
49.80500 377.000
49.82000 334.000
49.83500 344.000
49.85000 314.000
49.86500 304.000
49.88000 281.000
49.89500 271.000
49.91000 275.000
49.92500 253.000
49.94000 230.000
49.95500 236.000
49.97000 251.000
49.98500 283.000
50.00000 274.000
50.01500 254.000
50.03000 249.000
50.04500 235.000
50.06000 241.000
50.07500 224.000
50.09000 232.000
50.10500 239.000
50.12000 225.000
50.13500 239.000
50.15000 261.000
50.16500 274.000
50.18000 269.000
50.19500 264.000
50.21000 281.000
50.22500 291.000
50.24000 251.000
50.25500 275.000
50.27000 303.000
50.28500 313.000
50.30000 302.000
50.31500 315.000
50.33000 303.000
50.34500 357.000
50.36000 346.000
50.37500 342.000
50.39000 322.000
50.40500 364.000
50.42000 346.000
50.43500 383.000
50.45000 390.000
50.46500 387.000
50.48000 413.000
50.49500 421.000
50.51000 400.000
50.52500 441.000
50.54000 439.000
50.55500 454.000
50.57000 452.000
50.58500 481.000
50.60000 514.000
50.61500 514.000
50.63000 493.000
50.64500 555.000
50.66000 557.000
50.67500 600.000
50.69000 616.000
50.70500 632.000
50.72000 658.000
50.73500 677.000
50.75000 713.000
50.76500 761.000
50.78000 738.000
50.79500 760.000
50.81000 775.000
50.82500 759.000
50.84000 810.000
50.85500 859.000
50.87000 864.000
50.88500 892.000
50.90000 871.000
50.91500 893.000
50.93000 895.000
50.94500 902.000
50.96000 880.000
50.97500 914.000
50.99000 842.000
51.00500 855.000
51.02000 828.000
51.03500 832.000
51.05000 806.000
51.06500 734.000
51.08000 701.000
51.09500 695.000
51.11000 643.000
51.12500 598.000
51.14000 574.000
51.15500 595.000
51.17000 587.000
51.18500 550.000
51.20000 553.000
51.21500 510.000
51.23000 484.000
51.24500 463.000
51.26000 451.000
51.27500 454.000
51.29000 447.000
51.30500 428.000
51.32000 418.000
51.33500 403.000
51.35000 382.000
51.36500 374.000
51.38000 347.000
51.39500 371.000
51.41000 354.000
51.42500 335.000
51.44000 345.000
51.45500 333.000
51.47000 323.000
51.48500 301.000
51.50000 324.000
51.51500 293.000
51.53000 287.000
51.54500 281.000
51.56000 289.000
51.57500 297.000
51.59000 235.000
51.60500 248.000
51.62000 282.000
51.63500 298.000
51.65000 267.000
51.66500 279.000
51.68000 269.000
51.69500 252.000
51.71000 239.000
51.72500 237.000
51.74000 259.000
51.75500 231.000
51.77000 228.000
51.78500 273.000
51.80000 239.000
51.81500 230.000
51.83000 245.000
51.84500 242.000
51.86000 224.000
51.87500 244.000
51.89000 267.000
51.90500 227.000
51.92000 244.000
51.93500 247.000
51.95000 225.000
51.96500 224.000
51.98000 249.000
51.99500 237.000
52.01000 239.000
52.02500 226.000
52.04000 243.000
52.05500 241.000
52.07000 237.000
52.08500 238.000
52.10000 219.000
52.11500 257.000
52.13000 243.000
52.14500 229.000
52.16000 235.000
52.17500 249.000
52.19000 238.000
52.20500 249.000
52.22000 249.000
52.23500 239.000
52.25000 246.000
52.26500 268.000
52.28000 255.000
52.29500 241.000
52.31000 247.000
52.32500 262.000
52.34000 272.000
52.35500 269.000
52.37000 272.000
52.38500 258.000
52.40000 256.000
52.41500 266.000
52.43000 269.000
52.44500 268.000
52.46000 253.000
52.47500 269.000
52.49000 281.000
52.50500 272.000
52.52000 281.000
52.53500 270.000
52.55000 280.000
52.56500 268.000
52.58000 275.000
52.59500 288.000
52.61000 281.000
52.62500 273.000
52.64000 248.000
52.65500 265.000
52.67000 260.000
52.68500 272.000
52.70000 263.000
52.71500 259.000
52.73000 257.000
52.74500 259.000
52.76000 247.000
52.77500 233.000
52.79000 233.000
52.80500 232.000
52.82000 231.000
52.83500 247.000
52.85000 231.000
52.86500 259.000
52.88000 227.000
52.89500 238.000
52.91000 246.000
52.92500 230.000
52.94000 215.000
52.95500 222.000
52.97000 225.000
52.98500 235.000
53.00000 229.000
53.01500 187.000
53.03000 221.000
53.04500 225.000
53.06000 223.000
53.07500 207.000
53.09000 222.000
53.10500 225.000
53.12000 212.000
53.13500 208.000
53.15000 214.000
53.16500 236.000
53.18000 200.000
53.19500 199.000
53.21000 222.000
53.22500 197.000
53.24000 215.000
53.25500 217.000
53.27000 204.000
53.28500 222.000
53.30000 210.000
53.31500 209.000
53.33000 229.000
53.34500 197.000
53.36000 188.000
53.37500 197.000
53.39000 232.000
53.40500 221.000
53.42000 207.000
53.43500 213.000
53.45000 213.000
53.46500 195.000
53.48000 203.000
53.49500 210.000
53.51000 233.000
53.52500 211.000
53.54000 217.000
53.55500 229.000
53.57000 214.000
53.58500 225.000
53.60000 226.000
53.61500 218.000
53.63000 211.000
53.64500 214.000
53.66000 239.000
53.67500 242.000
53.69000 251.000
53.70500 229.000
53.72000 228.000
53.73500 235.000
53.75000 211.000
53.76500 205.000
53.78000 232.000
53.79500 257.000
53.81000 244.000
53.82500 258.000
53.84000 256.000
53.85500 251.000
53.87000 250.000
53.88500 263.000
53.90000 263.000
53.91500 283.000
53.93000 286.000
53.94500 289.000
53.96000 313.000
53.97500 305.000
53.99000 300.000
54.00500 324.000
54.02000 328.000
54.03500 334.000
54.05000 359.000
54.06500 365.000
54.08000 394.000
54.09500 435.000
54.11000 412.000
54.12500 424.000
54.14000 435.000
54.15500 450.000
54.17000 461.000
54.18500 495.000
54.20000 502.000
54.21500 568.000
54.23000 499.000
54.24500 531.000
54.26000 535.000
54.27500 525.000
54.29000 583.000
54.30500 564.000
54.32000 595.000
54.33500 620.000
54.35000 623.000
54.36500 621.000
54.38000 644.000
54.39500 631.000
54.41000 651.000
54.42500 709.000
54.44000 747.000
54.45500 746.000
54.47000 772.000
54.48500 835.000
54.50000 909.000
54.51500 957.000
54.53000 939.000
54.54500 1031.000
54.56000 1075.000
54.57500 999.000
54.59000 967.000
54.60500 854.000
54.62000 814.000
54.63500 737.000
54.65000 656.000
54.66500 560.000
54.68000 524.000
54.69500 497.000
54.71000 440.000
54.72500 412.000
54.74000 356.000
54.75500 328.000
54.77000 335.000
54.78500 324.000
54.80000 305.000
54.81500 288.000
54.83000 262.000
54.84500 262.000
54.86000 251.000
54.87500 256.000
54.89000 250.000
54.90500 263.000
54.92000 234.000
54.93500 239.000
54.95000 232.000
54.96500 218.000
54.98000 236.000
54.99500 224.000
55.01000 236.000
55.02500 245.000
55.04000 225.000
55.05500 215.000
55.07000 239.000
55.08500 222.000
55.10000 228.000
55.11500 211.000
55.13000 213.000
55.14500 226.000
55.16000 224.000
55.17500 211.000
55.19000 231.000
55.20500 225.000
55.22000 234.000
55.23500 228.000
55.25000 212.000
55.26500 215.000
55.28000 217.000
55.29500 220.000
55.31000 203.000
55.32500 193.000
55.34000 203.000
55.35500 203.000
55.37000 220.000
55.38500 215.000
55.40000 219.000
55.41500 198.000
55.43000 194.000
55.44500 210.000
55.46000 224.000
55.47500 223.000
55.49000 209.000
55.50500 201.000
55.52000 185.000
55.53500 195.000
55.55000 219.000
55.56500 219.000
55.58000 202.000
55.59500 221.000
55.61000 211.000
55.62500 209.000
55.64000 192.000
55.65500 206.000
55.67000 206.000
55.68500 202.000
55.70000 217.000
55.71500 201.000
55.73000 196.000
55.74500 184.000
55.76000 217.000
55.77500 205.000
55.79000 191.000
55.80500 189.000
55.82000 187.000
55.83500 185.000
55.85000 214.000
55.86500 202.000
55.88000 176.000
55.89500 183.000
55.91000 186.000
55.92500 220.000
55.94000 197.000
55.95500 189.000
55.97000 186.000
55.98500 195.000
56.00000 195.000
56.01500 207.000
56.03000 207.000
56.04500 206.000
56.06000 211.000
56.07500 214.000
56.09000 179.000
56.10500 189.000
56.12000 213.000
56.13500 188.000
56.15000 198.000
56.16500 204.000
56.18000 209.000
56.19500 194.000
56.21000 207.000
56.22500 205.000
56.24000 218.000
56.25500 190.000
56.27000 198.000
56.28500 189.000
56.30000 208.000
56.31500 229.000
56.33000 201.000
56.34500 191.000
56.36000 186.000
56.37500 195.000
56.39000 195.000
56.40500 191.000
56.42000 210.000
56.43500 207.000
56.45000 193.000
56.46500 190.000
56.48000 196.000
56.49500 217.000
56.51000 201.000
56.52500 203.000
56.54000 204.000
56.55500 201.000
56.57000 212.000
56.58500 210.000
56.60000 210.000
56.61500 210.000
56.63000 195.000
56.64500 184.000
56.66000 202.000
56.67500 188.000
56.69000 217.000
56.70500 209.000
56.72000 187.000
56.73500 195.000
56.75000 186.000
56.76500 215.000
56.78000 201.000
56.79500 196.000
56.81000 214.000
56.82500 204.000
56.84000 222.000
56.85500 202.000
56.87000 210.000
56.88500 209.000
56.90000 201.000
56.91500 212.000
56.93000 214.000
56.94500 210.000
56.96000 186.000
56.97500 187.000
56.99000 198.000
57.00500 204.000
57.02000 205.000
57.03500 197.000
57.05000 191.000
57.06500 198.000
57.08000 192.000
57.09500 200.000
57.11000 202.000
57.12500 203.000
57.14000 212.000
57.15500 217.000
57.17000 204.000
57.18500 228.000
57.20000 217.000
57.21500 216.000
57.23000 207.000
57.24500 204.000
57.26000 195.000
57.27500 222.000
57.29000 234.000
57.30500 228.000
57.32000 221.000
57.33500 197.000
57.35000 224.000
57.36500 220.000
57.38000 204.000
57.39500 204.000
57.41000 193.000
57.42500 185.000
57.44000 230.000
57.45500 224.000
57.47000 204.000
57.48500 208.000
57.50000 225.000
57.51500 214.000
57.53000 205.000
57.54500 222.000
57.56000 250.000
57.57500 254.000
57.59000 263.000
57.60500 279.000
57.62000 260.000
57.63500 247.000
57.65000 264.000
57.66500 241.000
57.68000 231.000
57.69500 216.000
57.71000 237.000
57.72500 241.000
57.74000 235.000
57.75500 227.000
57.77000 218.000
57.78500 232.000
57.80000 221.000
57.81500 205.000
57.83000 195.000
57.84500 173.000
57.86000 214.000
57.87500 203.000
57.89000 210.000
57.90500 201.000
57.92000 189.000
57.93500 212.000
57.95000 203.000
57.96500 207.000
57.98000 196.000
57.99500 171.000
58.01000 192.000
58.02500 190.000
58.04000 192.000
58.05500 207.000
58.07000 172.000
58.08500 192.000
58.10000 193.000
58.11500 181.000
58.13000 193.000
58.14500 201.000
58.16000 202.000
58.17500 195.000
58.19000 225.000
58.20500 219.000
58.22000 195.000
58.23500 211.000
58.25000 208.000
58.26500 204.000
58.28000 194.000
58.29500 209.000
58.31000 189.000
58.32500 191.000
58.34000 213.000
58.35500 187.000
58.37000 201.000
58.38500 198.000
58.40000 223.000
58.41500 215.000
58.43000 215.000
58.44500 209.000
58.46000 215.000
58.47500 206.000
58.49000 200.000
58.50500 201.000
58.52000 228.000
58.53500 233.000
58.55000 212.000
58.56500 215.000
58.58000 206.000
58.59500 213.000
58.61000 250.000
58.62500 220.000
58.64000 200.000
58.65500 204.000
58.67000 224.000
58.68500 243.000
58.70000 248.000
58.71500 239.000
58.73000 228.000
58.74500 220.000
58.76000 238.000
58.77500 213.000
58.79000 237.000
58.80500 264.000
58.82000 232.000
58.83500 243.000
58.85000 253.000
58.86500 252.000
58.88000 240.000
58.89500 234.000
58.91000 248.000
58.92500 242.000
58.94000 239.000
58.95500 228.000
58.97000 216.000
58.98500 233.000
59.00000 257.000
59.01500 238.000
59.03000 254.000
59.04500 263.000
59.06000 249.000
59.07500 238.000
59.09000 246.000
59.10500 220.000
59.12000 213.000
59.13500 232.000
59.15000 237.000
59.16500 249.000
59.18000 235.000
59.19500 239.000
59.21000 241.000
59.22500 253.000
59.24000 243.000
59.25500 230.000
59.27000 238.000
59.28500 242.000
59.30000 242.000
59.31500 228.000
59.33000 249.000
59.34500 247.000
59.36000 241.000
59.37500 244.000
59.39000 259.000
59.40500 234.000
59.42000 226.000
59.43500 198.000
59.45000 201.000
59.46500 210.000
59.48000 224.000
59.49500 249.000
59.51000 238.000
59.52500 230.000
59.54000 231.000
59.55500 225.000
59.57000 222.000
59.58500 215.000
59.60000 210.000
59.61500 215.000
59.63000 229.000
59.64500 223.000
59.66000 210.000
59.67500 217.000
59.69000 216.000
59.70500 202.000
59.72000 213.000
59.73500 214.000
59.75000 223.000
59.76500 197.000
59.78000 201.000
59.79500 219.000
59.81000 210.000
59.82500 229.000
59.84000 228.000
59.85500 209.000
59.87000 238.000
59.88500 248.000
59.90000 232.000
59.91500 217.000
59.93000 221.000
59.94500 224.000
59.96000 226.000
59.97500 234.000
59.99000 227.000
60.00500 233.000
60.02000 226.000
60.03500 225.000
60.05000 242.000
60.06500 230.000
60.08000 236.000
60.09500 253.000
60.11000 237.000
60.12500 234.000
60.14000 235.000
60.15500 239.000
60.17000 210.000
60.18500 230.000
60.20000 242.000
60.21500 224.000
60.23000 240.000
60.24500 218.000
60.26000 224.000
60.27500 231.000
60.29000 240.000
60.30500 236.000
60.32000 244.000
60.33500 228.000
60.35000 229.000
60.36500 218.000
60.38000 240.000
60.39500 218.000
60.41000 210.000
60.42500 193.000
60.44000 217.000
60.45500 222.000
60.47000 223.000
60.48500 218.000
60.50000 212.000
60.51500 227.000
60.53000 213.000
60.54500 234.000
60.56000 205.000
60.57500 213.000
60.59000 212.000
60.60500 196.000
60.62000 193.000
60.63500 215.000
60.65000 198.000
60.66500 220.000
60.68000 245.000
60.69500 205.000
60.71000 210.000
60.72500 211.000
60.74000 192.000
60.75500 208.000
60.77000 184.000
60.78500 188.000
60.80000 193.000
60.81500 194.000
60.83000 195.000
60.84500 200.000
60.86000 200.000
60.87500 178.000
60.89000 218.000
60.90500 207.000
60.92000 174.000
60.93500 176.000
60.95000 196.000
60.96500 190.000
60.98000 186.000
60.99500 197.000
61.01000 194.000
61.02500 201.000
61.04000 200.000
61.05500 193.000
61.07000 185.000
61.08500 198.000
61.10000 197.000
61.11500 212.000
61.13000 180.000
61.14500 191.000
61.16000 183.000
61.17500 188.000
61.19000 208.000
61.20500 200.000
61.22000 212.000
61.23500 198.000
61.25000 186.000
61.26500 186.000
61.28000 189.000
61.29500 210.000
61.31000 218.000
61.32500 198.000
61.34000 197.000
61.35500 210.000
61.37000 231.000
61.38500 206.000
61.40000 209.000
61.41500 206.000
61.43000 205.000
61.44500 232.000
61.46000 214.000
61.47500 191.000
61.49000 211.000
61.50500 194.000
61.52000 193.000
61.53500 199.000
61.55000 200.000
61.56500 190.000
61.58000 212.000
61.59500 199.000
61.61000 196.000
61.62500 215.000
61.64000 210.000
61.65500 218.000
61.67000 213.000
61.68500 206.000
61.70000 190.000
61.71500 174.000
61.73000 194.000
61.74500 209.000
61.76000 181.000
61.77500 186.000
61.79000 188.000
61.80500 205.000
61.82000 204.000
61.83500 176.000
61.85000 175.000
61.86500 182.000
61.88000 184.000
61.89500 177.000
61.91000 185.000
61.92500 193.000
61.94000 184.000
61.95500 188.000
61.97000 188.000
61.98500 190.000
