2.00000 11.000
2.01500 11.000
2.03000 17.000
2.04500 19.000
2.06000 13.000
2.07500 16.000
2.09000 11.000
2.10500 20.000
2.12000 18.000
2.13500 15.000
2.15000 14.000
2.16500 18.000
2.18000 19.000
2.19500 12.000
2.21000 12.000
2.22500 18.000
2.24000 17.000
2.25500 14.000
2.27000 13.000
2.28500 16.000
2.30000 16.000
2.31500 9.000
2.33000 12.000
2.34500 14.000
2.36000 12.000
2.37500 13.000
2.39000 14.000
2.40500 15.000
2.42000 11.000
2.43500 7.000
2.45000 10.000
2.46500 17.000
2.48000 17.000
2.49500 11.000
2.51000 6.000
2.52500 11.000
2.54000 12.000
2.55500 20.000
2.57000 19.000
2.58500 9.000
2.60000 9.000
2.61500 13.000
2.63000 18.000
2.64500 14.000
2.66000 19.000
2.67500 11.000
2.69000 9.000
2.70500 9.000
2.72000 14.000
2.73500 17.000
2.75000 16.000
2.76500 11.000
2.78000 14.000
2.79500 17.000
2.81000 13.000
2.82500 12.000
2.84000 15.000
2.85500 15.000
2.87000 13.000
2.88500 17.000
2.90000 17.000
2.91500 11.000
2.93000 17.000
2.94500 14.000
2.96000 15.000
2.97500 9.000
2.99000 10.000
3.00500 12.000
3.02000 10.000
3.03500 10.000
3.05000 7.000
3.06500 12.000
3.08000 13.000
3.09500 14.000
3.11000 11.000
3.12500 10.000
3.14000 12.000
3.15500 10.000
3.17000 12.000
3.18500 11.000
3.20000 11.000
3.21500 8.000
3.23000 10.000
3.24500 14.000
3.26000 17.000
3.27500 18.000
3.29000 16.000
3.30500 23.000
3.32000 31.000
3.33500 33.000
3.35000 36.000
3.36500 51.000
3.38000 50.000
3.39500 77.000
3.41000 103.000
3.42500 116.000
3.44000 144.000
3.45500 191.000
3.47000 230.000
3.48500 265.000
3.50000 287.000
3.51500 291.000
3.53000 313.000
3.54500 333.000
3.56000 342.000
3.57500 312.000
3.59000 333.000
3.60500 307.000
3.62000 329.000
3.63500 345.000
3.65000 320.000
3.66500 340.000
3.68000 336.000
3.69500 385.000
3.71000 370.000
3.72500 362.000
3.74000 360.000
3.75500 354.000
3.77000 354.000
3.78500 352.000
3.80000 387.000
3.81500 378.000
3.83000 355.000
3.84500 365.000
3.86000 334.000
3.87500 368.000
3.89000 377.000
3.90500 368.000
3.92000 371.000
3.93500 397.000
3.95000 416.000
3.96500 399.000
3.98000 395.000
3.99500 404.000
4.01000 411.000
4.02500 432.000
4.04000 431.000
4.05500 434.000
4.07000 447.000
4.08500 448.000
4.10000 406.000
4.11500 408.000
4.13000 422.000
4.14500 420.000
4.16000 446.000
4.17500 457.000
4.19000 393.000
4.20500 409.000
4.22000 432.000
4.23500 416.000
4.25000 429.000
4.26500 450.000
4.28000 448.000
4.29500 437.000
4.31000 485.000
4.32500 441.000
4.34000 415.000
4.35500 453.000
4.37000 439.000
4.38500 447.000
4.40000 473.000
4.41500 460.000
4.43000 468.000
4.44500 454.000
4.46000 462.000
4.47500 469.000
4.49000 456.000
4.50500 463.000
4.52000 487.000
4.53500 462.000
4.55000 503.000
4.56500 480.000
4.58000 468.000
4.59500 508.000
4.61000 479.000
4.62500 477.000
4.64000 475.000
4.65500 507.000
4.67000 476.000
4.68500 488.000
4.70000 500.000
4.71500 499.000
4.73000 491.000
4.74500 474.000
4.76000 473.000
4.77500 505.000
4.79000 511.000
4.80500 499.000
4.82000 551.000
4.83500 499.000
4.85000 513.000
4.86500 552.000
4.88000 516.000
4.89500 534.000
4.91000 534.000
4.92500 497.000
4.94000 556.000
4.95500 542.000
4.97000 513.000
4.98500 550.000
5.00000 537.000
5.01500 549.000
5.03000 545.000
5.04500 571.000
5.06000 550.000
5.07500 520.000
5.09000 519.000
5.10500 539.000
5.12000 542.000
5.13500 570.000
5.15000 531.000
5.16500 544.000
5.18000 595.000
5.19500 573.000
5.21000 550.000
5.22500 571.000
5.24000 556.000
5.25500 589.000
5.27000 566.000
5.28500 559.000
5.30000 584.000
5.31500 566.000
5.33000 540.000
5.34500 542.000
5.36000 568.000
5.37500 606.000
5.39000 545.000
5.40500 559.000
5.42000 573.000
5.43500 625.000
5.45000 606.000
5.46500 577.000
5.48000 565.000
5.49500 574.000
5.51000 585.000
5.52500 583.000
5.54000 636.000
5.55500 595.000
5.57000 590.000
5.58500 576.000
5.60000 561.000
5.61500 581.000
5.63000 590.000
5.64500 598.000
5.66000 579.000
5.67500 614.000
5.69000 632.000
5.70500 613.000
5.72000 630.000
5.73500 645.000
5.75000 634.000
5.76500 607.000
5.78000 622.000
5.79500 669.000
5.81000 648.000
5.82500 652.000
5.84000 608.000
5.85500 599.000
5.87000 671.000
5.88500 656.000
5.90000 617.000
5.91500 615.000
5.93000 643.000
5.94500 648.000
5.96000 662.000
5.97500 633.000
5.99000 611.000
6.00500 652.000
6.02000 633.000
6.03500 631.000
6.05000 620.000
6.06500 616.000
6.08000 652.000
6.09500 653.000
6.11000 662.000
6.12500 640.000
6.14000 630.000
6.15500 662.000
6.17000 662.000
6.18500 662.000
6.20000 691.000
6.21500 685.000
6.23000 677.000
6.24500 678.000
6.26000 617.000
6.27500 637.000
6.29000 671.000
6.30500 656.000
6.32000 645.000
6.33500 673.000
6.35000 677.000
6.36500 642.000
6.38000 657.000
6.39500 685.000
6.41000 677.000
6.42500 656.000
6.44000 683.000
6.45500 673.000
6.47000 676.000
6.48500 645.000
6.50000 679.000
6.51500 685.000
6.53000 663.000
6.54500 648.000
6.56000 688.000
6.57500 669.000
6.59000 692.000
6.60500 700.000
6.62000 700.000
6.63500 664.000
6.65000 678.000
6.66500 720.000
6.68000 678.000
6.69500 636.000
6.71000 674.000
6.72500 721.000
6.74000 739.000
6.75500 701.000
6.77000 664.000
6.78500 680.000
6.80000 722.000
6.81500 687.000
6.83000 710.000
6.84500 686.000
6.86000 696.000
6.87500 696.000
6.89000 734.000
6.90500 727.000
6.92000 680.000
6.93500 681.000
6.95000 706.000
6.96500 687.000
6.98000 661.000
6.99500 690.000
7.01000 744.000
7.02500 744.000
7.04000 682.000
7.05500 695.000
7.07000 729.000
7.08500 696.000
7.10000 701.000
7.11500 690.000
7.13000 656.000
7.14500 696.000
7.16000 733.000
7.17500 714.000
7.19000 700.000
7.20500 692.000
7.22000 740.000
7.23500 724.000
7.25000 691.000
7.26500 726.000
7.28000 726.000
7.29500 705.000
7.31000 703.000
7.32500 728.000
7.34000 728.000
7.35500 726.000
7.37000 698.000
7.38500 699.000
7.40000 734.000
7.41500 736.000
7.43000 753.000
7.44500 730.000
7.46000 726.000
7.47500 760.000
7.49000 734.000
7.50500 728.000
7.52000 770.000
7.53500 720.000
7.55000 699.000
7.56500 730.000
7.58000 772.000
7.59500 766.000
7.61000 757.000
7.62500 733.000
7.64000 727.000
7.65500 756.000
7.67000 738.000
7.68500 721.000
7.70000 760.000
7.71500 718.000
7.73000 736.000
7.74500 735.000
7.76000 720.000
7.77500 700.000
7.79000 760.000
7.80500 779.000
7.82000 766.000
7.83500 765.000
7.85000 753.000
7.86500 744.000
7.88000 709.000
7.89500 766.000
7.91000 748.000
7.92500 767.000
7.94000 750.000
7.95500 707.000
7.97000 732.000
7.98500 783.000
8.00000 779.000
8.01500 749.000
8.03000 736.000
8.04500 739.000
8.06000 733.000
8.07500 749.000
8.09000 746.000
8.10500 748.000
8.12000 765.000
8.13500 751.000
8.15000 790.000
8.16500 788.000
8.18000 792.000
8.19500 793.000
8.21000 792.000
8.22500 738.000
8.24000 746.000
8.25500 744.000
8.27000 737.000
8.28500 753.000
8.30000 768.000
8.31500 795.000
8.33000 737.000
8.34500 705.000
8.36000 751.000
8.37500 779.000
8.39000 813.000
8.40500 774.000
8.42000 747.000
8.43500 782.000
8.45000 771.000
8.46500 710.000
8.48000 743.000
8.49500 788.000
8.51000 756.000
8.52500 789.000
8.54000 782.000
8.55500 774.000
8.57000 763.000
8.58500 806.000
8.60000 777.000
8.61500 764.000
8.63000 765.000
8.64500 781.000
8.66000 770.000
8.67500 778.000
8.69000 780.000
8.70500 781.000
8.72000 795.000
8.73500 765.000
8.75000 777.000
8.76500 755.000
8.78000 739.000
8.79500 783.000
8.81000 804.000
8.82500 824.000
8.84000 825.000
8.85500 777.000
8.87000 745.000
8.88500 767.000
8.90000 791.000
8.91500 815.000
8.93000 803.000
8.94500 774.000
8.96000 752.000
8.97500 765.000
8.99000 790.000
9.00500 745.000
9.02000 800.000
9.03500 809.000
9.05000 785.000
9.06500 815.000
9.08000 838.000
9.09500 814.000
9.11000 828.000
9.12500 811.000
9.14000 777.000
9.15500 799.000
9.17000 764.000
9.18500 769.000
9.20000 755.000
9.21500 765.000
9.23000 797.000
9.24500 766.000
9.26000 774.000
9.27500 820.000
9.29000 809.000
9.30500 792.000
9.32000 807.000
9.33500 766.000
9.35000 813.000
9.36500 804.000
9.38000 779.000
9.39500 778.000
9.41000 832.000
9.42500 805.000
9.44000 789.000
9.45500 770.000
9.47000 805.000
9.48500 773.000
9.50000 797.000
9.51500 824.000
9.53000 770.000
9.54500 786.000
9.56000 814.000
9.57500 787.000
9.59000 790.000
9.60500 777.000
9.62000 833.000
9.63500 839.000
9.65000 812.000
9.66500 853.000
9.68000 833.000
9.69500 819.000
9.71000 851.000
9.72500 826.000
9.74000 815.000
9.75500 794.000
9.77000 818.000
9.78500 807.000
9.80000 771.000
9.81500 827.000
9.83000 809.000
9.84500 837.000
9.86000 820.000
9.87500 792.000
9.89000 813.000
9.90500 796.000
9.92000 807.000
9.93500 806.000
9.95000 798.000
9.96500 805.000
9.98000 790.000
9.99500 836.000
10.01000 870.000
10.02500 880.000
10.04000 798.000
10.05500 796.000
10.07000 832.000
10.08500 825.000
10.10000 851.000
10.11500 804.000
10.13000 820.000
10.14500 813.000
10.16000 794.000
10.17500 812.000
10.19000 834.000
10.20500 787.000
10.22000 818.000
10.23500 847.000
10.25000 848.000
10.26500 796.000
10.28000 839.000
10.29500 827.000
10.31000 777.000
10.32500 792.000
10.34000 791.000
10.35500 795.000
10.37000 871.000
10.38500 836.000
10.40000 839.000
10.41500 808.000
10.43000 865.000
10.44500 840.000
10.46000 807.000
10.47500 832.000
10.49000 868.000
10.50500 824.000
10.52000 888.000
10.53500 812.000
10.55000 759.000
10.56500 763.000
10.58000 809.000
10.59500 816.000
10.61000 785.000
10.62500 837.000
10.64000 817.000
10.65500 831.000
10.67000 853.000
10.68500 795.000
10.70000 796.000
10.71500 837.000
10.73000 771.000
10.74500 820.000
10.76000 838.000
10.77500 839.000
10.79000 797.000
10.80500 829.000
10.82000 817.000
10.83500 820.000
10.85000 848.000
10.86500 787.000
10.88000 761.000
10.89500 839.000
10.91000 881.000
10.92500 838.000
10.94000 840.000
10.95500 838.000
10.97000 831.000
10.98500 865.000
11.00000 795.000
11.01500 852.000
11.03000 831.000
11.04500 827.000
11.06000 869.000
11.07500 845.000
11.09000 840.000
11.10500 847.000
11.12000 804.000
11.13500 806.000
11.15000 850.000
11.16500 879.000
11.18000 864.000
11.19500 849.000
11.21000 867.000
11.22500 868.000
11.24000 874.000
11.25500 865.000
11.27000 859.000
11.28500 806.000
11.30000 851.000
11.31500 862.000
11.33000 819.000
11.34500 862.000
11.36000 901.000
11.37500 865.000
11.39000 895.000
11.40500 885.000
11.42000 859.000
11.43500 837.000
11.45000 859.000
11.46500 867.000
11.48000 818.000
11.49500 866.000
11.51000 868.000
11.52500 873.000
11.54000 877.000
11.55500 867.000
11.57000 880.000
11.58500 827.000
11.60000 871.000
11.61500 884.000
11.63000 860.000
11.64500 884.000
11.66000 892.000
11.67500 889.000
11.69000 897.000
11.70500 875.000
11.72000 913.000
11.73500 910.000
11.75000 894.000
11.76500 897.000
11.78000 911.000
11.79500 970.000
11.81000 937.000
11.82500 964.000
11.84000 997.000
11.85500 993.000
11.87000 1026.000
11.88500 1079.000
11.90000 1127.000
11.91500 1161.000
11.93000 1249.000
11.94500 1298.000
11.96000 1466.000
11.97500 1590.000
11.99000 1823.000
12.00500 1958.000
12.02000 2230.000
12.03500 2589.000
12.05000 2988.000
12.06500 3586.000
12.08000 4327.000
12.09500 5057.000
12.11000 5912.000
12.12500 6513.000
12.14000 6828.000
12.15500 7901.000
12.17000 9189.000
12.18500 10682.000
12.20000 13086.000
12.21500 16458.000
12.23000 20499.000
12.24500 24793.000
12.26000 29594.000
12.27500 32530.000
12.29000 28353.000
12.30500 19005.000
12.32000 10568.000
12.33500 5739.000
12.35000 3782.000
12.36500 2820.000
12.38000 2523.000
12.39500 2326.000
12.41000 2314.000
12.42500 2324.000
12.44000 2423.000
12.45500 2616.000
12.47000 2758.000
12.48500 2907.000
12.50000 3096.000
12.51500 3093.000
12.53000 3125.000
12.54500 3051.000
12.56000 2775.000
12.57500 2471.000
12.59000 2220.000
12.60500 1877.000
12.62000 1680.000
12.63500 1485.000
12.65000 1342.000
12.66500 1219.000
12.68000 1123.000
12.69500 1096.000
12.71000 1073.000
12.72500 1036.000
12.74000 1067.000
12.75500 1010.000
12.77000 984.000
12.78500 977.000
12.80000 968.000
12.81500 926.000
12.83000 926.000
12.84500 912.000
12.86000 930.000
12.87500 975.000
12.89000 958.000
12.90500 956.000
12.92000 913.000
12.93500 928.000
12.95000 960.000
12.96500 929.000
12.98000 939.000
12.99500 998.000
13.01000 964.000
13.02500 981.000
13.04000 962.000
13.05500 955.000
13.07000 971.000
13.08500 978.000
13.10000 968.000
13.11500 990.000
13.13000 994.000
13.14500 1048.000
13.16000 1034.000
13.17500 1104.000
13.19000 1126.000
13.20500 1137.000
13.22000 1243.000
13.23500 1240.000
13.25000 1270.000
13.26500 1414.000
13.28000 1588.000
13.29500 1745.000
13.31000 1879.000
13.32500 2113.000
13.34000 2430.000
13.35500 2794.000
13.37000 3211.000
13.38500 3716.000
13.40000 4472.000
13.41500 5471.000
13.43000 6414.000
13.44500 7064.000
13.46000 6793.000
13.47500 5085.000
13.49000 3290.000
13.50500 2229.000
13.52000 1701.000
13.53500 1557.000
13.55000 1452.000
13.56500 1457.000
13.58000 1494.000
13.59500 1600.000
13.61000 1721.000
13.62500 1848.000
13.64000 2021.000
13.65500 2241.000
13.67000 2426.000
13.68500 2737.000
13.70000 3127.000
13.71500 3430.000
13.73000 3827.000
13.74500 4090.000
13.76000 4081.000
13.77500 4112.000
13.79000 3900.000
13.80500 3481.000
13.82000 2911.000
13.83500 2452.000
13.85000 2034.000
13.86500 1696.000
13.88000 1472.000
13.89500 1295.000
13.91000 1156.000
13.92500 1051.000
13.94000 1047.000
13.95500 1030.000
13.97000 961.000
13.98500 928.000
14.00000 915.000
14.01500 900.000
14.03000 856.000
14.04500 889.000
14.06000 885.000
14.07500 860.000
14.09000 918.000
14.10500 877.000
14.12000 884.000
14.13500 856.000
14.15000 862.000
14.16500 895.000
14.18000 849.000
14.19500 840.000
14.21000 912.000
14.22500 884.000
14.24000 880.000
14.25500 902.000
14.27000 885.000
14.28500 845.000
14.30000 846.000
14.31500 856.000
14.33000 828.000
14.34500 848.000
14.36000 897.000
14.37500 840.000
14.39000 832.000
14.40500 826.000
14.42000 862.000
14.43500 873.000
14.45000 829.000
14.46500 860.000
14.48000 855.000
14.49500 865.000
14.51000 851.000
14.52500 862.000
14.54000 855.000
14.55500 889.000
14.57000 860.000
14.58500 876.000
14.60000 846.000
14.61500 834.000
14.63000 818.000
14.64500 844.000
14.66000 874.000
14.67500 881.000
14.69000 858.000
14.70500 847.000
14.72000 836.000
14.73500 883.000
14.75000 870.000
14.76500 856.000
14.78000 868.000
14.79500 860.000
14.81000 839.000
14.82500 906.000
14.84000 903.000
14.85500 875.000
14.87000 838.000
14.88500 847.000
14.90000 869.000
14.91500 838.000
14.93000 853.000
14.94500 861.000
14.96000 868.000
14.97500 832.000
14.99000 829.000
15.00500 895.000
15.02000 855.000
15.03500 898.000
15.05000 873.000
15.06500 844.000
15.08000 822.000
15.09500 845.000
15.11000 839.000
15.12500 843.000
15.14000 873.000
15.15500 827.000
15.17000 855.000
15.18500 820.000
15.20000 867.000
15.21500 879.000
15.23000 816.000
15.24500 823.000
15.26000 842.000
15.27500 854.000
15.29000 829.000
15.30500 872.000
15.32000 839.000
15.33500 855.000
15.35000 822.000
15.36500 820.000
15.38000 859.000
15.39500 812.000
15.41000 863.000
15.42500 838.000
15.44000 828.000
15.45500 840.000
15.47000 817.000
15.48500 879.000
15.50000 865.000
15.51500 834.000
15.53000 863.000
15.54500 832.000
15.56000 870.000
15.57500 835.000
15.59000 833.000
15.60500 858.000
15.62000 819.000
15.63500 850.000
15.65000 840.000
15.66500 886.000
15.68000 843.000
15.69500 875.000
15.71000 847.000
15.72500 879.000
15.74000 859.000
15.75500 871.000
15.77000 809.000
15.78500 844.000
15.80000 845.000
15.81500 829.000
15.83000 841.000
15.84500 856.000
15.86000 893.000
15.87500 887.000
15.89000 900.000
15.90500 862.000
15.92000 879.000
15.93500 873.000
15.95000 884.000
15.96500 909.000
15.98000 867.000
15.99500 838.000
16.01000 864.000
16.02500 861.000
16.04000 893.000
16.05500 868.000
16.07000 890.000
16.08500 886.000
16.10000 864.000
16.11500 905.000
16.13000 860.000
16.14500 903.000
16.16000 882.000
16.17500 925.000
16.19000 938.000
16.20500 943.000
16.22000 949.000
16.23500 963.000
16.25000 979.000
16.26500 1010.000
16.28000 1087.000
16.29500 1145.000
16.31000 1148.000
16.32500 1256.000
16.34000 1364.000
16.35500 1433.000
16.37000 1590.000
16.38500 1779.000
16.40000 2021.000
16.41500 2226.000
16.43000 2367.000
16.44500 2417.000
16.46000 2374.000
16.47500 2302.000
16.49000 2175.000
16.50500 2122.000
16.52000 1843.000
16.53500 1561.000
16.55000 1368.000
16.56500 1257.000
16.58000 1168.000
16.59500 1193.000
16.61000 1181.000
16.62500 1168.000
16.64000 1161.000
16.65500 1234.000
16.67000 1269.000
16.68500 1295.000
16.70000 1347.000
16.71500 1353.000
16.73000 1344.000
16.74500 1403.000
16.76000 1362.000
16.77500 1353.000
16.79000 1269.000
16.80500 1279.000
16.82000 1346.000
16.83500 1331.000
16.85000 1384.000
16.86500 1395.000
16.88000 1502.000
16.89500 1622.000
16.91000 1751.000
16.92500 1974.000
16.94000 2201.000
16.95500 2117.000
16.97000 1756.000
16.98500 1498.000
17.00000 1155.000
17.01500 1077.000
17.03000 985.000
17.04500 943.000
17.06000 930.000
17.07500 896.000
17.09000 886.000
17.10500 910.000
17.12000 919.000
17.13500 911.000
17.15000 885.000
17.16500 899.000
17.18000 901.000
17.19500 901.000
17.21000 900.000
17.22500 857.000
17.24000 931.000
17.25500 849.000
17.27000 863.000
17.28500 854.000
17.30000 854.000
17.31500 889.000
17.33000 884.000
17.34500 906.000
17.36000 887.000
17.37500 872.000
17.39000 912.000
17.40500 903.000
17.42000 883.000
17.43500 901.000
17.45000 830.000
17.46500 905.000
17.48000 902.000
17.49500 921.000
17.51000 936.000
17.52500 927.000
17.54000 904.000
17.55500 961.000
17.57000 972.000
17.58500 982.000
17.60000 961.000
17.61500 913.000
17.63000 876.000
17.64500 900.000
17.66000 875.000
17.67500 906.000
17.69000 863.000
17.70500 892.000
17.72000 925.000
17.73500 899.000
17.75000 904.000
17.76500 921.000
17.78000 899.000
17.79500 919.000
17.81000 913.000
17.82500 929.000
17.84000 955.000
17.85500 964.000
17.87000 944.000
17.88500 921.000
17.90000 980.000
17.91500 1065.000
17.93000 1068.000
17.94500 1112.000
17.96000 1205.000
17.97500 1298.000
17.99000 1426.000
18.00500 1587.000
18.02000 1791.000
18.03500 2135.000
18.05000 2469.000
18.06500 2828.000
18.08000 2934.000
18.09500 2699.000
18.11000 2248.000
18.12500 1756.000
18.14000 1342.000
18.15500 1276.000
18.17000 1124.000
18.18500 1069.000
18.20000 1008.000
18.21500 1019.000
18.23000 1046.000
18.24500 1012.000
18.26000 1047.000
18.27500 1059.000
18.29000 1057.000
18.30500 1006.000
18.32000 1078.000
18.33500 1071.000
18.35000 1132.000
18.36500 1132.000
18.38000 1107.000
18.39500 1145.000
18.41000 1137.000
18.42500 1159.000
18.44000 1153.000
18.45500 1161.000
18.47000 1123.000
18.48500 1078.000
18.50000 1022.000
18.51500 1065.000
18.53000 1062.000
18.54500 988.000
18.56000 931.000
18.57500 945.000
18.59000 988.000
18.60500 928.000
18.62000 954.000
18.63500 941.000
18.65000 952.000
18.66500 889.000
18.68000 910.000
18.69500 958.000
18.71000 875.000
18.72500 916.000
18.74000 913.000
18.75500 942.000
18.77000 938.000
18.78500 951.000
18.80000 958.000
18.81500 923.000
18.83000 905.000
18.84500 917.000
18.86000 924.000
18.87500 931.000
18.89000 957.000
18.90500 956.000
18.92000 878.000
18.93500 933.000
18.95000 942.000
18.96500 925.000
18.98000 943.000
18.99500 973.000
19.01000 924.000
19.02500 967.000
19.04000 970.000
19.05500 965.000
19.07000 945.000
19.08500 1059.000
19.10000 1062.000
19.11500 1023.000
19.13000 1054.000
19.14500 1088.000
19.16000 1163.000
19.17500 1137.000
19.19000 1225.000
19.20500 1215.000
19.22000 1182.000
19.23500 1232.000
19.25000 1307.000
19.26500 1284.000
19.28000 1318.000
19.29500 1383.000
19.31000 1478.000
19.32500 1621.000
19.34000 1718.000
19.35500 1943.000
19.37000 2028.000
19.38500 2294.000
19.40000 2669.000
19.41500 3064.000
19.43000 3487.000
19.44500 4040.000
19.46000 4309.000
19.47500 4092.000
19.49000 3441.000
19.50500 2806.000
19.52000 2339.000
19.53500 2116.000
19.55000 2162.000
19.56500 2286.000
19.58000 2577.000
19.59500 3006.000
19.61000 3637.000
19.62500 4261.000
19.64000 4760.000
19.65500 4694.000
19.67000 3884.000
19.68500 2954.000
19.70000 2220.000
19.71500 1919.000
19.73000 1655.000
19.74500 1407.000
19.76000 1306.000
19.77500 1304.000
19.79000 1179.000
19.80500 1135.000
19.82000 1075.000
19.83500 1091.000
19.85000 1047.000
19.86500 965.000
19.88000 969.000
19.89500 938.000
19.91000 931.000
19.92500 943.000
19.94000 940.000
19.95500 935.000
19.97000 935.000
19.98500 956.000
20.00000 932.000
20.01500 967.000
20.03000 945.000
20.04500 931.000
20.06000 926.000
20.07500 898.000
20.09000 913.000
20.10500 869.000
20.12000 907.000
20.13500 904.000
20.15000 936.000
20.16500 961.000
20.18000 952.000
20.19500 958.000
20.21000 924.000
20.22500 899.000
20.24000 899.000
20.25500 935.000
20.27000 912.000
20.28500 919.000
20.30000 906.000
20.31500 957.000
20.33000 962.000
20.34500 960.000
20.36000 946.000
20.37500 940.000
20.39000 941.000
20.40500 962.000
20.42000 922.000
20.43500 942.000
20.45000 918.000
20.46500 934.000
20.48000 984.000
20.49500 1063.000
20.51000 1054.000
20.52500 1062.000
20.54000 1113.000
20.55500 1173.000
20.57000 1230.000
20.58500 1289.000
20.60000 1284.000
20.61500 1235.000
20.63000 1230.000
20.64500 1193.000
20.66000 1125.000
20.67500 1040.000
20.69000 919.000
20.70500 922.000
20.72000 954.000
20.73500 940.000
20.75000 931.000
20.76500 981.000
20.78000 933.000
20.79500 907.000
20.81000 881.000
20.82500 917.000
20.84000 900.000
20.85500 933.000
20.87000 934.000
20.88500 902.000
20.90000 912.000
20.91500 868.000
20.93000 922.000
20.94500 929.000
20.96000 949.000
20.97500 904.000
20.99000 904.000
21.00500 933.000
21.02000 907.000
21.03500 942.000
21.05000 907.000
21.06500 951.000
21.08000 922.000
21.09500 942.000
21.11000 913.000
21.12500 921.000
21.14000 916.000
21.15500 933.000
21.17000 916.000
21.18500 921.000
21.20000 917.000
21.21500 971.000
21.23000 945.000
21.24500 942.000
21.26000 949.000
21.27500 940.000
21.29000 911.000
21.30500 927.000
21.32000 924.000
21.33500 952.000
21.35000 951.000
21.36500 962.000
21.38000 990.000
21.39500 967.000
21.41000 963.000
21.42500 984.000
21.44000 1032.000
21.45500 986.000
21.47000 1041.000
21.48500 1076.000
21.50000 1146.000
21.51500 1153.000
21.53000 1163.000
21.54500 1238.000
21.56000 1367.000
21.57500 1460.000
21.59000 1553.000
21.60500 1761.000
21.62000 2020.000
21.63500 2185.000
21.65000 2626.000
21.66500 2883.000
21.68000 3150.000
21.69500 3395.000
21.71000 3362.000
21.72500 3137.000
21.74000 2653.000
21.75500 2333.000
21.77000 2269.000
21.78500 2174.000
21.80000 2216.000
21.81500 2334.000
21.83000 2371.000
21.84500 2510.000
21.86000 2525.000
21.87500 2600.000
21.89000 2553.000
21.90500 2556.000
21.92000 2450.000
21.93500 2293.000
21.95000 2148.000
21.96500 2129.000
21.98000 1983.000
21.99500 1829.000
22.01000 1692.000
22.02500 1600.000
22.04000 1604.000
22.05500 1541.000
22.07000 1442.000
22.08500 1471.000
22.10000 1429.000
22.11500 1484.000
22.13000 1535.000
22.14500 1519.000
22.16000 1640.000
22.17500 1798.000
22.19000 1952.000
22.20500 2049.000
22.22000 2118.000
22.23500 1827.000
22.25000 1535.000
22.26500 1374.000
22.28000 1230.000
22.29500 1150.000
22.31000 1099.000
22.32500 1031.000
22.34000 1024.000
22.35500 1061.000
22.37000 1007.000
22.38500 1034.000
22.40000 932.000
22.41500 923.000
22.43000 949.000
22.44500 976.000
22.46000 962.000
22.47500 965.000
22.49000 956.000
22.50500 888.000
22.52000 974.000
22.53500 1028.000
22.55000 986.000
22.56500 955.000
22.58000 936.000
22.59500 893.000
22.61000 968.000
22.62500 972.000
22.64000 955.000
22.65500 990.000
22.67000 975.000
22.68500 961.000
22.70000 950.000
22.71500 956.000
22.73000 981.000
22.74500 967.000
22.76000 900.000
22.77500 927.000
22.79000 993.000
22.80500 936.000
22.82000 954.000
22.83500 926.000
22.85000 915.000
22.86500 930.000
22.88000 911.000
22.89500 921.000
22.91000 961.000
22.92500 1009.000
22.94000 951.000
22.95500 983.000
22.97000 927.000
22.98500 937.000
23.00000 943.000
23.01500 1001.000
23.03000 918.000
23.04500 944.000
23.06000 951.000
23.07500 885.000
23.09000 937.000
23.10500 969.000
23.12000 968.000
23.13500 969.000
23.15000 983.000
23.16500 961.000
23.18000 971.000
23.19500 984.000
23.21000 999.000
23.22500 996.000
23.24000 1025.000
23.25500 1022.000
23.27000 966.000
23.28500 1027.000
23.30000 976.000
23.31500 985.000
23.33000 971.000
23.34500 976.000
23.36000 981.000
23.37500 955.000
23.39000 984.000
23.40500 1025.000
23.42000 973.000
23.43500 971.000
23.45000 940.000
23.46500 953.000
23.48000 966.000
23.49500 1003.000
23.51000 1039.000
23.52500 983.000
23.54000 946.000
23.55500 1006.000
23.57000 1000.000
23.58500 990.000
23.60000 1007.000
23.61500 980.000
23.63000 1013.000
23.64500 1001.000
23.66000 1013.000
23.67500 1028.000
23.69000 1054.000
23.70500 1061.000
23.72000 1062.000
23.73500 1020.000
23.75000 1065.000
23.76500 1082.000
23.78000 1054.000
23.79500 1058.000
23.81000 1086.000
23.82500 1144.000
23.84000 1142.000
23.85500 1199.000
23.87000 1196.000
23.88500 1252.000
23.90000 1359.000
23.91500 1429.000
23.93000 1486.000
23.94500 1536.000
23.96000 1720.000
23.97500 1678.000
23.99000 1607.000
24.00500 1502.000
24.02000 1308.000
24.03500 1126.000
24.05000 1042.000
24.06500 1073.000
24.08000 1039.000
24.09500 1066.000
24.11000 1073.000
24.12500 1040.000
24.14000 998.000
24.15500 982.000
24.17000 1041.000
24.18500 1055.000
24.20000 1101.000
24.21500 1099.000
24.23000 1150.000
24.24500 1162.000
24.26000 1204.000
24.27500 1257.000
24.29000 1389.000
24.30500 1580.000
24.32000 1640.000
24.33500 1680.000
24.35000 1579.000
24.36500 1491.000
24.38000 1375.000
24.39500 1230.000
24.41000 1178.000
24.42500 1130.000
24.44000 1139.000
24.45500 1092.000
24.47000 1054.000
24.48500 1084.000
24.50000 1100.000
24.51500 1152.000
24.53000 1180.000
24.54500 1223.000
24.56000 1262.000
24.57500 1335.000
24.59000 1469.000
24.60500 1586.000
24.62000 1748.000
24.63500 1837.000
24.65000 2087.000
24.66500 2320.000
24.68000 2462.000
24.69500 2581.000
24.71000 2391.000
24.72500 2211.000
24.74000 1989.000
24.75500 1840.000
24.77000 1725.000
24.78500 1712.000
24.80000 1671.000
24.81500 1661.000
24.83000 1543.000
24.84500 1600.000
24.86000 1598.000
24.87500 1591.000
24.89000 1648.000
24.90500 1733.000
24.92000 1810.000
24.93500 1923.000
24.95000 1997.000
24.96500 2123.000
24.98000 2419.000
24.99500 2502.000
25.01000 2769.000
25.02500 3130.000
25.04000 3458.000
25.05500 3755.000
25.07000 4271.000
25.08500 4489.000
25.10000 4795.000
25.11500 5130.000
25.13000 5206.000
25.14500 5423.000
25.16000 5484.000
25.17500 5379.000
25.19000 5074.000
25.20500 4791.000
25.22000 4536.000
25.23500 4179.000
25.25000 3735.000
25.26500 3480.000
25.28000 3152.000
25.29500 2893.000
25.31000 2621.000
25.32500 2476.000
25.34000 2331.000
25.35500 2210.000
25.37000 2035.000
25.38500 2013.000
25.40000 1910.000
25.41500 1858.000
25.43000 1926.000
25.44500 1868.000
25.46000 1908.000
25.47500 1912.000
25.49000 1943.000
25.50500 1940.000
25.52000 2033.000
25.53500 2148.000
25.55000 2115.000
25.56500 2192.000
25.58000 2345.000
25.59500 2655.000
25.61000 2923.000
25.62500 3314.000
25.64000 3772.000
25.65500 4410.000
25.67000 5178.000
25.68500 6175.000
25.70000 7422.000
25.71500 8931.000
25.73000 10250.000
25.74500 11212.000
25.76000 11252.000
25.77500 10257.000
25.79000 8359.000
25.80500 6694.000
25.82000 5433.000
25.83500 4395.000
25.85000 3606.000
25.86500 3066.000
25.88000 2630.000
25.89500 2420.000
25.91000 2211.000
25.92500 2007.000
25.94000 1930.000
25.95500 1821.000
25.97000 1745.000
25.98500 1780.000
26.00000 1700.000
26.01500 1700.000
26.03000 1708.000
26.04500 1676.000
26.06000 1741.000
26.07500 1869.000
26.09000 1932.000
26.10500 2026.000
26.12000 2197.000
26.13500 2400.000
26.15000 2785.000
26.16500 3253.000
26.18000 3931.000
26.19500 4723.000
26.21000 5543.000
26.22500 6804.000
26.24000 8178.000
26.25500 9581.000
26.27000 10137.000
26.28500 9667.000
26.30000 8124.000
26.31500 6459.000
26.33000 4851.000
26.34500 3850.000
26.36000 3186.000
26.37500 2691.000
26.39000 2489.000
26.40500 2326.000
26.42000 2128.000
26.43500 2047.000
26.45000 2044.000
26.46500 2042.000
26.48000 2072.000
26.49500 2029.000
26.51000 1905.000
26.52500 1772.000
26.54000 1657.000
26.55500 1485.000
26.57000 1391.000
26.58500 1403.000
26.60000 1303.000
26.61500 1284.000
26.63000 1291.000
26.64500 1256.000
26.66000 1251.000
26.67500 1255.000
26.69000 1303.000
26.70500 1266.000
26.72000 1245.000
26.73500 1279.000
26.75000 1319.000
26.76500 1338.000
26.78000 1381.000
26.79500 1429.000
26.81000 1502.000
26.82500 1600.000
26.84000 1597.000
26.85500 1701.000
26.87000 1743.000
26.88500 1832.000
26.90000 1972.000
26.91500 2159.000
26.93000 2323.000
26.94500 2399.000
26.96000 2635.000
26.97500 2800.000
26.99000 2961.000
27.00500 3155.000
27.02000 3474.000
27.03500 3805.000
27.05000 4166.000
27.06500 4429.000
27.08000 4545.000
27.09500 4623.000
27.11000 4387.000
27.12500 4048.000
27.14000 3553.000
27.15500 3213.000
27.17000 3018.000
27.18500 2694.000
27.20000 2610.000
27.21500 2522.000
27.23000 2245.000
27.24500 2115.000
27.26000 2035.000
27.27500 1925.000
27.29000 1853.000
27.30500 1701.000
27.32000 1652.000
27.33500 1630.000
27.35000 1551.000
27.36500 1495.000
27.38000 1533.000
27.39500 1542.000
27.41000 1609.000
27.42500 1642.000
27.44000 1661.000
27.45500 1681.000
27.47000 1723.000
27.48500 1821.000
27.50000 1927.000
27.51500 2037.000
27.53000 2097.000
27.54500 2209.000
27.56000 2403.000
27.57500 2688.000
27.59000 2941.000
27.60500 3148.000
27.62000 3521.000
27.63500 4109.000
27.65000 4724.000
27.66500 5538.000
27.68000 6438.000
27.69500 7629.000
27.71000 9079.000
27.72500 10802.000
27.74000 12783.000
27.75500 15024.000
27.77000 17349.000
27.78500 19051.000
27.80000 18315.000
27.81500 15845.000
27.83000 12154.000
27.84500 9264.000
27.86000 7174.000
27.87500 5525.000
27.89000 4517.000
27.90500 3787.000
27.92000 3191.000
27.93500 2728.000
27.95000 2302.000
27.96500 2098.000
27.98000 1946.000
27.99500 1845.000
28.01000 1706.000
28.02500 1552.000
28.04000 1496.000
28.05500 1414.000
28.07000 1384.000
28.08500 1345.000
28.10000 1304.000
28.11500 1267.000
28.13000 1154.000
28.14500 1176.000
28.16000 1210.000
28.17500 1138.000
28.19000 1142.000
28.20500 1129.000
28.22000 1166.000
28.23500 1162.000
28.25000 1135.000
28.26500 1172.000
28.28000 1134.000
28.29500 1218.000
28.31000 1188.000
28.32500 1216.000
28.34000 1293.000
28.35500 1424.000
28.37000 1501.000
28.38500 1637.000
28.40000 1628.000
28.41500 1476.000
28.43000 1447.000
28.44500 1321.000
28.46000 1256.000
28.47500 1195.000
28.49000 1164.000
28.50500 1160.000
28.52000 1149.000
28.53500 1090.000
28.55000 1086.000
28.56500 1098.000
28.58000 1047.000
28.59500 1056.000
28.61000 1055.000
28.62500 1005.000
28.64000 1044.000
28.65500 1062.000
28.67000 1071.000
28.68500 1059.000
28.70000 1076.000
28.71500 1057.000
28.73000 1031.000
28.74500 1051.000
28.76000 1011.000
28.77500 1008.000
28.79000 986.000
28.80500 1041.000
28.82000 1040.000
28.83500 1052.000
28.85000 1028.000
28.86500 1067.000
28.88000 1045.000
28.89500 1057.000
28.91000 1044.000
28.92500 1015.000
28.94000 1037.000
28.95500 1033.000
28.97000 1069.000
28.98500 1106.000
29.00000 1153.000
29.01500 1208.000
29.03000 1185.000
29.04500 1186.000
29.06000 1157.000
29.07500 1097.000
29.09000 1014.000
29.10500 912.000
29.12000 940.000
29.13500 877.000
29.15000 909.000
29.16500 862.000
29.18000 890.000
29.19500 904.000
29.21000 907.000
29.22500 887.000
29.24000 906.000
29.25500 878.000
29.27000 885.000
29.28500 873.000
29.30000 865.000
29.31500 876.000
29.33000 861.000
29.34500 897.000
29.36000 873.000
29.37500 872.000
29.39000 898.000
29.40500 892.000
29.42000 884.000
29.43500 918.000
29.45000 921.000
29.46500 898.000
29.48000 880.000
29.49500 967.000
29.51000 942.000
29.52500 922.000
29.54000 892.000
29.55500 986.000
29.57000 1045.000
29.58500 1030.000
29.60000 1038.000
29.61500 1086.000
29.63000 1099.000
29.64500 1048.000
29.66000 1093.000
29.67500 1050.000
29.69000 1002.000
29.70500 911.000
29.72000 984.000
29.73500 1000.000
29.75000 961.000
29.76500 916.000
29.78000 929.000
29.79500 982.000
29.81000 954.000
29.82500 981.000
29.84000 1003.000
29.85500 1014.000
29.87000 1040.000
29.88500 1019.000
29.90000 1099.000
29.91500 1118.000
29.93000 1251.000
29.94500 1300.000
29.96000 1343.000
29.97500 1412.000
29.99000 1578.000
30.00500 1656.000
30.02000 1738.000
30.03500 2047.000
30.05000 2247.000
30.06500 2618.000
30.08000 3004.000
30.09500 3379.000
30.11000 3900.000
30.12500 4151.000
30.14000 3970.000
30.15500 3751.000
30.17000 3258.000
30.18500 2536.000
30.20000 2021.000
30.21500 1814.000
30.23000 1705.000
30.24500 1572.000
30.26000 1528.000
30.27500 1546.000
30.29000 1497.000
30.30500 1489.000
30.32000 1469.000
30.33500 1472.000
30.35000 1482.000
30.36500 1368.000
30.38000 1360.000
30.39500 1337.000
30.41000 1315.000
30.42500 1227.000
30.44000 1227.000
30.45500 1202.000
30.47000 1222.000
30.48500 1212.000
30.50000 1208.000
30.51500 1177.000
30.53000 1158.000
30.54500 1200.000
30.56000 1238.000
30.57500 1240.000
30.59000 1219.000
30.60500 1160.000
30.62000 1253.000
30.63500 1259.000
30.65000 1378.000
30.66500 1556.000
30.68000 1617.000
30.69500 1710.000
30.71000 1817.000
30.72500 2066.000
30.74000 2328.000
30.75500 2619.000
30.77000 2836.000
30.78500 3202.000
30.80000 3436.000
30.81500 3219.000
30.83000 2987.000
30.84500 2574.000
30.86000 2189.000
30.87500 1979.000
30.89000 1721.000
30.90500 1549.000
30.92000 1420.000
30.93500 1391.000
30.95000 1252.000
30.96500 1230.000
30.98000 1172.000
30.99500 1141.000
31.01000 1084.000
31.02500 1071.000
31.04000 1103.000
31.05500 993.000
31.07000 1023.000
31.08500 1032.000
31.10000 976.000
31.11500 974.000
31.13000 997.000
31.14500 1017.000
31.16000 1062.000
31.17500 1084.000
31.19000 1095.000
31.20500 1104.000
31.22000 1137.000
31.23500 1162.000
31.25000 1111.000
31.26500 1023.000
31.28000 975.000
31.29500 954.000
31.31000 910.000
31.32500 923.000
31.34000 866.000
31.35500 862.000
31.37000 852.000
31.38500 835.000
31.40000 818.000
31.41500 833.000
31.43000 835.000
31.44500 780.000
31.46000 796.000
31.47500 854.000
31.49000 853.000
31.50500 854.000
31.52000 859.000
31.53500 876.000
31.55000 953.000
31.56500 1006.000
31.58000 1088.000
31.59500 1214.000
31.61000 1374.000
31.62500 1541.000
31.64000 1739.000
31.65500 2070.000
31.67000 2293.000
31.68500 2319.000
31.70000 2256.000
31.71500 2068.000
31.73000 1827.000
31.74500 1621.000
31.76000 1456.000
31.77500 1357.000
31.79000 1172.000
31.80500 1122.000
31.82000 1038.000
31.83500 1091.000
31.85000 1002.000
31.86500 1029.000
31.88000 1027.000
31.89500 1048.000
31.91000 1050.000
31.92500 1049.000
31.94000 1018.000
31.95500 963.000
31.97000 943.000
31.98500 954.000
32.00000 998.000
32.01500 1010.000
32.03000 1019.000
32.04500 1119.000
32.06000 1187.000
32.07500 1302.000
32.09000 1393.000
32.10500 1505.000
32.12000 1515.000
32.13500 1335.000
32.15000 1238.000
32.16500 1116.000
32.18000 1017.000
32.19500 997.000
32.21000 975.000
32.22500 1012.000
32.24000 970.000
32.25500 926.000
32.27000 897.000
32.28500 931.000
32.30000 900.000
32.31500 926.000
32.33000 888.000
32.34500 868.000
32.36000 878.000
32.37500 835.000
32.39000 875.000
32.40500 873.000
32.42000 856.000
32.43500 863.000
32.45000 848.000
32.46500 808.000
32.48000 829.000
32.49500 813.000
32.51000 779.000
32.52500 799.000
32.54000 782.000
32.55500 778.000
32.57000 780.000
32.58500 734.000
32.60000 762.000
32.61500 709.000
32.63000 737.000
32.64500 752.000
32.66000 698.000
32.67500 680.000
32.69000 694.000
32.70500 704.000
32.72000 730.000
32.73500 726.000
32.75000 709.000
32.76500 706.000
32.78000 758.000
32.79500 750.000
32.81000 737.000
32.82500 732.000
32.84000 684.000
32.85500 682.000
32.87000 683.000
32.88500 710.000
32.90000 693.000
32.91500 688.000
32.93000 704.000
32.94500 699.000
32.96000 734.000
32.97500 726.000
32.99000 719.000
33.00500 709.000
33.02000 729.000
33.03500 745.000
33.05000 758.000
33.06500 765.000
33.08000 749.000
33.09500 826.000
33.11000 815.000
33.12500 903.000
33.14000 904.000
33.15500 953.000
33.17000 1021.000
33.18500 1066.000
33.20000 1058.000
33.21500 1079.000
33.23000 1036.000
33.24500 960.000
33.26000 916.000
33.27500 939.000
33.29000 875.000
33.30500 866.000
33.32000 918.000
33.33500 925.000
33.35000 914.000
33.36500 897.000
33.38000 925.000
33.39500 944.000
33.41000 965.000
33.42500 889.000
33.44000 879.000
33.45500 868.000
33.47000 871.000
33.48500 916.000
33.50000 916.000
33.51500 970.000
33.53000 916.000
33.54500 953.000
33.56000 862.000
33.57500 866.000
33.59000 824.000
33.60500 827.000
33.62000 838.000
33.63500 893.000
33.65000 950.000
33.66500 1021.000
33.68000 1093.000
33.69500 1211.000
33.71000 1300.000
33.72500 1375.000
33.74000 1388.000
33.75500 1251.000
33.77000 1124.000
33.78500 1022.000
33.80000 997.000
33.81500 901.000
33.83000 863.000
33.84500 841.000
33.86000 867.000
33.87500 847.000
33.89000 886.000
33.90500 916.000
33.92000 972.000
33.93500 989.000
33.95000 1070.000
33.96500 1163.000
33.98000 1328.000
33.99500 1421.000
34.01000 1446.000
34.02500 1556.000
34.04000 1626.000
34.05500 1675.000
34.07000 1694.000
34.08500 1558.000
34.10000 1227.000
34.11500 1047.000
34.13000 914.000
34.14500 792.000
34.16000 812.000
34.17500 777.000
34.19000 735.000
34.20500 719.000
34.22000 720.000
34.23500 729.000
34.25000 723.000
34.26500 742.000
34.28000 724.000
34.29500 653.000
34.31000 685.000
34.32500 702.000
34.34000 723.000
34.35500 710.000
34.37000 654.000
34.38500 753.000
34.40000 736.000
34.41500 744.000
34.43000 717.000
34.44500 710.000
34.46000 730.000
34.47500 784.000
34.49000 799.000
34.50500 774.000
34.52000 765.000
34.53500 803.000
34.55000 814.000
34.56500 892.000
34.58000 962.000
34.59500 961.000
34.61000 1021.000
34.62500 1029.000
34.64000 1028.000
34.65500 1083.000
34.67000 1155.000
34.68500 994.000
34.70000 915.000
34.71500 883.000
34.73000 866.000
34.74500 841.000
34.76000 831.000
34.77500 835.000
34.79000 853.000
34.80500 847.000
34.82000 835.000
34.83500 893.000
34.85000 901.000
34.86500 835.000
34.88000 921.000
34.89500 983.000
34.91000 1055.000
34.92500 1083.000
34.94000 1167.000
34.95500 1175.000
34.97000 1216.000
34.98500 1153.000
35.00000 1158.000
35.01500 1071.000
35.03000 1005.000
35.04500 932.000
35.06000 949.000
35.07500 904.000
35.09000 850.000
35.10500 825.000
35.12000 826.000
35.13500 804.000
35.15000 783.000
35.16500 800.000
35.18000 752.000
35.19500 746.000
35.21000 743.000
35.22500 748.000
35.24000 734.000
35.25500 699.000
35.27000 675.000
35.28500 697.000
35.30000 658.000
35.31500 661.000
35.33000 690.000
35.34500 666.000
35.36000 628.000
35.37500 661.000
35.39000 672.000
35.40500 638.000
35.42000 644.000
35.43500 664.000
35.45000 627.000
35.46500 620.000
35.48000 635.000
35.49500 602.000
35.51000 590.000
35.52500 590.000
35.54000 607.000
35.55500 638.000
35.57000 608.000
35.58500 594.000
35.60000 593.000
35.61500 632.000
35.63000 611.000
35.64500 602.000
35.66000 644.000
35.67500 652.000
35.69000 645.000
35.70500 685.000
35.72000 659.000
35.73500 687.000
35.75000 704.000
35.76500 729.000
35.78000 770.000
35.79500 759.000
35.81000 774.000
35.82500 759.000
35.84000 734.000
35.85500 713.000
35.87000 642.000
35.88500 647.000
35.90000 640.000
35.91500 582.000
35.93000 592.000
35.94500 554.000
35.96000 587.000
35.97500 569.000
35.99000 539.000
36.00500 577.000
36.02000 574.000
36.03500 556.000
36.05000 556.000
36.06500 603.000
36.08000 562.000
36.09500 591.000
36.11000 582.000
36.12500 545.000
36.14000 538.000
36.15500 557.000
36.17000 549.000
36.18500 556.000
36.20000 540.000
36.21500 554.000
36.23000 532.000
36.24500 507.000
36.26000 521.000
36.27500 536.000
36.29000 509.000
36.30500 523.000
36.32000 522.000
36.33500 551.000
36.35000 546.000
36.36500 560.000
36.38000 514.000
36.39500 485.000
36.41000 518.000
36.42500 508.000
36.44000 524.000
36.45500 521.000
36.47000 520.000
36.48500 512.000
36.50000 520.000
36.51500 506.000
36.53000 534.000
36.54500 523.000
36.56000 507.000
36.57500 515.000
36.59000 523.000
36.60500 505.000
36.62000 523.000
36.63500 533.000
36.65000 536.000
36.66500 503.000
36.68000 536.000
36.69500 571.000
36.71000 566.000
36.72500 551.000
36.74000 537.000
36.75500 542.000
36.77000 535.000
36.78500 526.000
36.80000 521.000
36.81500 558.000
36.83000 537.000
36.84500 538.000
36.86000 557.000
36.87500 590.000
36.89000 590.000
36.90500 585.000
36.92000 580.000
36.93500 591.000
36.95000 606.000
36.96500 624.000
36.98000 701.000
36.99500 760.000
37.01000 850.000
37.02500 902.000
37.04000 970.000
37.05500 966.000
37.07000 977.000
37.08500 962.000
37.10000 915.000
37.11500 872.000
37.13000 795.000
37.14500 707.000
37.16000 681.000
37.17500 641.000
37.19000 600.000
37.20500 589.000
37.22000 564.000
37.23500 565.000
37.25000 578.000
37.26500 561.000
37.28000 545.000
37.29500 525.000
37.31000 531.000
37.32500 533.000
37.34000 519.000
37.35500 493.000
37.37000 481.000
37.38500 509.000
37.40000 527.000
37.41500 526.000
37.43000 517.000
37.44500 512.000
37.46000 524.000
37.47500 524.000
37.49000 486.000
37.50500 517.000
37.52000 510.000
37.53500 522.000
37.55000 500.000
37.56500 510.000
37.58000 505.000
37.59500 493.000
37.61000 480.000
37.62500 480.000
37.64000 506.000
37.65500 492.000
37.67000 483.000
37.68500 477.000
37.70000 496.000
37.71500 506.000
37.73000 532.000
37.74500 531.000
37.76000 507.000
37.77500 512.000
37.79000 511.000
37.80500 511.000
37.82000 510.000
37.83500 530.000
37.85000 515.000
37.86500 507.000
37.88000 515.000
37.89500 534.000
37.91000 570.000
37.92500 529.000
37.94000 515.000
37.95500 538.000
37.97000 552.000
37.98500 533.000
38.00000 545.000
38.01500 544.000
38.03000 554.000
38.04500 547.000
38.06000 560.000
38.07500 585.000
38.09000 575.000
38.10500 632.000
38.12000 601.000
38.13500 608.000
38.15000 624.000
38.16500 631.000
38.18000 652.000
38.19500 703.000
38.21000 764.000
38.22500 774.000
38.24000 832.000
38.25500 872.000
38.27000 849.000
38.28500 888.000
38.30000 886.000
38.31500 891.000
38.33000 887.000
38.34500 852.000
38.36000 792.000
38.37500 757.000
38.39000 735.000
38.40500 721.000
38.42000 706.000
38.43500 645.000
38.45000 605.000
38.46500 607.000
38.48000 605.000
38.49500 621.000
38.51000 594.000
38.52500 591.000
38.54000 576.000
38.55500 613.000
38.57000 572.000
38.58500 571.000
38.60000 557.000
38.61500 545.000
38.63000 485.000
38.64500 512.000
38.66000 508.000
38.67500 533.000
38.69000 534.000
38.70500 534.000
38.72000 515.000
38.73500 505.000
38.75000 474.000
38.76500 503.000
38.78000 503.000
38.79500 515.000
38.81000 497.000
38.82500 514.000
38.84000 524.000
38.85500 510.000
38.87000 500.000
38.88500 521.000
38.90000 541.000
38.91500 559.000
38.93000 561.000
38.94500 557.000
38.96000 560.000
38.97500 590.000
38.99000 572.000
39.00500 542.000
39.02000 531.000
39.03500 556.000
39.05000 534.000
39.06500 587.000
39.08000 610.000
39.09500 565.000
39.11000 540.000
39.12500 543.000
39.14000 568.000
39.15500 570.000
39.17000 607.000
39.18500 578.000
39.20000 534.000
39.21500 550.000
39.23000 548.000
39.24500 544.000
39.26000 549.000
39.27500 558.000
39.29000 561.000
39.30500 602.000
39.32000 570.000
39.33500 567.000
39.35000 574.000
39.36500 583.000
39.38000 603.000
39.39500 586.000
39.41000 615.000
39.42500 610.000
39.44000 639.000
39.45500 682.000
39.47000 722.000
39.48500 690.000
39.50000 675.000
39.51500 739.000
39.53000 727.000
39.54500 698.000
39.56000 634.000
39.57500 637.000
39.59000 627.000
39.60500 585.000
39.62000 590.000
39.63500 591.000
39.65000 565.000
39.66500 530.000
39.68000 550.000
39.69500 570.000
39.71000 578.000
39.72500 585.000
39.74000 601.000
39.75500 595.000
39.77000 616.000
39.78500 596.000
39.80000 638.000
39.81500 647.000
39.83000 680.000
39.84500 762.000
39.86000 800.000
39.87500 838.000
39.89000 864.000
39.90500 822.000
39.92000 800.000
39.93500 790.000
39.95000 731.000
39.96500 695.000
39.98000 648.000
39.99500 636.000
40.01000 636.000
40.02500 646.000
40.04000 613.000
40.05500 601.000
40.07000 577.000
40.08500 560.000
40.10000 547.000
40.11500 557.000
40.13000 560.000
40.14500 585.000
40.16000 555.000
40.17500 566.000
40.19000 527.000
40.20500 555.000
40.22000 535.000
40.23500 517.000
40.25000 547.000
40.26500 574.000
40.28000 534.000
40.29500 549.000
40.31000 554.000
40.32500 538.000
40.34000 536.000
40.35500 552.000
40.37000 542.000
40.38500 610.000
40.40000 567.000
40.41500 557.000
40.43000 612.000
40.44500 627.000
40.46000 646.000
40.47500 678.000
40.49000 728.000
40.50500 754.000
40.52000 756.000
40.53500 814.000
40.55000 910.000
40.56500 942.000
40.58000 956.000
40.59500 1003.000
40.61000 1043.000
40.62500 1023.000
40.64000 891.000
40.65500 850.000
40.67000 775.000
40.68500 663.000
40.70000 621.000
40.71500 657.000
40.73000 643.000
40.74500 619.000
40.76000 649.000
40.77500 649.000
40.79000 677.000
40.80500 647.000
40.82000 674.000
40.83500 661.000
40.85000 681.000
40.86500 697.000
40.88000 657.000
40.89500 638.000
40.91000 616.000
40.92500 560.000
40.94000 639.000
40.95500 656.000
40.97000 649.000
40.98500 676.000
41.00000 656.000
41.01500 695.000
41.03000 726.000
41.04500 803.000
41.06000 870.000
41.07500 934.000
41.09000 981.000
41.10500 1101.000
41.12000 1106.000
41.13500 1090.000
41.15000 1045.000
41.16500 1030.000
41.18000 938.000
41.19500 849.000
41.21000 825.000
41.22500 876.000
41.24000 872.000
41.25500 973.000
41.27000 1026.000
41.28500 1061.000
41.30000 1103.000
41.31500 1081.000
41.33000 991.000
41.34500 865.000
41.36000 756.000
41.37500 659.000
41.39000 606.000
41.40500 602.000
41.42000 574.000
41.43500 540.000
41.45000 524.000
41.46500 532.000
41.48000 535.000
41.49500 536.000
41.51000 557.000
41.52500 543.000
41.54000 491.000
41.55500 490.000
41.57000 523.000
41.58500 537.000
41.60000 512.000
41.61500 526.000
41.63000 538.000
41.64500 545.000
41.66000 570.000
41.67500 593.000
41.69000 581.000
41.70500 596.000
41.72000 587.000
41.73500 599.000
41.75000 633.000
41.76500 645.000
41.78000 679.000
41.79500 641.000
41.81000 616.000
41.82500 624.000
41.84000 687.000
41.85500 700.000
41.87000 659.000
41.88500 701.000
41.90000 703.000
41.91500 727.000
41.93000 759.000
41.94500 753.000
41.96000 750.000
41.97500 771.000
41.99000 829.000
42.00500 780.000
42.02000 849.000
42.03500 854.000
42.05000 863.000
42.06500 887.000
42.08000 940.000
42.09500 1018.000
42.11000 1100.000
42.12500 1130.000
42.14000 1171.000
42.15500 1249.000
42.17000 1227.000
42.18500 1185.000
42.20000 1139.000
42.21500 1160.000
42.23000 981.000
42.24500 899.000
42.26000 838.000
42.27500 792.000
42.29000 673.000
42.30500 660.000
42.32000 623.000
42.33500 612.000
42.35000 601.000
42.36500 575.000
42.38000 551.000
42.39500 537.000
42.41000 531.000
42.42500 543.000
42.44000 543.000
42.45500 544.000
42.47000 570.000
42.48500 543.000
42.50000 531.000
42.51500 555.000
42.53000 606.000
42.54500 606.000
42.56000 612.000
42.57500 661.000
42.59000 667.000
42.60500 732.000
42.62000 770.000
42.63500 747.000
42.65000 719.000
42.66500 669.000
42.68000 608.000
42.69500 624.000
42.71000 623.000
42.72500 637.000
42.74000 658.000
42.75500 630.000
42.77000 610.000
42.78500 599.000
42.80000 609.000
42.81500 590.000
42.83000 577.000
42.84500 585.000
42.86000 561.000
42.87500 538.000
42.89000 517.000
42.90500 536.000
42.92000 525.000
42.93500 511.000
42.95000 496.000
42.96500 542.000
42.98000 551.000
42.99500 542.000
43.01000 578.000
43.02500 541.000
43.04000 559.000
43.05500 546.000
43.07000 533.000
43.08500 551.000
43.10000 517.000
43.11500 496.000
43.13000 493.000
43.14500 495.000
43.16000 483.000
43.17500 500.000
43.19000 493.000
43.20500 496.000
43.22000 493.000
43.23500 494.000
43.25000 483.000
43.26500 465.000
43.28000 462.000
43.29500 484.000
43.31000 480.000
43.32500 488.000
43.34000 462.000
43.35500 463.000
43.37000 478.000
43.38500 487.000
43.40000 488.000
43.41500 500.000
43.43000 491.000
43.44500 496.000
43.46000 502.000
43.47500 495.000
43.49000 488.000
43.50500 462.000
43.52000 487.000
43.53500 497.000
43.55000 489.000
43.56500 485.000
43.58000 478.000
43.59500 493.000
43.61000 479.000
43.62500 454.000
43.64000 483.000
43.65500 486.000
43.67000 519.000
43.68500 517.000
43.70000 501.000
43.71500 510.000
43.73000 512.000
43.74500 546.000
43.76000 532.000
43.77500 564.000
43.79000 557.000
43.80500 559.000
43.82000 549.000
43.83500 548.000
43.85000 525.000
43.86500 592.000
43.88000 541.000
43.89500 529.000
43.91000 504.000
43.92500 475.000
43.94000 501.000
43.95500 501.000
43.97000 535.000
43.98500 498.000
44.00000 523.000
44.01500 556.000
44.03000 536.000
44.04500 554.000
44.06000 592.000
44.07500 580.000
44.09000 602.000
44.10500 650.000
44.12000 706.000
44.13500 663.000
44.15000 678.000
44.16500 715.000
44.18000 782.000
44.19500 823.000
44.21000 895.000
44.22500 921.000
44.24000 929.000
44.25500 924.000
44.27000 882.000
44.28500 898.000
44.30000 833.000
44.31500 721.000
44.33000 672.000
44.34500 670.000
44.36000 594.000
44.37500 581.000
44.39000 562.000
44.40500 577.000
44.42000 589.000
44.43500 587.000
44.45000 569.000
44.46500 612.000
44.48000 585.000
44.49500 628.000
44.51000 631.000
44.52500 658.000
44.54000 714.000
44.55500 694.000
44.57000 672.000
44.58500 661.000
44.60000 697.000
44.61500 716.000
44.63000 759.000
44.64500 722.000
44.66000 687.000
44.67500 709.000
44.69000 722.000
44.70500 763.000
44.72000 751.000
44.73500 731.000
44.75000 686.000
44.76500 639.000
44.78000 649.000
44.79500 633.000
44.81000 586.000
44.82500 589.000
44.84000 592.000
44.85500 557.000
44.87000 570.000
44.88500 574.000
44.90000 594.000
44.91500 631.000
44.93000 666.000
44.94500 700.000
44.96000 697.000
44.97500 738.000
44.99000 760.000
45.00500 785.000
45.02000 834.000
45.03500 784.000
45.05000 725.000
45.06500 729.000
45.08000 757.000
45.09500 797.000
45.11000 870.000
45.12500 878.000
45.14000 875.000
45.15500 881.000
45.17000 785.000
45.18500 670.000
45.20000 608.000
45.21500 600.000
45.23000 575.000
45.24500 535.000
45.26000 527.000
45.27500 546.000
45.29000 546.000
45.30500 583.000
45.32000 536.000
45.33500 530.000
45.35000 549.000
45.36500 554.000
45.38000 538.000
45.39500 500.000
45.41000 497.000
45.42500 494.000
45.44000 496.000
45.45500 499.000
45.47000 497.000
45.48500 488.000
45.50000 516.000
45.51500 533.000
45.53000 503.000
45.54500 510.000
45.56000 516.000
45.57500 486.000
45.59000 511.000
45.60500 508.000
45.62000 540.000
45.63500 515.000
45.65000 517.000
45.66500 522.000
45.68000 501.000
45.69500 488.000
45.71000 547.000
45.72500 517.000
45.74000 494.000
45.75500 487.000
45.77000 453.000
45.78500 476.000
45.80000 525.000
45.81500 494.000
45.83000 476.000
45.84500 477.000
45.86000 471.000
45.87500 427.000
45.89000 476.000
45.90500 477.000
45.92000 444.000
45.93500 461.000
45.95000 507.000
45.96500 462.000
45.98000 459.000
45.99500 494.000
46.01000 481.000
46.02500 457.000
46.04000 509.000
46.05500 508.000
46.07000 494.000
46.08500 522.000
46.10000 498.000
46.11500 513.000
46.13000 534.000
46.14500 548.000
46.16000 558.000
46.17500 586.000
46.19000 645.000
46.20500 606.000
46.22000 659.000
46.23500 649.000
46.25000 710.000
46.26500 704.000
46.28000 692.000
46.29500 669.000
46.31000 637.000
46.32500 649.000
46.34000 635.000
46.35500 701.000
46.37000 710.000
46.38500 777.000
46.40000 760.000
46.41500 748.000
46.43000 746.000
46.44500 726.000
46.46000 693.000
46.47500 593.000
46.49000 617.000
46.50500 561.000
46.52000 541.000
46.53500 530.000
46.55000 524.000
46.56500 539.000
46.58000 549.000
46.59500 533.000
46.61000 549.000
46.62500 557.000
46.64000 556.000
46.65500 546.000
46.67000 618.000
46.68500 602.000
46.70000 644.000
46.71500 665.000
46.73000 638.000
46.74500 614.000
46.76000 632.000
46.77500 647.000
46.79000 651.000
46.80500 705.000
46.82000 737.000
46.83500 805.000
46.85000 801.000
46.86500 843.000
46.88000 884.000
46.89500 864.000
46.91000 907.000
46.92500 843.000
46.94000 829.000
46.95500 884.000
46.97000 911.000
46.98500 936.000
47.00000 976.000
47.01500 997.000
47.03000 986.000
47.04500 1043.000
47.06000 1055.000
47.07500 978.000
47.09000 973.000
47.10500 891.000
47.12000 851.000
47.13500 809.000
47.15000 741.000
47.16500 689.000
47.18000 667.000
47.19500 624.000
47.21000 636.000
47.22500 642.000
47.24000 596.000
47.25500 544.000
47.27000 571.000
47.28500 593.000
47.30000 565.000
47.31500 572.000
47.33000 598.000
47.34500 606.000
47.36000 587.000
47.37500 625.000
47.39000 677.000
47.40500 638.000
47.42000 608.000
47.43500 673.000
47.45000 645.000
47.46500 697.000
47.48000 672.000
47.49500 661.000
47.51000 661.000
47.52500 603.000
47.54000 600.000
47.55500 611.000
47.57000 641.000
47.58500 648.000
47.60000 643.000
47.61500 579.000
47.63000 613.000
47.64500 621.000
47.66000 629.000
47.67500 690.000
47.69000 661.000
47.70500 640.000
47.72000 647.000
47.73500 633.000
47.75000 606.000
47.76500 572.000
47.78000 549.000
47.79500 519.000
47.81000 494.000
47.82500 513.000
47.84000 513.000
47.85500 469.000
47.87000 443.000
47.88500 440.000
47.90000 451.000
47.91500 433.000
47.93000 427.000
47.94500 420.000
47.96000 445.000
47.97500 471.000
47.99000 473.000
48.00500 448.000
48.02000 450.000
48.03500 449.000
48.05000 430.000
48.06500 468.000
48.08000 487.000
48.09500 472.000
48.11000 476.000
48.12500 451.000
48.14000 462.000
48.15500 486.000
48.17000 462.000
48.18500 496.000
48.20000 512.000
48.21500 510.000
48.23000 516.000
48.24500 522.000
48.26000 525.000
48.27500 522.000
48.29000 523.000
48.30500 524.000
48.32000 530.000
48.33500 518.000
48.35000 516.000
48.36500 524.000
48.38000 535.000
48.39500 566.000
48.41000 570.000
48.42500 550.000
48.44000 539.000
48.45500 535.000
48.47000 557.000
48.48500 544.000
48.50000 547.000
48.51500 550.000
48.53000 536.000
48.54500 534.000
48.56000 550.000
48.57500 536.000
48.59000 561.000
48.60500 537.000
48.62000 468.000
48.63500 486.000
48.65000 468.000
48.66500 504.000
48.68000 549.000
48.69500 523.000
48.71000 507.000
48.72500 474.000
48.74000 485.000
48.75500 454.000
48.77000 447.000
48.78500 464.000
48.80000 450.000
48.81500 454.000
48.83000 451.000
48.84500 463.000
48.86000 488.000
48.87500 469.000
48.89000 503.000
48.90500 484.000
48.92000 505.000
48.93500 520.000
48.95000 539.000
48.96500 575.000
48.98000 560.000
48.99500 579.000
49.01000 632.000
49.02500 625.000
49.04000 623.000
49.05500 612.000
49.07000 627.000
49.08500 602.000
49.10000 586.000
49.11500 504.000
49.13000 522.000
49.14500 516.000
49.16000 526.000
49.17500 489.000
49.19000 521.000
49.20500 496.000
49.22000 498.000
49.23500 465.000
49.25000 463.000
49.26500 480.000
49.28000 476.000
49.29500 488.000
49.31000 488.000
49.32500 481.000
49.34000 477.000
49.35500 547.000
49.37000 555.000
49.38500 478.000
49.40000 547.000
49.41500 560.000
49.43000 530.000
49.44500 494.000
49.46000 550.000
49.47500 626.000
49.49000 635.000
49.50500 604.000
49.52000 626.000
49.53500 670.000
49.55000 777.000
49.56500 780.000
49.58000 831.000
49.59500 882.000
49.61000 925.000
49.62500 962.000
49.64000 949.000
49.65500 983.000
49.67000 932.000
49.68500 921.000
49.70000 881.000
49.71500 795.000
49.73000 701.000
49.74500 668.000
49.76000 583.000
49.77500 570.000
49.79000 523.000
49.80500 501.000
49.82000 487.000
49.83500 495.000
49.85000 472.000
49.86500 456.000
49.88000 455.000
49.89500 470.000
49.91000 475.000
49.92500 458.000
49.94000 451.000
49.95500 465.000
49.97000 460.000
49.98500 475.000
50.00000 470.000
50.01500 437.000
50.03000 493.000
50.04500 463.000
50.06000 467.000
50.07500 492.000
50.09000 502.000
50.10500 523.000
50.12000 507.000
50.13500 571.000
50.15000 613.000
50.16500 604.000
50.18000 633.000
50.19500 669.000
50.21000 678.000
50.22500 748.000
50.24000 792.000
50.25500 717.000
50.27000 767.000
50.28500 717.000
50.30000 663.000
50.31500 658.000
50.33000 645.000
50.34500 646.000
50.36000 644.000
50.37500 628.000
50.39000 635.000
50.40500 631.000
50.42000 655.000
50.43500 666.000
50.45000 712.000
50.46500 747.000
50.48000 741.000
50.49500 805.000
50.51000 821.000
50.52500 731.000
50.54000 662.000
50.55500 687.000
50.57000 627.000
50.58500 604.000
50.60000 569.000
50.61500 556.000
50.63000 533.000
50.64500 528.000
50.66000 522.000
50.67500 497.000
50.69000 495.000
50.70500 523.000
50.72000 492.000
50.73500 501.000
50.75000 463.000
50.76500 435.000
50.78000 452.000
50.79500 442.000
50.81000 489.000
50.82500 467.000
50.84000 469.000
50.85500 474.000
50.87000 451.000
50.88500 461.000
50.90000 464.000
50.91500 454.000
50.93000 436.000
50.94500 432.000
50.96000 451.000
50.97500 463.000
50.99000 448.000
51.00500 432.000
51.02000 459.000
51.03500 456.000
51.05000 477.000
51.06500 451.000
51.08000 438.000
51.09500 432.000
51.11000 440.000
51.12500 464.000
51.14000 473.000
51.15500 435.000
51.17000 416.000
51.18500 433.000
51.20000 465.000
51.21500 463.000
51.23000 437.000
51.24500 446.000
51.26000 454.000
51.27500 468.000
51.29000 474.000
51.30500 489.000
51.32000 524.000
51.33500 518.000
51.35000 560.000
51.36500 561.000
51.38000 582.000
51.39500 621.000
51.41000 645.000
51.42500 699.000
51.44000 715.000
51.45500 754.000
51.47000 734.000
51.48500 701.000
51.50000 678.000
51.51500 669.000
51.53000 637.000
51.54500 620.000
51.56000 619.000
51.57500 589.000
51.59000 604.000
51.60500 582.000
51.62000 625.000
51.63500 645.000
51.65000 637.000
51.66500 633.000
51.68000 614.000
51.69500 653.000
51.71000 668.000
51.72500 624.000
51.74000 614.000
51.75500 628.000
51.77000 642.000
51.78500 688.000
51.80000 689.000
51.81500 688.000
51.83000 726.000
51.84500 741.000
51.86000 713.000
51.87500 701.000
51.89000 690.000
51.90500 671.000
51.92000 652.000
51.93500 605.000
51.95000 608.000
51.96500 546.000
51.98000 544.000
51.99500 565.000
52.01000 521.000
52.02500 545.000
52.04000 543.000
52.05500 540.000
52.07000 538.000
52.08500 550.000
52.10000 552.000
52.11500 544.000
52.13000 576.000
52.14500 573.000
52.16000 557.000
52.17500 567.000
52.19000 531.000
52.20500 501.000
52.22000 540.000
52.23500 531.000
52.25000 509.000
52.26500 457.000
52.28000 466.000
52.29500 488.000
52.31000 476.000
52.32500 469.000
52.34000 451.000
52.35500 460.000
52.37000 427.000
52.38500 438.000
52.40000 437.000
52.41500 439.000
52.43000 419.000
52.44500 411.000
52.46000 420.000
52.47500 444.000
52.49000 436.000
52.50500 460.000
52.52000 395.000
52.53500 414.000
52.55000 402.000
52.56500 455.000
52.58000 456.000
52.59500 417.000
52.61000 425.000
52.62500 421.000
52.64000 403.000
52.65500 438.000
52.67000 458.000
52.68500 426.000
52.70000 420.000
52.71500 416.000
52.73000 405.000
52.74500 408.000
52.76000 415.000
52.77500 441.000
52.79000 455.000
52.80500 418.000
52.82000 439.000
52.83500 442.000
52.85000 475.000
52.86500 488.000
52.88000 491.000
52.89500 497.000
52.91000 494.000
52.92500 531.000
52.94000 534.000
52.95500 525.000
52.97000 511.000
52.98500 528.000
53.00000 476.000
53.01500 514.000
53.03000 533.000
53.04500 500.000
53.06000 495.000
53.07500 502.000
53.09000 528.000
53.10500 531.000
53.12000 480.000
53.13500 480.000
53.15000 498.000
53.16500 504.000
53.18000 535.000
53.19500 542.000
53.21000 566.000
53.22500 583.000
53.24000 553.000
53.25500 582.000
53.27000 677.000
53.28500 655.000
53.30000 730.000
53.31500 727.000
53.33000 756.000
53.34500 833.000
53.36000 812.000
53.37500 877.000
53.39000 889.000
53.40500 852.000
53.42000 884.000
53.43500 844.000
53.45000 794.000
53.46500 788.000
53.48000 757.000
53.49500 736.000
53.51000 687.000
53.52500 650.000
53.54000 615.000
53.55500 597.000
53.57000 579.000
53.58500 566.000
53.60000 550.000
53.61500 530.000
53.63000 518.000
53.64500 511.000
53.66000 524.000
53.67500 484.000
53.69000 491.000
53.70500 517.000
53.72000 479.000
53.73500 495.000
53.75000 490.000
53.76500 505.000
53.78000 481.000
53.79500 440.000
53.81000 467.000
53.82500 458.000
53.84000 492.000
53.85500 506.000
53.87000 496.000
53.88500 494.000
53.90000 490.000
53.91500 491.000
53.93000 476.000
53.94500 501.000
53.96000 532.000
53.97500 566.000
53.99000 563.000
54.00500 607.000
54.02000 611.000
54.03500 677.000
54.05000 666.000
54.06500 687.000
54.08000 715.000
54.09500 680.000
54.11000 652.000
54.12500 639.000
54.14000 583.000
54.15500 595.000
54.17000 589.000
54.18500 501.000
54.20000 519.000
54.21500 539.000
54.23000 503.000
54.24500 503.000
54.26000 485.000
54.27500 473.000
54.29000 455.000
54.30500 488.000
54.32000 462.000
54.33500 485.000
54.35000 437.000
54.36500 453.000
54.38000 471.000
54.39500 485.000
54.41000 482.000
54.42500 445.000
54.44000 480.000
54.45500 501.000
54.47000 498.000
54.48500 474.000
54.50000 469.000
54.51500 490.000
54.53000 496.000
54.54500 491.000
54.56000 501.000
54.57500 503.000
54.59000 491.000
54.60500 521.000
54.62000 495.000
54.63500 499.000
54.65000 488.000
54.66500 501.000
54.68000 513.000
54.69500 522.000
54.71000 527.000
54.72500 495.000
54.74000 527.000
54.75500 562.000
54.77000 514.000
54.78500 561.000
54.80000 553.000
54.81500 598.000
54.83000 593.000
54.84500 602.000
54.86000 596.000
54.87500 633.000
54.89000 675.000
54.90500 726.000
54.92000 706.000
54.93500 710.000
54.95000 745.000
54.96500 736.000
54.98000 745.000
54.99500 831.000
55.01000 913.000
55.02500 967.000
55.04000 973.000
55.05500 986.000
55.07000 1037.000
55.08500 1048.000
55.10000 1068.000
55.11500 1039.000
55.13000 942.000
55.14500 926.000
55.16000 810.000
55.17500 791.000
55.19000 758.000
55.20500 722.000
55.22000 705.000
55.23500 650.000
55.25000 654.000
55.26500 687.000
55.28000 629.000
55.29500 593.000
55.31000 592.000
55.32500 608.000
55.34000 585.000
55.35500 554.000
55.37000 541.000
55.38500 566.000
55.40000 568.000
55.41500 547.000
55.43000 521.000
55.44500 536.000
55.46000 574.000
55.47500 571.000
55.49000 539.000
55.50500 536.000
55.52000 511.000
55.53500 486.000
55.55000 477.000
55.56500 495.000
55.58000 448.000
55.59500 469.000
55.61000 478.000
55.62500 471.000
55.64000 424.000
55.65500 467.000
55.67000 427.000
55.68500 469.000
55.70000 484.000
55.71500 481.000
55.73000 479.000
55.74500 473.000
55.76000 483.000
55.77500 505.000
55.79000 499.000
55.80500 481.000
55.82000 508.000
55.83500 590.000
55.85000 560.000
55.86500 525.000
55.88000 524.000
55.89500 521.000
55.91000 481.000
55.92500 500.000
55.94000 486.000
55.95500 490.000
55.97000 434.000
55.98500 458.000
56.00000 437.000
56.01500 425.000
56.03000 432.000
56.04500 445.000
56.06000 410.000
56.07500 424.000
56.09000 450.000
56.10500 446.000
56.12000 424.000
56.13500 426.000
56.15000 451.000
56.16500 403.000
56.18000 396.000
56.19500 426.000
56.21000 432.000
56.22500 421.000
56.24000 430.000
56.25500 420.000
56.27000 389.000
56.28500 369.000
56.30000 406.000
56.31500 410.000
56.33000 423.000
56.34500 412.000
56.36000 427.000
56.37500 430.000
56.39000 393.000
56.40500 432.000
56.42000 418.000
56.43500 398.000
56.45000 421.000
56.46500 428.000
56.48000 422.000
56.49500 445.000
56.51000 445.000
56.52500 437.000
56.54000 426.000
56.55500 463.000
56.57000 492.000
56.58500 527.000
56.60000 542.000
56.61500 513.000
56.63000 562.000
56.64500 576.000
56.66000 582.000
56.67500 637.000
56.69000 641.000
56.70500 680.000
56.72000 668.000
56.73500 687.000
56.75000 709.000
56.76500 660.000
56.78000 619.000
56.79500 597.000
56.81000 556.000
56.82500 556.000
56.84000 536.000
56.85500 523.000
56.87000 503.000
56.88500 527.000
56.90000 524.000
56.91500 454.000
56.93000 520.000
56.94500 532.000
56.96000 520.000
56.97500 536.000
56.99000 551.000
57.00500 563.000
57.02000 529.000
57.03500 531.000
57.05000 551.000
57.06500 547.000
57.08000 555.000
57.09500 566.000
57.11000 560.000
57.12500 557.000
57.14000 596.000
57.15500 601.000
57.17000 582.000
57.18500 582.000
57.20000 587.000
57.21500 575.000
57.23000 595.000
57.24500 569.000
57.26000 592.000
57.27500 601.000
57.29000 613.000
57.30500 635.000
57.32000 646.000
57.33500 661.000
57.35000 676.000
57.36500 664.000
57.38000 741.000
57.39500 790.000
57.41000 731.000
57.42500 712.000
57.44000 672.000
57.45500 646.000
57.47000 637.000
57.48500 595.000
57.50000 563.000
57.51500 588.000
57.53000 523.000
57.54500 502.000
57.56000 508.000
57.57500 466.000
57.59000 474.000
57.60500 453.000
57.62000 453.000
57.63500 462.000
57.65000 459.000
57.66500 464.000
57.68000 469.000
57.69500 429.000
57.71000 389.000
57.72500 411.000
57.74000 428.000
57.75500 417.000
57.77000 393.000
57.78500 397.000
57.80000 402.000
57.81500 406.000
57.83000 397.000
57.84500 402.000
57.86000 380.000
57.87500 390.000
57.89000 381.000
57.90500 392.000
57.92000 421.000
57.93500 412.000
57.95000 403.000
57.96500 397.000
57.98000 415.000
57.99500 412.000
58.01000 441.000
58.02500 436.000
58.04000 424.000
58.05500 412.000
58.07000 444.000
58.08500 434.000
58.10000 421.000
58.11500 420.000
58.13000 413.000
58.14500 396.000
58.16000 399.000
58.17500 425.000
58.19000 427.000
58.20500 450.000
58.22000 441.000
58.23500 456.000
58.25000 421.000
58.26500 447.000
58.28000 429.000
58.29500 393.000
58.31000 387.000
58.32500 377.000
58.34000 421.000
58.35500 449.000
58.37000 396.000
58.38500 407.000
58.40000 382.000
58.41500 379.000
58.43000 354.000
58.44500 378.000
58.46000 394.000
58.47500 383.000
58.49000 387.000
58.50500 373.000
58.52000 368.000
58.53500 377.000
58.55000 369.000
58.56500 385.000
58.58000 394.000
58.59500 384.000
58.61000 376.000
58.62500 378.000
58.64000 348.000
58.65500 358.000
58.67000 375.000
58.68500 366.000
58.70000 394.000
58.71500 404.000
58.73000 373.000
58.74500 413.000
58.76000 415.000
58.77500 391.000
58.79000 360.000
58.80500 368.000
58.82000 387.000
58.83500 400.000
58.85000 408.000
58.86500 429.000
58.88000 396.000
58.89500 388.000
58.91000 409.000
58.92500 444.000
58.94000 470.000
58.95500 486.000
58.97000 469.000
58.98500 454.000
59.00000 447.000
59.01500 450.000
59.03000 412.000
59.04500 392.000
59.06000 395.000
59.07500 429.000
59.09000 434.000
59.10500 410.000
59.12000 387.000
59.13500 388.000
59.15000 379.000
59.16500 357.000
59.18000 371.000
59.19500 386.000
59.21000 425.000
59.22500 422.000
59.24000 387.000
59.25500 384.000
59.27000 373.000
59.28500 386.000
59.30000 385.000
59.31500 400.000
59.33000 380.000
59.34500 409.000
59.36000 351.000
59.37500 358.000
59.39000 373.000
59.40500 380.000
59.42000 371.000
59.43500 350.000
59.45000 353.000
59.46500 380.000
59.48000 409.000
59.49500 362.000
59.51000 374.000
59.52500 380.000
59.54000 377.000
59.55500 382.000
59.57000 388.000
59.58500 396.000
59.60000 370.000
59.61500 371.000
59.63000 380.000
59.64500 405.000
59.66000 405.000
59.67500 420.000
59.69000 380.000
59.70500 351.000
59.72000 394.000
59.73500 407.000
59.75000 415.000
59.76500 432.000
59.78000 420.000
59.79500 417.000
59.81000 450.000
59.82500 458.000
59.84000 468.000
59.85500 489.000
59.87000 466.000
59.88500 490.000
59.90000 505.000
59.91500 497.000
59.93000 519.000
59.94500 550.000
59.96000 550.000
59.97500 564.000
59.99000 606.000
60.00500 556.000
60.02000 536.000
60.03500 516.000
60.05000 474.000
60.06500 504.000
60.08000 479.000
60.09500 485.000
60.11000 466.000
60.12500 454.000
60.14000 443.000
60.15500 467.000
60.17000 493.000
60.18500 484.000
60.20000 488.000
60.21500 486.000
60.23000 516.000
60.24500 491.000
60.26000 478.000
60.27500 493.000
60.29000 524.000
60.30500 526.000
60.32000 534.000
60.33500 547.000
60.35000 529.000
60.36500 553.000
60.38000 564.000
60.39500 578.000
60.41000 546.000
60.42500 510.000
60.44000 496.000
60.45500 479.000
60.47000 476.000
60.48500 476.000
60.50000 465.000
60.51500 439.000
60.53000 430.000
60.54500 414.000
60.56000 427.000
60.57500 435.000
60.59000 418.000
60.60500 433.000
60.62000 425.000
60.63500 427.000
60.65000 459.000
60.66500 441.000
60.68000 433.000
60.69500 439.000
60.71000 420.000
60.72500 429.000
60.74000 428.000
60.75500 374.000
60.77000 401.000
60.78500 390.000
60.80000 398.000
60.81500 387.000
60.83000 387.000
60.84500 388.000
60.86000 397.000
60.87500 400.000
60.89000 392.000
60.90500 419.000
60.92000 408.000
60.93500 393.000
60.95000 397.000
60.96500 405.000
60.98000 382.000
60.99500 425.000
61.01000 426.000
61.02500 397.000
61.04000 381.000
61.05500 366.000
61.07000 366.000
61.08500 362.000
61.10000 361.000
61.11500 330.000
61.13000 345.000
61.14500 354.000
61.16000 345.000
61.17500 359.000
61.19000 361.000
61.20500 378.000
61.22000 364.000
61.23500 356.000
61.25000 358.000
61.26500 374.000
61.28000 352.000
61.29500 353.000
61.31000 333.000
61.32500 343.000
61.34000 328.000
61.35500 364.000
61.37000 372.000
61.38500 346.000
61.40000 375.000
61.41500 322.000
61.43000 347.000
61.44500 350.000
61.46000 351.000
61.47500 355.000
61.49000 352.000
61.50500 359.000
61.52000 351.000
61.53500 352.000
61.55000 328.000
61.56500 360.000
61.58000 370.000
61.59500 359.000
61.61000 384.000
61.62500 356.000
61.64000 342.000
61.65500 396.000
61.67000 369.000
61.68500 353.000
61.70000 388.000
61.71500 367.000
61.73000 340.000
61.74500 325.000
61.76000 351.000
61.77500 336.000
61.79000 341.000
61.80500 361.000
61.82000 341.000
61.83500 340.000
61.85000 353.000
61.86500 326.000
61.88000 342.000
61.89500 368.000
61.91000 349.000
61.92500 326.000
61.94000 342.000
61.95500 347.000
61.97000 320.000
61.98500 339.000
