    2.000      569
    2.015      538
    2.030      547
    2.045      518
    2.060      552
    2.075      512
    2.090      500
    2.105      469
    2.120      497
    2.135      488
    2.150      454
    2.165      452
    2.180      439
    2.195      438
    2.210      450
    2.225      433
    2.240      432
    2.255      415
    2.270      374
    2.285      386
    2.300      419
    2.315      395
    2.330      375
    2.345      374
    2.360      385
    2.375      386
    2.390      373
    2.405      371
    2.420      363
    2.435      357
    2.450      311
    2.465      325
    2.480      359
    2.495      339
    2.510      339
    2.525      328
    2.540      308
    2.555      332
    2.570      335
    2.585      297
    2.600      292
    2.615      300
    2.630      305
    2.645      290
    2.660      288
    2.675      269
    2.690      293
    2.705      275
    2.720      280
    2.735      268
    2.750      274
    2.765      292
    2.780      293
    2.795      297
    2.810      252
    2.825      277
    2.840      249
    2.855      246
    2.870      259
    2.885      259
    2.900      249
    2.915      242
    2.930      275
    2.945      262
    2.960      262
    2.975      252
    2.990      261
    3.005      236
    3.020      213
    3.035      234
    3.050      225
    3.065      234
    3.080      239
    3.095      241
    3.110      246
    3.125      222
    3.140      232
    3.155      218
    3.170      220
    3.185      231
    3.200      223
    3.215      229
    3.230      223
    3.245      192
    3.260      220
    3.275      221
    3.290      227
    3.305      229
    3.320      228
    3.335      213
    3.350      196
    3.365      197
    3.380      194
    3.395      201
    3.410      222
    3.425      206
    3.440      212
    3.455      201
    3.470      228
    3.485      217
    3.500      208
    3.515      222
    3.530      218
    3.545      213
    3.560      200
    3.575      201
    3.590      184
    3.605      203
    3.620      193
    3.635      195
    3.650      180
    3.665      193
    3.680      206
    3.695      205
    3.710      173
    3.725      175
    3.740      177
    3.755      181
    3.770      161
    3.785      189
    3.800      179
    3.815      193
    3.830      186
    3.845      202
    3.860      204
    3.875      206
    3.890      182
    3.905      179
    3.920      184
    3.935      182
    3.950      202
    3.965      195
    3.980      187
    3.995      194
    4.010      180
    4.025      178
    4.040      195
    4.055      211
    4.070      199
    4.085      197
    4.100      204
    4.115      185
    4.130      182
    4.145      183
    4.160      173
    4.175      192
    4.190      196
    4.205      186
    4.220      203
    4.235      187
    4.250      169
    4.265      197
    4.280      183
    4.295      215
    4.310      197
    4.325      179
    4.340      190
    4.355      196
    4.370      198
    4.385      207
    4.400      189
    4.415      195
    4.430      207
    4.445      176
    4.460      172
    4.475      178
    4.490      191
    4.505      185
    4.520      193
    4.535      193
    4.550      185
    4.565      169
    4.580      172
    4.595      177
    4.610      188
    4.625      177
    4.640      181
    4.655      182
    4.670      165
    4.685      179
    4.700      166
    4.715      168
    4.730      179
    4.745      171
    4.760      189
    4.775      184
    4.790      171
    4.805      178
    4.820      173
    4.835      177
    4.850      164
    4.865      185
    4.880      183
    4.895      186
    4.910      182
    4.925      189
    4.940      187
    4.955      180
    4.970      190
    4.985      182
    5.000      191
    5.015      189
    5.030      190
    5.045      192
    5.060      164
    5.075      194
    5.090      200
    5.105      193
    5.120      165
    5.135      181
    5.150      195
    5.165      189
    5.180      172
    5.195      165
    5.210      196
    5.225      197
    5.240      182
    5.255      179
    5.270      167
    5.285      192
    5.300      169
    5.315      179
    5.330      179
    5.345      162
    5.360      159
    5.375      167
    5.390      208
    5.405      203
    5.420      182
    5.435      181
    5.450      177
    5.465      156
    5.480      194
    5.495      176
    5.510      163
    5.525      170
    5.540      181
    5.555      163
    5.570      179
    5.585      193
    5.600      181
    5.615      180
    5.630      178
    5.645      189
    5.660      177
    5.675      193
    5.690      179
    5.705      187
    5.720      198
    5.735      190
    5.750      185
    5.765      194
    5.780      176
    5.795      198
    5.810      201
    5.825      195
    5.840      197
    5.855      201
    5.870      217
    5.885      215
    5.900      231
    5.915      217
    5.930      217
    5.945      216
    5.960      220
    5.975      224
    5.990      234
    6.005      243
    6.020      259
    6.035      304
    6.050      293
    6.065      324
    6.080      371
    6.095      392
    6.110      419
    6.125      458
    6.140      528
    6.155      533
    6.170      483
    6.185      418
    6.200      302
    6.215      260
    6.230      225
    6.245      206
    6.260      200
    6.275      198
    6.290      203
    6.305      190
    6.320      170
    6.335      161
    6.350      174
    6.365      176
    6.380      202
    6.395      204
    6.410      188
    6.425      169
    6.440      178
    6.455      176
    6.470      176
    6.485      192
    6.500      183
    6.515      184
    6.530      180
    6.545      193
    6.560      156
    6.575      169
    6.590      187
    6.605      192
    6.620      195
    6.635      178
    6.650      194
    6.665      188
    6.680      188
    6.695      195
    6.710      170
    6.725      199
    6.740      190
    6.755      182
    6.770      174
    6.785      183
    6.800      158
    6.815      176
    6.830      180
    6.845      192
    6.860      187
    6.875      168
    6.890      175
    6.905      174
    6.920      180
    6.935      185
    6.950      190
    6.965      176
    6.980      171
    6.995      165
    7.010      189
    7.025      197
    7.040      182
    7.055      185
    7.070      190
    7.085      194
    7.100      192
    7.115      189
    7.130      163
    7.145      164
    7.160      181
    7.175      194
    7.190      173
    7.205      173
    7.220      180
    7.235      202
    7.250      168
    7.265      187
    7.280      195
    7.295      189
    7.310      177
    7.325      186
    7.340      186
    7.355      191
    7.370      188
    7.385      186
    7.400      182
    7.415      182
    7.430      175
    7.445      167
    7.460      174
    7.475      180
    7.490      178
    7.505      169
    7.520      182
    7.535      166
    7.550      188
    7.565      177
    7.580      166
    7.595      194
    7.610      189
    7.625      182
    7.640      178
    7.655      172
    7.670      190
    7.685      192
    7.700      175
    7.715      193
    7.730      194
    7.745      176
    7.760      182
    7.775      196
    7.790      181
    7.805      190
    7.820      176
    7.835      161
    7.850      176
    7.865      174
    7.880      182
    7.895      180
    7.910      181
    7.925      161
    7.940      175
    7.955      171
    7.970      172
    7.985      193
    8.000      181
    8.015      183
    8.030      191
    8.045      189
    8.060      183
    8.075      185
    8.090      198
    8.105      161
    8.120      168
    8.135      175
    8.150      175
    8.165      182
    8.180      177
    8.195      163
    8.210      159
    8.225      190
    8.240      178
    8.255      167
    8.270      177
    8.285      175
    8.300      179
    8.315      191
    8.330      192
    8.345      175
    8.360      159
    8.375      179
    8.390      176
    8.405      168
    8.420      172
    8.435      175
    8.450      178
    8.465      177
    8.480      167
    8.495      178
    8.510      183
    8.525      173
    8.540      179
    8.555      181
    8.570      185
    8.585      194
    8.600      198
    8.615      178
    8.630      174
    8.645      170
    8.660      158
    8.675      182
    8.690      176
    8.705      185
    8.720      185
    8.735      184
    8.750      176
    8.765      178
    8.780      171
    8.795      169
    8.810      187
    8.825      177
    8.840      184
    8.855      188
    8.870      171
    8.885      195
    8.900      186
    8.915      185
    8.930      181
    8.945      163
    8.960      163
    8.975      185
    8.990      183
    9.005      187
    9.020      170
    9.035      167
    9.050      173
    9.065      179
    9.080      194
    9.095      202
    9.110      182
    9.125      184
    9.140      184
    9.155      196
    9.170      180
    9.185      180
    9.200      172
    9.215      183
    9.230      174
    9.245      170
    9.260      184
    9.275      182
    9.290      194
    9.305      192
    9.320      199
    9.335      176
    9.350      181
    9.365      176
    9.380      176
    9.395      193
    9.410      174
    9.425      191
    9.440      190
    9.455      168
    9.470      190
    9.485      190
    9.500      183
    9.515      189
    9.530      186
    9.545      180
    9.560      175
    9.575      191
    9.590      164
    9.605      171
    9.620      174
    9.635      187
    9.650      169
    9.665      176
    9.680      165
    9.695      191
    9.710      175
    9.725      166
    9.740      155
    9.755      155
    9.770      172
    9.785      172
    9.800      179
    9.815      178
    9.830      193
    9.845      199
    9.860      179
    9.875      165
    9.890      182
    9.905      192
    9.920      184
    9.935      188
    9.950      181
    9.965      185
    9.980      180
    9.995      196
   10.010      179
   10.025      183
   10.040      169
   10.055      189
   10.070      179
   10.085      193
   10.100      196
   10.115      199
   10.130      173
   10.145      164
   10.160      187
   10.175      179
   10.190      178
   10.205      185
   10.220      196
   10.235      195
   10.250      209
   10.265      197
   10.280      179
   10.295      189
   10.310      171
   10.325      188
   10.340      175
   10.355      175
   10.370      191
   10.385      170
   10.400      187
   10.415      176
   10.430      175
   10.445      197
   10.460      190
   10.475      166
   10.490      172
   10.505      172
   10.520      163
   10.535      182
   10.550      187
   10.565      174
   10.580      201
   10.595      189
   10.610      193
   10.625      185
   10.640      170
   10.655      175
   10.670      187
   10.685      198
   10.700      196
   10.715      195
   10.730      200
   10.745      187
   10.760      185
   10.775      192
   10.790      188
   10.805      183
   10.820      193
   10.835      182
   10.850      177
   10.865      182
   10.880      184
   10.895      172
   10.910      186
   10.925      203
   10.940      204
   10.955      193
   10.970      190
   10.985      180
   11.000      170
   11.015      191
   11.030      214
   11.045      207
   11.060      188
   11.075      180
   11.090      186
   11.105      190
   11.120      205
   11.135      203
   11.150      184
   11.165      214
   11.180      210
   11.195      193
   11.210      198
   11.225      176
   11.240      194
   11.255      206
   11.270      198
   11.285      195
   11.300      194
   11.315      206
   11.330      191
   11.345      192
   11.360      191
   11.375      182
   11.390      185
   11.405      200
   11.420      208
   11.435      199
   11.450      196
   11.465      177
   11.480      174
   11.495      190
   11.510      189
   11.525      199
   11.540      218
   11.555      193
   11.570      186
   11.585      193
   11.600      188
   11.615      172
   11.630      191
   11.645      178
   11.660      211
   11.675      202
   11.690      209
   11.705      186
   11.720      182
   11.735      194
   11.750      199
   11.765      212
   11.780      202
   11.795      209
   11.810      194
   11.825      204
   11.840      198
   11.855      210
   11.870      215
   11.885      203
   11.900      195
   11.915      193
   11.930      218
   11.945      234
   11.960      206
   11.975      221
   11.990      252
   12.005      248
   12.020      252
   12.035      285
   12.050      265
   12.065      267
   12.080      309
   12.095      342
   12.110      414
   12.125      451
   12.140      472
   12.155      532
   12.170      632
   12.185      703
   12.200      775
   12.215      891
   12.230      946
   12.245     1043
   12.260     1120
   12.275     1166
   12.290     1181
   12.305     1274
   12.320     1250
   12.335     1176
   12.350      917
   12.365      652
   12.380      503
   12.395      417
   12.410      357
   12.425      329
   12.440      302
   12.455      298
   12.470      313
   12.485      302
   12.500      294
   12.515      275
   12.530      286
   12.545      296
   12.560      285
   12.575      283
   12.590      265
   12.605      262
   12.620      283
   12.635      295
   12.650      290
   12.665      262
   12.680      272
   12.695      268
   12.710      233
   12.725      297
   12.740      267
   12.755      285
   12.770      265
   12.785      245
   12.800      246
   12.815      259
   12.830      260
   12.845      249
   12.860      247
   12.875      245
   12.890      266
   12.905      267
   12.920      257
   12.935      251
   12.950      247
   12.965      239
   12.980      264
   12.995      264
   13.010      261
   13.025      244
   13.040      226
   13.055      254
   13.070      264
   13.085      274
   13.100      241
   13.115      241
   13.130      246
   13.145      255
   13.160      251
   13.175      241
   13.190      266
   13.205      268
   13.220      266
   13.235      263
   13.250      271
   13.265      288
   13.280      294
   13.295      294
   13.310      311
   13.325      300
   13.340      311
   13.355      340
   13.370      352
   13.385      344
   13.400      366
   13.415      373
   13.430      367
   13.445      339
   13.460      313
   13.475      311
   13.490      300
   13.505      269
   13.520      241
   13.535      282
   13.550      277
   13.565      270
   13.580      258
   13.595      284
   13.610      260
   13.625      234
   13.640      279
   13.655      283
   13.670      276
   13.685      257
   13.700      247
   13.715      262
   13.730      264
   13.745      236
   13.760      226
   13.775      228
   13.790      225
   13.805      251
   13.820      235
   13.835      233
   13.850      225
   13.865      221
   13.880      231
   13.895      218
   13.910      229
   13.925      217
   13.940      233
   13.955      219
   13.970      237
   13.985      212
   14.000      224
   14.015      216
   14.030      208
   14.045      202
   14.060      222
   14.075      202
   14.090      226
   14.105      227
   14.120      223
   14.135      249
   14.150      227
   14.165      244
   14.180      213
   14.195      219
   14.210      204
   14.225      237
   14.240      228
   14.255      212
   14.270      222
   14.285      246
   14.300      227
   14.315      223
   14.330      204
   14.345      231
   14.360      228
   14.375      216
   14.390      207
   14.405      216
   14.420      206
   14.435      231
   14.450      220
   14.465      209
   14.480      220
   14.495      205
   14.510      211
   14.525      222
   14.540      223
   14.555      222
   14.570      216
   14.585      224
   14.600      227
   14.615      225
   14.630      218
   14.645      234
   14.660      227
   14.675      235
   14.690      219
   14.705      199
   14.720      208
   14.735      207
   14.750      210
   14.765      229
   14.780      216
   14.795      221
   14.810      207
   14.825      207
   14.840      225
   14.855      210
   14.870      212
   14.885      211
   14.900      209
   14.915      243
   14.930      208
   14.945      212
   14.960      240
   14.975      228
   14.990      219
   15.005      229
   15.020      213
   15.035      196
   15.050      222
   15.065      207
   15.080      196
   15.095      206
   15.110      207
   15.125      239
   15.140      216
   15.155      187
   15.170      201
   15.185      223
   15.200      222
   15.215      217
   15.230      193
   15.245      191
   15.260      203
   15.275      199
   15.290      230
   15.305      223
   15.320      210
   15.335      207
   15.350      233
   15.365      197
   15.380      188
   15.395      218
   15.410      218
   15.425      204
   15.440      195
   15.455      206
   15.470      204
   15.485      197
   15.500      220
   15.515      213
   15.530      185
   15.545      197
   15.560      210
   15.575      224
   15.590      216
   15.605      213
   15.620      204
   15.635      228
   15.650      222
   15.665      220
   15.680      200
   15.695      216
   15.710      223
   15.725      224
   15.740      205
   15.755      196
   15.770      200
   15.785      220
   15.800      216
   15.815      211
   15.830      211
   15.845      203
   15.860      227
   15.875      209
   15.890      192
   15.905      217
   15.920      208
   15.935      220
   15.950      209
   15.965      229
   15.980      223
   15.995      206
   16.010      199
   16.025      227
   16.040      196
   16.055      214
   16.070      201
   16.085      218
   16.100      234
   16.115      248
   16.130      224
   16.145      208
   16.160      198
   16.175      211
   16.190      235
   16.205      229
   16.220      223
   16.235      236
   16.250      235
   16.265      246
   16.280      218
   16.295      234
   16.310      247
   16.325      245
   16.340      245
   16.355      241
   16.370      259
   16.385      258
   16.400      242
   16.415      240
   16.430      252
   16.445      244
   16.460      235
   16.475      234
   16.490      259
   16.505      242
   16.520      231
   16.535      237
   16.550      245
   16.565      223
   16.580      220
   16.595      250
   16.610      206
   16.625      204
   16.640      199
   16.655      190
   16.670      224
   16.685      205
   16.700      204
   16.715      236
   16.730      228
   16.745      214
   16.760      218
   16.775      240
   16.790      234
   16.805      220
   16.820      234
   16.835      242
   16.850      256
   16.865      231
   16.880      229
   16.895      228
   16.910      223
   16.925      239
   16.940      235
   16.955      234
   16.970      231
   16.985      223
   17.000      213
   17.015      229
   17.030      239
   17.045      220
   17.060      225
   17.075      229
   17.090      220
   17.105      223
   17.120      222
   17.135      208
   17.150      232
   17.165      237
   17.180      247
   17.195      248
   17.210      219
   17.225      220
   17.240      231
   17.255      227
   17.270      213
   17.285      226
   17.300      234
   17.315      225
   17.330      209
   17.345      225
   17.360      240
   17.375      232
   17.390      198
   17.405      218
   17.420      233
   17.435      248
   17.450      238
   17.465      220
   17.480      209
   17.495      215
   17.510      232
   17.525      226
   17.540      204
   17.555      225
   17.570      238
   17.585      230
   17.600      239
   17.615      245
   17.630      231
   17.645      222
   17.660      247
   17.675      238
   17.690      237
   17.705      236
   17.720      233
   17.735      248
   17.750      221
   17.765      233
   17.780      237
   17.795      234
   17.810      242
   17.825      227
   17.840      234
   17.855      231
   17.870      235
   17.885      212
   17.900      230
   17.915      242
   17.930      234
   17.945      233
   17.960      237
   17.975      241
   17.990      249
   18.005      274
   18.020      258
   18.035      282
   18.050      253
   18.065      260
   18.080      264
   18.095      241
   18.110      262
   18.125      287
   18.140      256
   18.155      245
   18.170      239
   18.185      268
   18.200      240
   18.215      236
   18.230      244
   18.245      229
   18.260      239
   18.275      263
   18.290      260
   18.305      262
   18.320      234
   18.335      240
   18.350      253
   18.365      260
   18.380      238
   18.395      220
   18.410      224
   18.425      258
   18.440      261
   18.455      248
   18.470      264
   18.485      253
   18.500      272
   18.515      272
   18.530      262
   18.545      260
   18.560      263
   18.575      254
   18.590      238
   18.605      245
   18.620      246
   18.635      209
   18.650      231
   18.665      240
   18.680      257
   18.695      243
   18.710      244
   18.725      266
   18.740      250
   18.755      240
   18.770      243
   18.785      263
   18.800      261
   18.815      244
   18.830      270
   18.845      244
   18.860      251
   18.875      251
   18.890      267
   18.905      268
   18.920      242
   18.935      255
   18.950      248
   18.965      241
   18.980      233
   18.995      230
   19.010      228
   19.025      229
   19.040      249
   19.055      253
   19.070      249
   19.085      249
   19.100      243
   19.115      281
   19.130      253
   19.145      240
   19.160      242
   19.175      221
   19.190      248
   19.205      216
   19.220      237
   19.235      273
   19.250      262
   19.265      251
   19.280      223
   19.295      262
   19.310      279
   19.325      271
   19.340      262
   19.355      246
   19.370      259
   19.385      281
   19.400      274
   19.415      313
   19.430      315
   19.445      304
   19.460      290
   19.475      290
   19.490      303
   19.505      310
   19.520      319
   19.535      283
   19.550      295
   19.565      294
   19.580      277
   19.595      284
   19.610      300
   19.625      298
   19.640      294
   19.655      302
   19.670      295
   19.685      251
   19.700      280
   19.715      282
   19.730      251
   19.745      232
   19.760      246
   19.775      249
   19.790      239
   19.805      242
   19.820      268
   19.835      234
   19.850      248
   19.865      258
   19.880      254
   19.895      254
   19.910      248
   19.925      259
   19.940      243
   19.955      249
   19.970      242
   19.985      247
   20.000      260
   20.015      263
   20.030      259
   20.045      238
   20.060      257
   20.075      246
   20.090      240
   20.105      239
   20.120      231
   20.135      254
   20.150      247
   20.165      230
   20.180      258
   20.195      247
   20.210      259
   20.225      264
   20.240      264
   20.255      256
   20.270      263
   20.285      223
   20.300      231
   20.315      253
   20.330      245
   20.345      248
   20.360      244
   20.375      229
   20.390      265
   20.405      268
   20.420      253
   20.435      231
   20.450      240
   20.465      259
   20.480      242
   20.495      249
   20.510      268
   20.525      251
   20.540      231
   20.555      240
   20.570      223
   20.585      236
   20.600      258
   20.615      248
   20.630      265
   20.645      242
   20.660      254
   20.675      265
   20.690      265
   20.705      233
   20.720      245
   20.735      241
   20.750      262
   20.765      246
   20.780      250
   20.795      246
   20.810      241
   20.825      258
   20.840      249
   20.855      251
   20.870      264
   20.885      271
   20.900      264
   20.915      273
   20.930      279
   20.945      243
   20.960      234
   20.975      244
   20.990      215
   21.005      236
   21.020      251
   21.035      266
   21.050      240
   21.065      241
   21.080      238
   21.095      255
   21.110      269
   21.125      261
   21.140      256
   21.155      258
   21.170      265
   21.185      244
   21.200      254
   21.215      260
   21.230      257
   21.245      270
   21.260      260
   21.275      253
   21.290      267
   21.305      259
   21.320      251
   21.335      245
   21.350      249
   21.365      273
   21.380      273
   21.395      281
   21.410      274
   21.425      276
   21.440      280
   21.455      268
   21.470      262
   21.485      245
   21.500      259
   21.515      253
   21.530      291
   21.545      277
   21.560      281
   21.575      282
   21.590      299
   21.605      280
   21.620      301
   21.635      271
   21.650      289
   21.665      295
   21.680      297
   21.695      278
   21.710      258
   21.725      292
   21.740      270
   21.755      275
   21.770      282
   21.785      267
   21.800      280
   21.815      281
   21.830      279
   21.845      266
   21.860      281
   21.875      267
   21.890      270
   21.905      277
   21.920      281
   21.935      273
   21.950      265
   21.965      275
   21.980      274
   21.995      258
   22.010      291
   22.025      292
   22.040      267
   22.055      287
   22.070      302
   22.085      295
   22.100      280
   22.115      317
   22.130      321
   22.145      291
   22.160      276
   22.175      263
   22.190      298
   22.205      301
   22.220      291
   22.235      262
   22.250      262
   22.265      273
   22.280      278
   22.295      270
   22.310      283
   22.325      299
   22.340      280
   22.355      268
   22.370      301
   22.385      296
   22.400      261
   22.415      259
   22.430      276
   22.445      268
   22.460      265
   22.475      268
   22.490      285
   22.505      273
   22.520      257
   22.535      268
   22.550      261
   22.565      263
   22.580      269
   22.595      260
   22.610      272
   22.625      274
   22.640      264
   22.655      266
   22.670      260
   22.685      285
   22.700      248
   22.715      264
   22.730      266
   22.745      262
   22.760      271
   22.775      244
   22.790      242
   22.805      263
   22.820      258
   22.835      274
   22.850      262
   22.865      261
   22.880      275
   22.895      258
   22.910      260
   22.925      259
   22.940      272
   22.955      272
   22.970      265
   22.985      270
   23.000      255
   23.015      267
   23.030      276
   23.045      256
   23.060      262
   23.075      269
   23.090      281
   23.105      268
   23.120      290
   23.135      319
   23.150      297
   23.165      281
   23.180      283
   23.195      293
   23.210      271
   23.225      295
   23.240      262
   23.255      287
   23.270      309
   23.285      283
   23.300      276
   23.315      293
   23.330      313
   23.345      274
   23.360      279
   23.375      282
   23.390      287
   23.405      275
   23.420      284
   23.435      318
   23.450      308
   23.465      262
   23.480      293
   23.495      301
   23.510      300
   23.525      286
   23.540      282
   23.555      284
   23.570      294
   23.585      312
   23.600      290
   23.615      318
   23.630      300
   23.645      309
   23.660      289
   23.675      291
   23.690      277
   23.705      293
   23.720      301
   23.735      296
   23.750      276
   23.765      275
   23.780      280
   23.795      299
   23.810      277
   23.825      270
   23.840      285
   23.855      299
   23.870      291
   23.885      292
   23.900      303
   23.915      285
   23.930      286
   23.945      282
   23.960      287
   23.975      267
   23.990      268
   24.005      267
   24.020      250
   24.035      245
   24.050      256
   24.065      271
   24.080      253
   24.095      272
   24.110      274
   24.125      271
   24.140      273
   24.155      296
   24.170      293
   24.185      265
   24.200      275
   24.215      290
   24.230      296
   24.245      269
   24.260      274
   24.275      260
   24.290      244
   24.305      279
   24.320      285
   24.335      276
   24.350      288
   24.365      294
   24.380      290
   24.395      278
   24.410      255
   24.425      276
   24.440      285
   24.455      290
   24.470      278
   24.485      266
   24.500      294
   24.515      271
   24.530      252
   24.545      306
   24.560      278
   24.575      264
   24.590      262
   24.605      281
   24.620      294
   24.635      287
   24.650      281
   24.665      323
   24.680      289
   24.695      308
   24.710      313
   24.725      334
   24.740      337
   24.755      337
   24.770      348
   24.785      369
   24.800      336
   24.815      325
   24.830      305
   24.845      306
   24.860      298
   24.875      286
   24.890      307
   24.905      275
   24.920      272
   24.935      295
   24.950      288
   24.965      294
   24.980      299
   24.995      273
   25.010      285
   25.025      279
   25.040      286
   25.055      262
   25.070      298
   25.085      299
   25.100      285
   25.115      295
   25.130      315
   25.145      329
   25.160      311
   25.175      323
   25.190      312
   25.205      322
   25.220      326
   25.235      327
   25.250      308
   25.265      326
   25.280      327
   25.295      344
   25.310      328
   25.325      320
   25.340      326
   25.355      330
   25.370      300
   25.385      285
   25.400      298
   25.415      302
   25.430      323
   25.445      326
   25.460      332
   25.475      324
   25.490      323
   25.505      318
   25.520      327
   25.535      336
   25.550      322
   25.565      309
   25.580      334
   25.595      341
   25.610      356
   25.625      351
   25.640      352
   25.655      387
   25.670      379
   25.685      396
   25.700      400
   25.715      388
   25.730      431
   25.745      450
   25.760      471
   25.775      487
   25.790      462
   25.805      459
   25.820      463
   25.835      458
   25.850      455
   25.865      444
   25.880      417
   25.895      395
   25.910      382
   25.925      383
   25.940      382
   25.955      384
   25.970      377
   25.985      355
   26.000      345
   26.015      369
   26.030      348
   26.045      360
   26.060      394
   26.075      362
   26.090      372
   26.105      340
   26.120      351
   26.135      361
   26.150      400
   26.165      402
   26.180      398
   26.195      432
   26.210      443
   26.225      439
   26.240      452
   26.255      477
   26.270      473
   26.285      504
   26.300      550
   26.315      551
   26.330      589
   26.345      571
   26.360      514
   26.375      525
   26.390      517
   26.405      524
   26.420      532
   26.435      511
   26.450      483
   26.465      474
   26.480      454
   26.495      482
   26.510      468
   26.525      448
   26.540      468
   26.555      481
   26.570      460
   26.585      494
   26.600      491
   26.615      484
   26.630      495
   26.645      496
   26.660      496
   26.675      537
   26.690      537
   26.705      516
   26.720      553
   26.735      568
   26.750      565
   26.765      545
   26.780      556
   26.795      599
   26.810      571
   26.825      581
   26.840      576
   26.855      562
   26.870      537
   26.885      521
   26.900      549
   26.915      555
   26.930      559
   26.945      561
   26.960      537
   26.975      587
   26.990      599
   27.005      601
   27.020      632
   27.035      624
   27.050      649
   27.065      655
   27.080      716
   27.095      711
   27.110      705
   27.125      704
   27.140      744
   27.155      738
   27.170      732
   27.185      710
   27.200      727
   27.215      702
   27.230      668
   27.245      684
   27.260      680
   27.275      673
   27.290      670
   27.305      643
   27.320      674
   27.335      700
   27.350      670
   27.365      664
   27.380      662
   27.395      654
   27.410      700
   27.425      683
   27.440      681
   27.455      677
   27.470      701
   27.485      685
   27.500      648
   27.515      698
   27.530      709
   27.545      697
   27.560      673
   27.575      706
   27.590      735
   27.605      731
   27.620      717
   27.635      701
   27.650      776
   27.665      751
   27.680      749
   27.695      747
   27.710      763
   27.725      742
   27.740      777
   27.755      794
   27.770      814
   27.785      839
   27.800      894
   27.815      886
   27.830      845
   27.845      784
   27.860      725
   27.875      696
   27.890      691
   27.905      672
   27.920      662
   27.935      591
   27.950      552
   27.965      565
   27.980      539
   27.995      544
   28.010      486
   28.025      454
   28.040      510
   28.055      452
   28.070      456
   28.085      472
   28.100      430
   28.115      400
   28.130      438
   28.145      418
   28.160      398
   28.175      387
   28.190      407
   28.205      357
   28.220      404
   28.235      392
   28.250      379
   28.265      360
   28.280      380
   28.295      373
   28.310      343
   28.325      316
   28.340      357
   28.355      352
   28.370      371
   28.385      372
   28.400      334
   28.415      317
   28.430      315
   28.445      339
   28.460      319
   28.475      315
   28.490      335
   28.505      312
   28.520      323
   28.535      309
   28.550      294
   28.565      310
   28.580      294
   28.595      292
   28.610      306
   28.625      280
   28.640      284
   28.655      282
   28.670      302
   28.685      294
   28.700      287
   28.715      292
   28.730      285
   28.745      299
   28.760      297
   28.775      294
   28.790      282
   28.805      278
   28.820      295
   28.835      274
   28.850      279
   28.865      294
   28.880      272
   28.895      265
   28.910      268
   28.925      277
   28.940      265
   28.955      283
   28.970      282
   28.985      269
   29.000      260
   29.015      287
   29.030      283
   29.045      293
   29.060      253
   29.075      257
   29.090      261
   29.105      253
   29.120      291
   29.135      252
   29.150      269
   29.165      271
   29.180      232
   29.195      257
   29.210      276
   29.225      270
   29.240      268
   29.255      274
   29.270      265
   29.285      264
   29.300      263
   29.315      262
   29.330      256
   29.345      232
   29.360      235
   29.375      253
   29.390      242
   29.405      259
   29.420      257
   29.435      248
   29.450      243
   29.465      248
   29.480      267
   29.495      267
   29.510      233
   29.525      245
   29.540      242
   29.555      229
   29.570      253
   29.585      262
   29.600      252
   29.615      238
   29.630      239
   29.645      241
   29.660      227
   29.675      233
   29.690      233
   29.705      240
   29.720      220
   29.735      238
   29.750      245
   29.765      228
   29.780      226
   29.795      240
   29.810      234
   29.825      240
   29.840      236
   29.855      224
   29.870      224
   29.885      238
   29.900      244
   29.915      233
   29.930      248
   29.945      226
   29.960      248
   29.975      252
   29.990      255
   30.005      276
   30.020      280
   30.035      278
   30.050      258
   30.065      239
   30.080      265
   30.095      264
   30.110      275
   30.125      271
   30.140      239
   30.155      241
   30.170      229
   30.185      233
   30.200      238
   30.215      254
   30.230      248
   30.245      236
   30.260      242
   30.275      231
   30.290      237
   30.305      265
   30.320      240
   30.335      246
   30.350      236
   30.365      258
   30.380      219
   30.395      206
   30.410      208
   30.425      223
   30.440      229
   30.455      233
   30.470      214
   30.485      217
   30.500      229
   30.515      227
   30.530      207
   30.545      244
   30.560      228
   30.575      229
   30.590      227
   30.605      244
   30.620      229
   30.635      228
   30.650      229
   30.665      235
   30.680      244
   30.695      244
   30.710      245
   30.725      231
   30.740      269
   30.755      245
   30.770      245
   30.785      260
   30.800      239
   30.815      242
   30.830      244
   30.845      261
   30.860      246
   30.875      221
   30.890      225
   30.905      244
   30.920      251
   30.935      230
   30.950      220
   30.965      253
   30.980      235
   30.995      250
   31.010      258
   31.025      227
   31.040      275
   31.055      277
   31.070      297
   31.085      319
   31.100      312
   31.115      317
   31.130      293
   31.145      277
   31.160      274
   31.175      247
   31.190      245
   31.205      224
   31.220      244
   31.235      224
   31.250      223
   31.265      208
   31.280      222
   31.295      209
   31.310      201
   31.325      190
   31.340      192
   31.355      205
   31.370      214
   31.385      221
   31.400      205
   31.415      182
   31.430      185
   31.445      220
   31.460      219
   31.475      213
   31.490      219
   31.505      206
   31.520      195
   31.535      198
   31.550      214
   31.565      202
   31.580      198
   31.595      192
   31.610      219
   31.625      197
   31.640      199
   31.655      216
   31.670      208
   31.685      211
   31.700      211
   31.715      199
   31.730      208
   31.745      223
   31.760      204
   31.775      187
   31.790      187
   31.805      201
   31.820      187
   31.835      188
   31.850      198
   31.865      196
   31.880      190
   31.895      202
   31.910      200
   31.925      194
   31.940      192
   31.955      177
   31.970      205
   31.985      194
   32.000      190
   32.015      190
   32.030      190
   32.045      184
   32.060      201
   32.075      198
   32.090      193
   32.105      192
   32.120      195
   32.135      207
   32.150      205
   32.165      212
   32.180      197
   32.195      194
   32.210      185
   32.225      200
   32.240      166
   32.255      195
   32.270      188
   32.285      179
   32.300      172
   32.315      178
   32.330      192
   32.345      207
   32.360      177
   32.375      162
   32.390      173
   32.405      170
   32.420      185
   32.435      184
   32.450      176
   32.465      169
   32.480      169
   32.495      194
   32.510      166
   32.525      184
   32.540      175
   32.555      183
   32.570      189
   32.585      181
   32.600      190
   32.615      192
   32.630      199
   32.645      172
   32.660      181
   32.675      184
   32.690      186
   32.705      173
   32.720      183
   32.735      182
   32.750      180
   32.765      168
   32.780      171
   32.795      166
   32.810      170
   32.825      173
   32.840      158
   32.855      174
   32.870      170
   32.885      182
   32.900      172
   32.915      172
   32.930      162
   32.945      157
   32.960      167
   32.975      167
   32.990      163
   33.005      183
   33.020      177
   33.035      170
   33.050      161
   33.065      160
   33.080      188
   33.095      175
   33.110      163
   33.125      156
   33.140      163
   33.155      184
   33.170      173
   33.185      164
   33.200      166
   33.215      165
   33.230      178
   33.245      169
   33.260      163
   33.275      168
   33.290      162
   33.305      147
   33.320      178
   33.335      164
   33.350      168
   33.365      156
   33.380      158
   33.395      149
   33.410      160
   33.425      157
   33.440      159
   33.455      159
   33.470      166
   33.485      161
   33.500      150
   33.515      179
   33.530      183
   33.545      166
   33.560      157
   33.575      161
   33.590      168
   33.605      169
   33.620      150
   33.635      166
   33.650      171
   33.665      173
   33.680      182
   33.695      162
   33.710      173
   33.725      177
   33.740      160
   33.755      161
   33.770      175
   33.785      183
   33.800      175
   33.815      174
   33.830      164
   33.845      177
   33.860      184
   33.875      176
   33.890      156
   33.905      190
   33.920      181
   33.935      154
   33.950      178
   33.965      192
   33.980      179
   33.995      175
   34.010      165
   34.025      171
   34.040      170
   34.055      160
   34.070      168
   34.085      157
   34.100      159
   34.115      167
   34.130      164
   34.145      161
   34.160      155
   34.175      161
   34.190      169
   34.205      168
   34.220      171
   34.235      166
   34.250      160
   34.265      152
   34.280      140
   34.295      152
   34.310      157
   34.325      173
   34.340      157
   34.355      136
   34.370      147
   34.385      156
   34.400      153
   34.415      149
   34.430      152
   34.445      154
   34.460      142
   34.475      147
   34.490      150
   34.505      145
   34.520      159
   34.535      152
   34.550      158
   34.565      170
   34.580      157
   34.595      183
   34.610      156
   34.625      149
   34.640      150
   34.655      157
   34.670      156
   34.685      159
   34.700      149
   34.715      129
   34.730      142
   34.745      148
   34.760      150
   34.775      145
   34.790      158
   34.805      133
   34.820      157
   34.835      135
   34.850      148
   34.865      162
   34.880      163
   34.895      157
   34.910      165
   34.925      143
   34.940      155
   34.955      150
   34.970      172
   34.985      152
   35.000      139
   35.015      166
   35.030      153
   35.045      135
   35.060      137
   35.075      140
   35.090      127
   35.105      140
   35.120      151
   35.135      144
   35.150      152
   35.165      169
   35.180      150
   35.195      134
   35.210      118
   35.225      142
   35.240      141
   35.255      149
   35.270      123
   35.285      128
   35.300      158
   35.315      149
   35.330      128
   35.345      143
   35.360      154
   35.375      142
   35.390      134
   35.405      141
   35.420      141
   35.435      153
   35.450      147
   35.465      122
   35.480      151
   35.495      147
   35.510      131
   35.525      149
   35.540      143
   35.555      131
   35.570      123
   35.585      129
   35.600      135
   35.615      155
   35.630      141
   35.645      136
   35.660      139
   35.675      154
   35.690      125
   35.705      118
   35.720      125
   35.735      140
   35.750      125
   35.765      114
   35.780      127
   35.795      131
   35.810      149
   35.825      147
   35.840      132
   35.855      124
   35.870      135
   35.885      131
   35.900      122
   35.915      131
   35.930      133
   35.945      144
   35.960      125
   35.975      142
   35.990      133
   36.005      120
   36.020      121
   36.035      126
   36.050      122
   36.065      129
   36.080      123
   36.095      129
   36.110      128
   36.125      146
   36.140      125
   36.155      131
   36.170      120
   36.185      117
   36.200      123
   36.215      137
   36.230      134
   36.245      131
   36.260      146
   36.275      139
   36.290      140
   36.305      120
   36.320      123
   36.335      108
   36.350      144
   36.365      134
   36.380      132
   36.395      133
   36.410      120
   36.425      130
   36.440      128
   36.455      136
   36.470      119
   36.485      107
   36.500      136
   36.515      133
   36.530      124
   36.545      123
   36.560      132
   36.575      141
   36.590      128
   36.605      124
   36.620      126
   36.635      123
   36.650      103
   36.665      130
   36.680      138
   36.695      134
   36.710      132
   36.725      111
   36.740      135
   36.755      141
   36.770      122
   36.785      116
   36.800      124
   36.815      132
   36.830      135
   36.845      102
   36.860      115
   36.875      117
   36.890      112
   36.905      125
   36.920      139
   36.935      130
   36.950      127
   36.965      132
   36.980      139
   36.995      126
   37.010      132
   37.025      132
   37.040      124
   37.055      127
   37.070      129
   37.085      103
   37.100      117
   37.115      113
   37.130      120
   37.145      133
   37.160      126
   37.175      121
   37.190      129
   37.205      116
   37.220      131
   37.235      128
   37.250      103
   37.265      123
   37.280      120
   37.295      105
   37.310      124
   37.325      135
   37.340      136
   37.355      125
   37.370      116
   37.385      129
   37.400      117
   37.415      126
   37.430      127
   37.445      111
   37.460      128
   37.475      116
   37.490      120
   37.505      138
   37.520      122
   37.535      140
   37.550      134
   37.565      127
   37.580      127
   37.595      127
   37.610      140
   37.625      123
   37.640      123
   37.655      116
   37.670      112
   37.685      134
   37.700      121
   37.715      128
   37.730      132
   37.745      129
   37.760      119
   37.775      122
   37.790      121
   37.805      137
   37.820      113
   37.835      110
   37.850      127
   37.865      102
   37.880      123
   37.895      134
   37.910      117
   37.925      114
   37.940      114
   37.955      136
   37.970      123
   37.985      129
   38.000      131
   38.015      117
   38.030      125
   38.045      120
   38.060      123
   38.075      109
   38.090      126
   38.105      135
   38.120      125
   38.135      116
   38.150      119
   38.165      122
   38.180      125
   38.195      112
   38.210      121
   38.225      124
   38.240      117
   38.255      116
   38.270      122
   38.285      116
   38.300      103
   38.315      112
   38.330      111
   38.345      114
   38.360      111
   38.375      117
   38.390      135
   38.405      131
   38.420      124
   38.435      124
   38.450      122
   38.465      125
   38.480      107
   38.495      114
   38.510      127
   38.525      108
   38.540      136
   38.555      113
   38.570      118
   38.585      134
   38.600      116
   38.615      120
   38.630      108
   38.645      110
   38.660      114
   38.675      127
   38.690      115
   38.705      112
   38.720      114
   38.735      111
   38.750      115
   38.765      132
   38.780      126
   38.795      113
   38.810      120
   38.825      136
   38.840      112
   38.855      134
   38.870      122
   38.885      121
   38.900      115
   38.915      120
   38.930      114
   38.945      133
   38.960      111
   38.975      108
   38.990      117
   39.005      125
   39.020      111
   39.035      120
   39.050      125
   39.065      111
   39.080      117
   39.095      137
   39.110      125
   39.125      115
   39.140      108
   39.155      139
   39.170      119
   39.185      119
   39.200      117
   39.215      124
   39.230      119
   39.245      108
   39.260      120
   39.275      120
   39.290      117
   39.305      109
   39.320      109
   39.335      106
   39.350      107
   39.365      117
   39.380      117
   39.395      119
   39.410      110
   39.425      108
   39.440      122
   39.455      124
   39.470      123
   39.485      122
   39.500      141
   39.515      126
   39.530      113
   39.545       92
   39.560      105
   39.575      104
   39.590      105
   39.605      101
   39.620      102
   39.635      114
   39.650      123
   39.665      127
   39.680      121
   39.695      133
   39.710      121
   39.725      110
   39.740      113
   39.755      127
   39.770      116
   39.785      126
   39.800      121
   39.815      122
   39.830      127
   39.845      122
   39.860      117
   39.875      109
   39.890       95
   39.905       93
   39.920      127
   39.935      155
   39.950      129
   39.965      118
   39.980      133
   39.995      134
   40.010      119
   40.025      124
   40.040      120
   40.055      114
   40.070      119
   40.085      113
   40.100      116
   40.115      101
   40.130      110
   40.145      117
   40.160      110
   40.175      128
   40.190      129
   40.205      115
   40.220      133
   40.235      123
   40.250      133
   40.265      123
   40.280      122
   40.295      138
   40.310      141
   40.325      126
   40.340      115
   40.355      128
   40.370      133
   40.385      122
   40.400      119
   40.415      126
   40.430      124
   40.445      121
   40.460      121
   40.475      114
   40.490      107
   40.505      125
   40.520      127
   40.535      138
   40.550      122
   40.565      111
   40.580      119
   40.595      124
   40.610      115
   40.625      131
   40.640      123
   40.655      119
   40.670      124
   40.685      126
   40.700      124
   40.715      123
   40.730      138
   40.745      137
   40.760      132
   40.775      124
   40.790      124
   40.805      134
   40.820      111
   40.835      117
   40.850      128
   40.865      117
   40.880      127
   40.895      119
   40.910      135
   40.925      120
   40.940      133
   40.955      124
   40.970      110
   40.985      123
   41.000      124
   41.015      109
   41.030      121
   41.045      123
   41.060      129
   41.075      133
   41.090       94
   41.105      112
   41.120      125
   41.135      122
   41.150      138
   41.165      138
   41.180      137
   41.195      122
   41.210      118
   41.225      118
   41.240      136
   41.255      131
   41.270      121
   41.285      132
   41.300      110
   41.315      110
   41.330      119
   41.345      132
   41.360      134
   41.375      119
   41.390      117
   41.405      111
   41.420       98
   41.435       92
   41.450       90
   41.465      105
   41.480      123
   41.495      116
   41.510       97
   41.525      112
   41.540      115
   41.555      116
   41.570      113
   41.585      119
   41.600      131
   41.615      117
   41.630      106
   41.645      110
   41.660      120
   41.675      123
   41.690      116
   41.705      109
   41.720      101
   41.735      108
   41.750      123
   41.765      117
   41.780      116
   41.795      123
   41.810      108
   41.825      106
   41.840      111
   41.855      110
   41.870      119
   41.885      111
   41.900      107
   41.915      120
   41.930      129
   41.945      127
   41.960      121
   41.975      141
   41.990      115
   42.005      126
   42.020      125
   42.035      129
   42.050      134
   42.065      105
   42.080      116
   42.095      111
   42.110      112
   42.125      116
   42.140      130
   42.155      127
   42.170      127
   42.185      106
   42.200      104
   42.215      123
   42.230      125
   42.245      139
   42.260      112
   42.275      125
   42.290      111
   42.305      124
   42.320      123
   42.335      110
   42.350      109
   42.365      116
   42.380      111
   42.395      110
   42.410      117
   42.425      132
   42.440      104
   42.455      115
   42.470      122
   42.485      130
   42.500      107
   42.515      114
   42.530      117
   42.545      123
   42.560      110
   42.575      112
   42.590      128
   42.605      124
   42.620      131
   42.635      118
   42.650      104
   42.665      125
   42.680      107
   42.695      118
   42.710      120
   42.725      130
   42.740      139
   42.755      132
   42.770      123
   42.785      126
   42.800      111
   42.815      116
   42.830      104
   42.845      124
   42.860      112
   42.875      103
   42.890      118
   42.905      134
   42.920      122
   42.935      114
   42.950      109
   42.965      108
   42.980      106
   42.995      103
   43.010      102
   43.025      115
   43.040      119
   43.055      120
   43.070      109
   43.085      112
   43.100       98
   43.115      110
   43.130      124
   43.145      122
   43.160      113
   43.175      113
   43.190      105
   43.205      119
   43.220      117
   43.235      114
   43.250      116
   43.265      100
   43.280      104
   43.295      121
   43.310      126
   43.325      117
   43.340      118
   43.355      120
   43.370      121
   43.385      104
   43.400      109
   43.415      120
   43.430      116
   43.445      110
   43.460      109
   43.475      126
   43.490      124
   43.505      113
   43.520      110
   43.535      134
   43.550      108
   43.565      118
   43.580       96
   43.595      106
   43.610      123
   43.625      116
   43.640      119
   43.655      117
   43.670      106
   43.685      118
   43.700      111
   43.715      114
   43.730      116
   43.745      107
   43.760      102
   43.775      110
   43.790      117
   43.805      111
   43.820      112
   43.835       97
   43.850      105
   43.865      127
   43.880       98
   43.895      107
   43.910      120
   43.925      125
   43.940      114
   43.955      119
   43.970      132
   43.985      125
   44.000      123
   44.015      120
   44.030      116
   44.045      121
   44.060      125
   44.075      124
   44.090      124
   44.105      125
   44.120      117
   44.135      127
   44.150      112
   44.165      112
   44.180      124
   44.195      127
   44.210      134
   44.225      119
   44.240      117
   44.255      137
   44.270      117
   44.285      115
   44.300      109
   44.315      124
   44.330      116
   44.345      115
   44.360      125
   44.375      130
   44.390      104
   44.405      112
   44.420      118
   44.435      107
   44.450      121
   44.465      122
   44.480      132
   44.495      122
   44.510      118
   44.525      106
   44.540      115
   44.555      135
   44.570      123
   44.585      129
   44.600      135
   44.615      120
   44.630      113
   44.645      115
   44.660      117
   44.675      124
   44.690      106
   44.705      124
   44.720      109
   44.735      127
   44.750      120
   44.765      129
   44.780      119
   44.795      132
   44.810      125
   44.825      123
   44.840      113
   44.855      117
   44.870      116
   44.885      117
   44.900      143
   44.915      120
   44.930      112
   44.945      120
   44.960      132
   44.975      114
   44.990      121
   45.005      100
   45.020      124
   45.035      138
   45.050      143
   45.065      112
   45.080      118
   45.095      122
   45.110      114
   45.125      124
   45.140      124
   45.155      118
   45.170      107
   45.185      100
   45.200      108
   45.215      107
   45.230      116
   45.245      123
   45.260      116
   45.275      116
   45.290      119
   45.305      124
   45.320      116
   45.335      120
   45.350      122
   45.365      103
   45.380      101
   45.395      109
   45.410       99
   45.425      112
   45.440      135
   45.455      116
   45.470      126
   45.485      119
   45.500      113
   45.515      112
   45.530      105
   45.545      105
   45.560      105
   45.575      118
   45.590      106
   45.605       86
   45.620      104
   45.635      115
   45.650      113
   45.665      104
   45.680      104
   45.695       98
   45.710      101
   45.725      102
   45.740      107
   45.755      118
   45.770      114
   45.785      113
   45.800      121
   45.815      122
   45.830      113
   45.845      107
   45.860      114
   45.875      118
   45.890      123
   45.905      110
   45.920      118
   45.935      111
   45.950      112
   45.965      142
   45.980      101
   45.995      116
   46.010      124
   46.025      111
   46.040      115
   46.055      110
   46.070      105
   46.085      109
   46.100      102
   46.115      112
   46.130      109
   46.145      121
   46.160      110
   46.175      104
   46.190      127
   46.205      115
   46.220      125
   46.235      122
   46.250      115
   46.265      109
   46.280      115
   46.295      104
   46.310      101
   46.325      118
   46.340      112
   46.355      107
   46.370      105
   46.385      113
   46.400      113
   46.415      103
   46.430      118
   46.445      110
   46.460      115
   46.475      116
   46.490      108
   46.505       92
   46.520       97
   46.535      106
   46.550      114
   46.565      122
   46.580      115
   46.595      117
   46.610      126
   46.625      107
   46.640      110
   46.655      115
   46.670       97
   46.685      103
   46.700       93
   46.715       94
   46.730      116
   46.745      101
   46.760      113
   46.775      115
   46.790      117
   46.805      106
   46.820      118
   46.835      108
   46.850      107
   46.865      115
   46.880      116
   46.895      108
   46.910      116
   46.925      121
   46.940      109
   46.955      128
   46.970      119
   46.985      116
   47.000       97
   47.015      114
   47.030      120
   47.045      124
   47.060      106
   47.075      100
   47.090      112
   47.105      118
   47.120       99
   47.135      102
   47.150      121
   47.165      114
   47.180      111
   47.195      104
   47.210      106
   47.225      107
   47.240       98
   47.255      111
   47.270       99
   47.285       98
   47.300       96
   47.315       98
   47.330      115
   47.345      116
   47.360      117
   47.375      111
   47.390      109
   47.405      108
   47.420       99
   47.435      104
   47.450       88
   47.465      108
   47.480      106
   47.495      104
   47.510       93
   47.525      104
   47.540      105
   47.555      119
   47.570       98
   47.585      116
   47.600      112
   47.615      113
   47.630      103
   47.645      103
   47.660      112
   47.675       88
   47.690       96
   47.705       90
   47.720       92
   47.735       96
   47.750      101
   47.765      111
   47.780      111
   47.795      111
   47.810      106
   47.825      116
   47.840      100
   47.855      108
   47.870       98
   47.885      101
   47.900       99
   47.915       85
   47.930      101
   47.945      102
   47.960      103
   47.975       92
   47.990       95
   48.005       95
   48.020       90
   48.035       93
   48.050       98
   48.065      104
   48.080      101
   48.095      104
   48.110       84
   48.125       95
   48.140       98
   48.155      115
   48.170      108
   48.185       97
   48.200       92
   48.215       99
   48.230       99
   48.245      103
   48.260       93
   48.275       79
   48.290       97
   48.305       94
   48.320      111
   48.335      103
   48.350      106
   48.365      104
   48.380       86
   48.395       95
   48.410       97
   48.425       91
   48.440      101
   48.455       96
   48.470       98
   48.485       85
   48.500       90
   48.515      100
   48.530       95
   48.545       95
   48.560      115
   48.575      112
   48.590       79
   48.605       82
   48.620       85
   48.635      106
   48.650      102
   48.665      101
   48.680      104
   48.695      110
   48.710       93
   48.725      112
   48.740      101
   48.755      117
   48.770      109
   48.785       88
   48.800       91
   48.815       92
   48.830       98
   48.845      106
   48.860      101
   48.875      106
   48.890       93
   48.905       96
   48.920       91
   48.935       95
   48.950      101
   48.965      110
   48.980       95
   48.995      109
   49.010       91
   49.025       99
   49.040       90
   49.055       90
   49.070       92
   49.085      100
   49.100      102
   49.115      100
   49.130      104
   49.145      103
   49.160      100
   49.175      103
   49.190       96
   49.205       84
   49.220      112
   49.235       91
   49.250      101
   49.265      102
   49.280       94
   49.295      102
   49.310      106
   49.325      105
   49.340       93
   49.355      105
   49.370       96
   49.385       95
   49.400      108
   49.415      100
   49.430       93
   49.445      104
   49.460      115
   49.475      108
   49.490      114
   49.505       94
   49.520      101
   49.535      108
   49.550      100
   49.565      100
   49.580      116
   49.595       99
   49.610      100
   49.625      115
   49.640       91
   49.655       87
   49.670      103
   49.685       99
   49.700      106
   49.715       93
   49.730       98
   49.745       88
   49.760      113
   49.775       97
   49.790       80
   49.805      111
   49.820      106
   49.835      110
   49.850      104
   49.865       89
   49.880       93
   49.895      101
   49.910       97
   49.925       93
   49.940      100
   49.955       97
   49.970       97
   49.985      104
   50.000       97
   50.015       96
   50.030       99
   50.045      112
   50.060       94
   50.075       89
   50.090       94
   50.105      101
   50.120      100
   50.135       92
   50.150       93
   50.165       78
   50.180       84
   50.195       86
   50.210       95
   50.225       95
   50.240      110
   50.255       99
   50.270       82
   50.285       98
   50.300      114
   50.315      109
   50.330      103
   50.345       95
   50.360       92
   50.375       97
   50.390       82
   50.405      110
   50.420       94
   50.435       84
   50.450       98
   50.465       99
   50.480       91
   50.495       99
   50.510      101
   50.525      103
   50.540      100
   50.555       89
   50.570       94
   50.585      100
   50.600      108
   50.615       90
   50.630       87
   50.645       94
   50.660      104
   50.675       91
   50.690       91
   50.705       99
   50.720       98
   50.735      102
   50.750       93
   50.765       95
   50.780      101
   50.795       93
   50.810       88
   50.825       95
   50.840       95
   50.855      105
   50.870       81
   50.885       91
   50.900       84
   50.915       93
   50.930       92
   50.945       87
   50.960      100
   50.975       95
   50.990      100
   51.005      108
   51.020      103
   51.035       99
   51.050       89
   51.065       97
   51.080       96
   51.095       90
   51.110      100
   51.125       88
   51.140       81
   51.155       81
   51.170       87
   51.185       92
   51.200       91
   51.215       95
   51.230       98
   51.245       83
   51.260       91
   51.275       83
   51.290       98
   51.305      101
   51.320       94
   51.335      101
   51.350       86
   51.365       95
   51.380      103
   51.395      110
   51.410       93
   51.425       99
   51.440       89
   51.455       76
   51.470       83
   51.485      116
   51.500      107
   51.515      101
   51.530       94
   51.545       88
   51.560       87
   51.575       93
   51.590       80
   51.605       88
   51.620       98
   51.635       94
   51.650      104
   51.665       90
   51.680      102
   51.695       97
   51.710       99
   51.725      100
   51.740       92
   51.755       79
   51.770       87
   51.785       86
   51.800      102
   51.815      105
   51.830       98
   51.845      106
   51.860      101
   51.875       98
   51.890      104
   51.905      110
   51.920       96
   51.935       85
   51.950       89
   51.965      101
   51.980       85
   51.995       95
   52.010      100
   52.025      104
   52.040      103
   52.055      104
   52.070      111
   52.085       96
   52.100       97
   52.115       88
   52.130       95
   52.145      101
   52.160      106
   52.175       95
   52.190       90
   52.205       88
   52.220       97
   52.235       87
   52.250       89
   52.265       94
   52.280      107
   52.295      101
   52.310      103
   52.325       95
   52.340      111
   52.355      101
   52.370       96
   52.385       91
   52.400       81
   52.415       93
   52.430       90
   52.445       89
   52.460       90
   52.475       94
   52.490       98
   52.505       89
   52.520       82
   52.535      100
   52.550      102
   52.565      101
   52.580       85
   52.595       94
   52.610      102
   52.625       80
   52.640       95
   52.655      105
   52.670       86
   52.685       88
   52.700       96
   52.715       91
   52.730      100
   52.745      128
   52.760       99
   52.775       91
   52.790       87
   52.805       81
   52.820      103
   52.835      112
   52.850       92
   52.865      108
   52.880      111
   52.895       97
   52.910       94
   52.925       90
   52.940       92
   52.955       94
   52.970      100
   52.985       96
   53.000       92
   53.015       98
   53.030      111
   53.045      108
   53.060      109
   53.075      105
   53.090      109
   53.105       88
   53.120       95
   53.135       97
   53.150       88
   53.165       97
   53.180       98
   53.195      100
   53.210       87
   53.225      108
   53.240      107
   53.255      109
   53.270      102
   53.285       99
   53.300       92
   53.315      105
   53.330      108
   53.345      107
   53.360      110
   53.375      103
   53.390      106
   53.405      109
   53.420      101
   53.435      100
   53.450       88
   53.465       99
   53.480      102
   53.495       87
   53.510       88
   53.525       96
   53.540       81
   53.555       77
   53.570      107
   53.585       98
   53.600       94
   53.615      101
   53.630       84
   53.645       96
   53.660       97
   53.675       99
   53.690       98
   53.705       94
   53.720       75
   53.735       95
   53.750       94
   53.765       98
   53.780       99
   53.795       98
   53.810       90
   53.825       94
   53.840      100
   53.855       93
   53.870      101
   53.885       93
   53.900       98
   53.915      101
   53.930       89
   53.945       91
   53.960       94
   53.975       90
   53.990       97
   54.005       76
   54.020       78
   54.035       92
   54.050       85
   54.065       82
   54.080       89
   54.095       93
   54.110      109
   54.125      103
   54.140      109
   54.155       83
   54.170       93
   54.185       90
   54.200       94
   54.215       95
   54.230      104
   54.245      105
   54.260       85
   54.275       82
   54.290       87
   54.305       88
   54.320      107
   54.335      103
   54.350       94
   54.365       96
   54.380       92
   54.395       97
   54.410       93
   54.425       91
   54.440      110
   54.455      105
   54.470       98
   54.485       96
   54.500      104
   54.515      107
   54.530      101
   54.545      100
   54.560      103
   54.575      112
   54.590      100
   54.605       86
   54.620      101
   54.635      105
   54.650       97
   54.665       97
   54.680       95
   54.695       97
   54.710      109
   54.725       87
   54.740      108
   54.755      109
   54.770      103
   54.785       95
   54.800       79
   54.815      102
   54.830      105
   54.845       93
   54.860       98
   54.875       98
   54.890       93
   54.905       88
   54.920       92
   54.935       86
   54.950       88
   54.965      108
   54.980      107
   54.995      105
   55.010       95
   55.025      105
   55.040       88
   55.055       84
   55.070      110
   55.085      101
   55.100       91
   55.115       97
   55.130       97
   55.145       96
   55.160      102
   55.175       98
   55.190       85
   55.205       92
   55.220      107
   55.235       94
   55.250      105
   55.265      101
   55.280       84
   55.295       98
   55.310       88
   55.325       96
   55.340       96
   55.355       99
   55.370      102
   55.385       94
   55.400       99
   55.415       95
   55.430      115
   55.445       99
   55.460      107
   55.475       99
   55.490      112
   55.505      101
   55.520       93
   55.535      106
   55.550      101
   55.565       83
   55.580       96
   55.595      105
   55.610      109
   55.625       94
   55.640       89
   55.655      101
   55.670       96
   55.685       94
   55.700      101
   55.715      106
   55.730      107
   55.745       92
   55.760       92
   55.775       91
   55.790       99
   55.805       83
   55.820       97
   55.835      101
   55.850      107
   55.865       86
   55.880       94
   55.895       94
   55.910       89
   55.925       97
   55.940      106
   55.955      119
   55.970       87
   55.985       91
   56.000      101
   56.015       97
   56.030       97
   56.045       93
   56.060       85
   56.075      104
   56.090      117
   56.105      102
   56.120       81
   56.135       76
   56.150       93
   56.165      104
   56.180      100
   56.195       85
   56.210      101
   56.225      106
   56.240      105
   56.255       94
   56.270       90
   56.285       88
   56.300       94
   56.315       93
   56.330       94
   56.345      107
   56.360      103
   56.375       88
   56.390      102
   56.405       93
   56.420       86
   56.435       92
   56.450       99
   56.465       97
   56.480       85
   56.495      101
   56.510       90
   56.525      100
   56.540       89
   56.555       85
   56.570      105
   56.585       92
   56.600       98
   56.615       98
   56.630       93
   56.645       97
   56.660      104
   56.675      106
   56.690      108
   56.705      112
   56.720       93
   56.735      110
   56.750       89
   56.765       93
   56.780       94
   56.795      101
   56.810      100
   56.825       97
   56.840      104
   56.855       84
   56.870       95
   56.885       92
   56.900      101
   56.915       80
   56.930       96
   56.945       97
   56.960      103
   56.975      104
   56.990       95
   57.005      111
   57.020      100
   57.035       96
   57.050       90
   57.065       91
   57.080      103
   57.095       89
   57.110       88
   57.125       93
   57.140       96
   57.155      100
   57.170      102
   57.185       96
   57.200       90
   57.215       86
   57.230       85
   57.245       99
   57.260       84
   57.275       91
   57.290       90
   57.305       85
   57.320       72
   57.335       93
   57.350       96
   57.365       91
   57.380       90
   57.395       84
   57.410       84
   57.425       79
   57.440       89
   57.455       89
   57.470       95
   57.485       97
   57.500       86
   57.515       93
   57.530       93
   57.545       96
   57.560       83
   57.575       87
   57.590       86
   57.605       87
   57.620       86
   57.635      105
   57.650       90
   57.665       83
   57.680       72
   57.695       92
   57.710       82
   57.725       92
   57.740       85
   57.755       95
   57.770       88
   57.785       95
   57.800       94
   57.815       98
   57.830       87
   57.845       88
   57.860       98
   57.875       89
   57.890       83
   57.905       90
   57.920       87
   57.935       98
   57.950       91
   57.965      101
   57.980       90
   57.995       93
   58.010       89
   58.025       90
   58.040      101
   58.055       88
   58.070       79
   58.085       86
   58.100       99
   58.115       91
   58.130       89
   58.145      103
   58.160      100
   58.175       92
   58.190      101
   58.205       87
   58.220       90
   58.235       94
   58.250       81
   58.265       83
   58.280       88
   58.295       87
   58.310       87
   58.325       85
   58.340       90
   58.355       94
   58.370       82
   58.385       77
   58.400       87
   58.415       89
   58.430       91
   58.445       85
   58.460       84
   58.475       86
   58.490       84
   58.505      103
   58.520       94
   58.535       84
   58.550       78
   58.565       73
   58.580       72
   58.595       79
   58.610       83
   58.625       80
   58.640       72
   58.655       89
   58.670       73
   58.685       66
   58.700       71
   58.715       88
   58.730       93
   58.745       83
   58.760       83
   58.775       78
   58.790       93
   58.805       89
   58.820       77
   58.835       77
   58.850       80
   58.865       97
   58.880       84
   58.895       71
   58.910       89
   58.925       83
   58.940       93
   58.955       92
   58.970       88
   58.985       99
   59.000       87
   59.015       90
   59.030       83
   59.045       71
   59.060       79
   59.075       80
   59.090       93
   59.105       91
   59.120       73
   59.135       77
   59.150       77
   59.165       86
   59.180       87
   59.195       88
   59.210       80
   59.225       83
   59.240       77
   59.255       79
   59.270       65
   59.285       84
   59.300       87
   59.315       89
   59.330       70
   59.345       78
   59.360       78
   59.375       92
   59.390       93
   59.405       82
   59.420       63
   59.435       78
   59.450       65
   59.465       78
   59.480       82
   59.495       86
   59.510       95
   59.525       86
   59.540       89
   59.555       89
   59.570       80
   59.585       76
   59.600       75
   59.615       65
   59.630       67
   59.645       69
   59.660       83
   59.675       82
   59.690       84
   59.705       82
   59.720       77
   59.735       91
   59.750       62
   59.765       66
   59.780       78
   59.795       83
   59.810       67
   59.825       79
   59.840       81
   59.855       83
   59.870       86
   59.885       77
   59.900       82
   59.915       89
   59.930       78
   59.945       81
   59.960       81
   59.975       88
   59.990       97
   60.005       69
   60.020       67
   60.035       71
   60.050       73
   60.065       76
   60.080       74
   60.095       79
   60.110       83
   60.125       75
   60.140       87
   60.155       83
   60.170       79
   60.185       84
   60.200       79
   60.215       77
   60.230       86
   60.245      100
   60.260       79
   60.275       89
   60.290       96
   60.305       94
   60.320       84
   60.335       79
   60.350       71
   60.365       75
   60.380       72
   60.395       77
   60.410       78
   60.425       81
   60.440       75
   60.455       75
   60.470       71
   60.485       91
   60.500       78
   60.515       79
   60.530       74
   60.545       75
   60.560       68
   60.575       84
   60.590       89
   60.605       79
   60.620       78
   60.635       62
   60.650       82
   60.665       73
   60.680       75
   60.695       75
   60.710       82
   60.725       84
   60.740       79
   60.755       91
   60.770       82
   60.785       86
   60.800       82
   60.815       75
   60.830       73
   60.845       79
   60.860       75
   60.875       77
   60.890       70
   60.905       90
   60.920       91
   60.935       76
   60.950       74
   60.965       77
   60.980       83
   60.995       87
   61.010       88
   61.025       76
   61.040       84
   61.055       84
   61.070       72
   61.085       76
   61.100       73
   61.115       89
   61.130       85
   61.145       62
   61.160       69
   61.175       82
   61.190       72
   61.205       72
   61.220       72
   61.235       94
   61.250       84
   61.265       80
   61.280       81
   61.295       79
   61.310       77
   61.325       79
   61.340       76
   61.355       83
   61.370       92
   61.385       80
   61.400       73
   61.415       90
   61.430       88
   61.445       80
   61.460       73
   61.475       91
   61.490       74
   61.505       68
   61.520       71
   61.535       88
   61.550       77
   61.565       65
   61.580       74
   61.595       96
   61.610       84
   61.625       84
   61.640       90
   61.655       79
   61.670       81
   61.685       80
   61.700       80
   61.715       71
   61.730       76
   61.745       68
   61.760       76
   61.775       80
   61.790       77
   61.805       91
   61.820       78
   61.835       78
   61.850       83
   61.865       72
   61.880       87
   61.895       69
   61.910       64
   61.925       69
   61.940       76
   61.955       76
   61.970       84
   61.985       81
