2.00000 6.000
2.01500 5.000
2.03000 2.000
2.04500 1.000
2.06000 4.000
2.07500 3.000
2.09000 3.000
2.10500 1.000
2.12000 4.000
2.13500 3.000
2.15000 2.000
2.16500 1.000
2.18000 2.000
2.19500 3.000
2.21000 1.000
2.22500 1.000
2.24000 4.000
2.25500 4.000
2.27000 5.000
2.28500 2.000
2.30000 3.000
2.31500 6.000
2.33000 4.000
2.34500 4.000
2.36000 4.000
2.37500 3.000
2.39000 6.000
2.40500 5.000
2.42000 5.000
2.43500 5.000
2.45000 3.000
2.46500 5.000
2.48000 6.000
2.49500 1.000
2.51000 3.000
2.52500 3.000
2.54000 3.000
2.55500 3.000
2.57000 2.000
2.58500 5.000
2.60000 2.000
2.61500 2.000
2.63000 2.000
2.64500 5.000
2.66000 3.000
2.67500 3.000
2.69000 4.000
2.70500 3.000
2.72000 1.000
2.73500 2.000
2.75000 1.000
2.76500 3.000
2.78000 3.000
2.79500 4.000
2.81000 5.000
2.82500 6.000
2.84000 6.000
2.85500 6.000
2.87000 6.000
2.88500 5.000
2.90000 4.000
2.91500 2.000
2.93000 5.000
2.94500 1.000
2.96000 1.000
2.97500 4.000
2.99000 3.000
3.00500 3.000
3.02000 6.000
3.03500 4.000
3.05000 3.000
3.06500 3.000
3.08000 2.000
3.09500 4.000
3.11000 4.000
3.12500 5.000
3.14000 8.000
3.15500 6.000
3.17000 12.000
3.18500 16.000
3.20000 18.000
3.21500 28.000
3.23000 32.000
3.24500 50.000
3.26000 62.000
3.27500 82.000
3.29000 117.000
3.30500 116.000
3.32000 150.000
3.33500 163.000
3.35000 183.000
3.36500 180.000
3.38000 198.000
3.39500 202.000
3.41000 217.000
3.42500 215.000
3.44000 188.000
3.45500 181.000
3.47000 206.000
3.48500 211.000
3.50000 219.000
3.51500 216.000
3.53000 225.000
3.54500 229.000
3.56000 211.000
3.57500 215.000
3.59000 211.000
3.60500 207.000
3.62000 227.000
3.63500 219.000
3.65000 220.000
3.66500 212.000
3.68000 224.000
3.69500 201.000
3.71000 197.000
3.72500 208.000
3.74000 214.000
3.75500 223.000
3.77000 223.000
3.78500 222.000
3.80000 213.000
3.81500 217.000
3.83000 228.000
3.84500 226.000
3.86000 221.000
3.87500 237.000
3.89000 231.000
3.90500 209.000
3.92000 224.000
3.93500 228.000
3.95000 228.000
3.96500 234.000
3.98000 215.000
3.99500 249.000
4.01000 271.000
4.02500 261.000
4.04000 256.000
4.05500 257.000
4.07000 258.000
4.08500 260.000
4.10000 245.000
4.11500 238.000
4.13000 247.000
4.14500 238.000
4.16000 239.000
4.17500 236.000
4.19000 269.000
4.20500 259.000
4.22000 263.000
4.23500 259.000
4.25000 256.000
4.26500 272.000
4.28000 268.000
4.29500 268.000
4.31000 266.000
4.32500 258.000
4.34000 259.000
4.35500 260.000
4.37000 244.000
4.38500 265.000
4.40000 269.000
4.41500 252.000
4.43000 273.000
4.44500 257.000
4.46000 271.000
4.47500 267.000
4.49000 263.000
4.50500 257.000
4.52000 257.000
4.53500 268.000
4.55000 251.000
4.56500 266.000
4.58000 257.000
4.59500 266.000
4.61000 274.000
4.62500 267.000
4.64000 281.000
4.65500 279.000
4.67000 296.000
4.68500 273.000
4.70000 279.000
4.71500 278.000
4.73000 277.000
4.74500 290.000
4.76000 299.000
4.77500 268.000
4.79000 262.000
4.80500 301.000
4.82000 262.000
4.83500 274.000
4.85000 291.000
4.86500 273.000
4.88000 301.000
4.89500 255.000
4.91000 291.000
4.92500 283.000
4.94000 281.000
4.95500 291.000
4.97000 308.000
4.98500 296.000
5.00000 301.000
5.01500 311.000
5.03000 303.000
5.04500 293.000
5.06000 316.000
5.07500 288.000
5.09000 291.000
5.10500 282.000
5.12000 300.000
5.13500 284.000
5.15000 307.000
5.16500 328.000
5.18000 302.000
5.19500 340.000
5.21000 338.000
5.22500 341.000
5.24000 301.000
5.25500 314.000
5.27000 292.000
5.28500 277.000
5.30000 309.000
5.31500 305.000
5.33000 328.000
5.34500 316.000
5.36000 302.000
5.37500 291.000
5.39000 321.000
5.40500 317.000
5.42000 314.000
5.43500 335.000
5.45000 321.000
5.46500 319.000
5.48000 319.000
5.49500 326.000
5.51000 334.000
5.52500 321.000
5.54000 330.000
5.55500 353.000
5.57000 347.000
5.58500 334.000
5.60000 298.000
5.61500 283.000
5.63000 309.000
5.64500 343.000
5.66000 330.000
5.67500 390.000
5.69000 337.000
5.70500 317.000
5.72000 324.000
5.73500 324.000
5.75000 332.000
5.76500 342.000
5.78000 308.000
5.79500 327.000
5.81000 340.000
5.82500 320.000
5.84000 332.000
5.85500 323.000
5.87000 321.000
5.88500 324.000
5.90000 340.000
5.91500 301.000
5.93000 322.000
5.94500 308.000
5.96000 315.000
5.97500 363.000
5.99000 340.000
6.00500 305.000
6.02000 323.000
6.03500 337.000
6.05000 338.000
6.06500 352.000
6.08000 340.000
6.09500 325.000
6.11000 342.000
6.12500 338.000
6.14000 338.000
6.15500 344.000
6.17000 362.000
6.18500 347.000
6.20000 343.000
6.21500 356.000
6.23000 354.000
6.24500 336.000
6.26000 314.000
6.27500 333.000
6.29000 352.000
6.30500 358.000
6.32000 369.000
6.33500 362.000
6.35000 359.000
6.36500 353.000
6.38000 350.000
6.39500 366.000
6.41000 352.000
6.42500 334.000
6.44000 351.000
6.45500 361.000
6.47000 371.000
6.48500 365.000
6.50000 366.000
6.51500 355.000
6.53000 363.000
6.54500 381.000
6.56000 341.000
6.57500 353.000
6.59000 392.000
6.60500 371.000
6.62000 362.000
6.63500 370.000
6.65000 369.000
6.66500 358.000
6.68000 350.000
6.69500 354.000
6.71000 385.000
6.72500 359.000
6.74000 363.000
6.75500 402.000
6.77000 388.000
6.78500 371.000
6.80000 364.000
6.81500 374.000
6.83000 371.000
6.84500 385.000
6.86000 354.000
6.87500 345.000
6.89000 368.000
6.90500 368.000
6.92000 359.000
6.93500 378.000
6.95000 365.000
6.96500 386.000
6.98000 352.000
6.99500 362.000
7.01000 368.000
7.02500 391.000
7.04000 393.000
7.05500 380.000
7.07000 370.000
7.08500 364.000
7.10000 364.000
7.11500 372.000
7.13000 376.000
7.14500 366.000
7.16000 381.000
7.17500 376.000
7.19000 388.000
7.20500 383.000
7.22000 367.000
7.23500 365.000
7.25000 360.000
7.26500 363.000
7.28000 367.000
7.29500 379.000
7.31000 377.000
7.32500 382.000
7.34000 378.000
7.35500 354.000
7.37000 360.000
7.38500 385.000
7.40000 358.000
7.41500 356.000
7.43000 381.000
7.44500 371.000
7.46000 400.000
7.47500 365.000
7.49000 364.000
7.50500 362.000
7.52000 387.000
7.53500 366.000
7.55000 387.000
7.56500 382.000
7.58000 364.000
7.59500 392.000
7.61000 401.000
7.62500 372.000
7.64000 406.000
7.65500 406.000
7.67000 368.000
7.68500 383.000
7.70000 406.000
7.71500 364.000
7.73000 404.000
7.74500 375.000
7.76000 362.000
7.77500 393.000
7.79000 395.000
7.80500 422.000
7.82000 385.000
7.83500 390.000
7.85000 389.000
7.86500 371.000
7.88000 382.000
7.89500 377.000
7.91000 374.000
7.92500 382.000
7.94000 385.000
7.95500 395.000
7.97000 396.000
7.98500 396.000
8.00000 405.000
8.01500 389.000
8.03000 410.000
8.04500 387.000
8.06000 408.000
8.07500 400.000
8.09000 373.000
8.10500 403.000
8.12000 401.000
8.13500 417.000
8.15000 382.000
8.16500 403.000
8.18000 402.000
8.19500 375.000
8.21000 400.000
8.22500 421.000
8.24000 399.000
8.25500 392.000
8.27000 380.000
8.28500 410.000
8.30000 416.000
8.31500 421.000
8.33000 417.000
8.34500 394.000
8.36000 423.000
8.37500 432.000
8.39000 410.000
8.40500 416.000
8.42000 417.000
8.43500 419.000
8.45000 394.000
8.46500 393.000
8.48000 412.000
8.49500 421.000
8.51000 433.000
8.52500 376.000
8.54000 400.000
8.55500 416.000
8.57000 386.000
8.58500 392.000
8.60000 396.000
8.61500 380.000
8.63000 407.000
8.64500 407.000
8.66000 389.000
8.67500 429.000
8.69000 411.000
8.70500 379.000
8.72000 393.000
8.73500 382.000
8.75000 385.000
8.76500 440.000
8.78000 433.000
8.79500 387.000
8.81000 367.000
8.82500 413.000
8.84000 402.000
8.85500 388.000
8.87000 388.000
8.88500 410.000
8.90000 391.000
8.91500 395.000
8.93000 390.000
8.94500 387.000
8.96000 417.000
8.97500 411.000
8.99000 419.000
9.00500 411.000
9.02000 403.000
9.03500 413.000
9.05000 414.000
9.06500 391.000
9.08000 383.000
9.09500 408.000
9.11000 375.000
9.12500 371.000
9.14000 396.000
9.15500 426.000
9.17000 404.000
9.18500 396.000
9.20000 381.000
9.21500 389.000
9.23000 368.000
9.24500 409.000
9.26000 422.000
9.27500 411.000
9.29000 387.000
9.30500 423.000
9.32000 405.000
9.33500 428.000
9.35000 430.000
9.36500 407.000
9.38000 404.000
9.39500 425.000
9.41000 429.000
9.42500 379.000
9.44000 424.000
9.45500 416.000
9.47000 383.000
9.48500 408.000
9.50000 416.000
9.51500 430.000
9.53000 414.000
9.54500 399.000
9.56000 431.000
9.57500 401.000
9.59000 395.000
9.60500 413.000
9.62000 424.000
9.63500 438.000
9.65000 415.000
9.66500 421.000
9.68000 418.000
9.69500 410.000
9.71000 392.000
9.72500 418.000
9.74000 417.000
9.75500 384.000
9.77000 388.000
9.78500 387.000
9.80000 394.000
9.81500 436.000
9.83000 403.000
9.84500 420.000
9.86000 403.000
9.87500 401.000
9.89000 412.000
9.90500 436.000
9.92000 405.000
9.93500 402.000
9.95000 388.000
9.96500 410.000
9.98000 441.000
9.99500 426.000
10.01000 413.000
10.02500 422.000
10.04000 424.000
10.05500 399.000
10.07000 424.000
10.08500 408.000
10.10000 401.000
10.11500 407.000
10.13000 409.000
10.14500 381.000
10.16000 422.000
10.17500 374.000
10.19000 416.000
10.20500 436.000
10.22000 447.000
10.23500 453.000
10.25000 427.000
10.26500 424.000
10.28000 401.000
10.29500 414.000
10.31000 423.000
10.32500 396.000
10.34000 410.000
10.35500 419.000
10.37000 402.000
10.38500 428.000
10.40000 402.000
10.41500 399.000
10.43000 426.000
10.44500 450.000
10.46000 420.000
10.47500 397.000
10.49000 403.000
10.50500 441.000
10.52000 410.000
10.53500 403.000
10.55000 409.000
10.56500 433.000
10.58000 464.000
10.59500 406.000
10.61000 399.000
10.62500 411.000
10.64000 404.000
10.65500 403.000
10.67000 419.000
10.68500 400.000
10.70000 411.000
10.71500 412.000
10.73000 427.000
10.74500 428.000
10.76000 416.000
10.77500 443.000
10.79000 442.000
10.80500 418.000
10.82000 424.000
10.83500 426.000
10.85000 447.000
10.86500 439.000
10.88000 428.000
10.89500 396.000
10.91000 438.000
10.92500 428.000
10.94000 438.000
10.95500 459.000
10.97000 400.000
10.98500 423.000
11.00000 427.000
11.01500 448.000
11.03000 392.000
11.04500 392.000
11.06000 442.000
11.07500 434.000
11.09000 441.000
11.10500 425.000
11.12000 428.000
11.13500 438.000
11.15000 397.000
11.16500 418.000
11.18000 451.000
11.19500 433.000
11.21000 434.000
11.22500 419.000
11.24000 458.000
11.25500 439.000
11.27000 398.000
11.28500 409.000
11.30000 435.000
11.31500 444.000
11.33000 440.000
11.34500 403.000
11.36000 449.000
11.37500 423.000
11.39000 422.000
11.40500 432.000
11.42000 428.000
11.43500 422.000
11.45000 424.000
11.46500 438.000
11.48000 428.000
11.49500 431.000
11.51000 432.000
11.52500 435.000
11.54000 424.000
11.55500 431.000
11.57000 465.000
11.58500 454.000
11.60000 438.000
11.61500 434.000
11.63000 448.000
11.64500 472.000
11.66000 439.000
11.67500 419.000
11.69000 443.000
11.70500 408.000
11.72000 407.000
11.73500 457.000
11.75000 419.000
11.76500 428.000
11.78000 408.000
11.79500 431.000
11.81000 444.000
11.82500 458.000
11.84000 444.000
11.85500 437.000
11.87000 424.000
11.88500 449.000
11.90000 445.000
11.91500 442.000
11.93000 483.000
11.94500 468.000
11.96000 470.000
11.97500 455.000
11.99000 428.000
12.00500 427.000
12.02000 440.000
12.03500 422.000
12.05000 408.000
12.06500 433.000
12.08000 439.000
12.09500 424.000
12.11000 423.000
12.12500 429.000
12.14000 425.000
12.15500 419.000
12.17000 417.000
12.18500 423.000
12.20000 409.000
12.21500 421.000
12.23000 436.000
12.24500 439.000
12.26000 439.000
12.27500 409.000
12.29000 444.000
12.30500 438.000
12.32000 420.000
12.33500 425.000
12.35000 434.000
12.36500 421.000
12.38000 440.000
12.39500 438.000
12.41000 441.000
12.42500 427.000
12.44000 414.000
12.45500 407.000
12.47000 438.000
12.48500 467.000
12.50000 460.000
12.51500 435.000
12.53000 432.000
12.54500 435.000
12.56000 425.000
12.57500 446.000
12.59000 441.000
12.60500 461.000
12.62000 460.000
12.63500 472.000
12.65000 490.000
12.66500 449.000
12.68000 458.000
12.69500 451.000
12.71000 422.000
12.72500 453.000
12.74000 495.000
12.75500 457.000
12.77000 445.000
12.78500 446.000
12.80000 470.000
12.81500 447.000
12.83000 434.000
12.84500 451.000
12.86000 456.000
12.87500 443.000
12.89000 444.000
12.90500 450.000
12.92000 454.000
12.93500 440.000
12.95000 422.000
12.96500 450.000
12.98000 441.000
12.99500 465.000
13.01000 457.000
13.02500 474.000
13.04000 471.000
13.05500 454.000
13.07000 448.000
13.08500 461.000
13.10000 462.000
13.11500 447.000
13.13000 439.000
13.14500 435.000
13.16000 455.000
13.17500 463.000
13.19000 458.000
13.20500 457.000
13.22000 491.000
13.23500 466.000
13.25000 462.000
13.26500 454.000
13.28000 431.000
13.29500 436.000
13.31000 453.000
13.32500 446.000
13.34000 484.000
13.35500 449.000
13.37000 440.000
13.38500 452.000
13.40000 473.000
13.41500 480.000
13.43000 481.000
13.44500 443.000
13.46000 446.000
13.47500 467.000
13.49000 452.000
13.50500 438.000
13.52000 430.000
13.53500 441.000
13.55000 475.000
13.56500 460.000
13.58000 464.000
13.59500 450.000
13.61000 498.000
13.62500 463.000
13.64000 436.000
13.65500 448.000
13.67000 487.000
13.68500 469.000
13.70000 469.000
13.71500 463.000
13.73000 442.000
13.74500 458.000
13.76000 477.000
13.77500 452.000
13.79000 471.000
13.80500 460.000
13.82000 488.000
13.83500 469.000
13.85000 454.000
13.86500 453.000
13.88000 449.000
13.89500 457.000
13.91000 428.000
13.92500 447.000
13.94000 457.000
13.95500 495.000
13.97000 456.000
13.98500 444.000
14.00000 448.000
14.01500 471.000
14.03000 466.000
14.04500 479.000
14.06000 477.000
14.07500 504.000
14.09000 478.000
14.10500 482.000
14.12000 484.000
14.13500 511.000
14.15000 446.000
14.16500 468.000
14.18000 501.000
14.19500 476.000
14.21000 429.000
14.22500 442.000
14.24000 462.000
14.25500 463.000
14.27000 462.000
14.28500 496.000
14.30000 476.000
14.31500 475.000
14.33000 464.000
14.34500 474.000
14.36000 496.000
14.37500 497.000
14.39000 491.000
14.40500 446.000
14.42000 468.000
14.43500 434.000
14.45000 441.000
14.46500 452.000
14.48000 451.000
14.49500 495.000
14.51000 479.000
14.52500 462.000
14.54000 475.000
14.55500 470.000
14.57000 471.000
14.58500 451.000
14.60000 475.000
14.61500 446.000
14.63000 451.000
14.64500 442.000
14.66000 476.000
14.67500 492.000
14.69000 475.000
14.70500 493.000
14.72000 473.000
14.73500 456.000
14.75000 463.000
14.76500 486.000
14.78000 479.000
14.79500 496.000
14.81000 465.000
14.82500 464.000
14.84000 491.000
14.85500 480.000
14.87000 455.000
14.88500 471.000
14.90000 448.000
14.91500 467.000
14.93000 458.000
14.94500 447.000
14.96000 461.000
14.97500 462.000
14.99000 516.000
15.00500 467.000
15.02000 470.000
15.03500 453.000
15.05000 474.000
15.06500 488.000
15.08000 468.000
15.09500 458.000
15.11000 465.000
15.12500 447.000
15.14000 453.000
15.15500 453.000
15.17000 451.000
15.18500 479.000
15.20000 462.000
15.21500 453.000
15.23000 478.000
15.24500 498.000
15.26000 449.000
15.27500 476.000
15.29000 486.000
15.30500 471.000
15.32000 484.000
15.33500 483.000
15.35000 465.000
15.36500 462.000
15.38000 476.000
15.39500 496.000
15.41000 501.000
15.42500 501.000
15.44000 476.000
15.45500 465.000
15.47000 480.000
15.48500 440.000
15.50000 489.000
15.51500 464.000
15.53000 502.000
15.54500 447.000
15.56000 481.000
15.57500 499.000
15.59000 459.000
15.60500 509.000
15.62000 487.000
15.63500 486.000
15.65000 515.000
15.66500 503.000
15.68000 473.000
15.69500 482.000
15.71000 509.000
15.72500 495.000
15.74000 462.000
15.75500 461.000
15.77000 440.000
15.78500 479.000
15.80000 502.000
15.81500 492.000
15.83000 481.000
15.84500 459.000
15.86000 463.000
15.87500 480.000
15.89000 452.000
15.90500 474.000
15.92000 529.000
15.93500 496.000
15.95000 486.000
15.96500 483.000
15.98000 470.000
15.99500 470.000
16.01000 500.000
16.02500 496.000
16.04000 502.000
16.05500 516.000
16.07000 474.000
16.08500 469.000
16.10000 509.000
16.11500 493.000
16.13000 441.000
16.14500 459.000
16.16000 475.000
16.17500 456.000
16.19000 440.000
16.20500 486.000
16.22000 503.000
16.23500 489.000
16.25000 479.000
16.26500 499.000
16.28000 467.000
16.29500 497.000
16.31000 508.000
16.32500 497.000
16.34000 505.000
16.35500 486.000
16.37000 521.000
16.38500 505.000
16.40000 505.000
16.41500 490.000
16.43000 448.000
16.44500 450.000
16.46000 512.000
16.47500 515.000
16.49000 510.000
16.50500 499.000
16.52000 481.000
16.53500 490.000
16.55000 475.000
16.56500 449.000
16.58000 436.000
16.59500 467.000
16.61000 487.000
16.62500 459.000
16.64000 440.000
16.65500 487.000
16.67000 509.000
16.68500 464.000
16.70000 468.000
16.71500 494.000
16.73000 509.000
16.74500 491.000
16.76000 506.000
16.77500 477.000
16.79000 460.000
16.80500 492.000
16.82000 491.000
16.83500 502.000
16.85000 507.000
16.86500 511.000
16.88000 440.000
16.89500 467.000
16.91000 481.000
16.92500 488.000
16.94000 491.000
16.95500 488.000
16.97000 497.000
16.98500 503.000
17.00000 477.000
17.01500 493.000
17.03000 515.000
17.04500 472.000
17.06000 491.000
17.07500 490.000
17.09000 494.000
17.10500 461.000
17.12000 484.000
17.13500 506.000
17.15000 508.000
17.16500 466.000
17.18000 481.000
17.19500 501.000
17.21000 504.000
17.22500 473.000
17.24000 476.000
17.25500 502.000
17.27000 501.000
17.28500 491.000
17.30000 474.000
17.31500 471.000
17.33000 527.000
17.34500 494.000
17.36000 499.000
17.37500 475.000
17.39000 479.000
17.40500 493.000
17.42000 497.000
17.43500 503.000
17.45000 508.000
17.46500 473.000
17.48000 479.000
17.49500 505.000
17.51000 507.000
17.52500 513.000
17.54000 477.000
17.55500 479.000
17.57000 466.000
17.58500 465.000
17.60000 499.000
17.61500 466.000
17.63000 511.000
17.64500 488.000
17.66000 506.000
17.67500 516.000
17.69000 514.000
17.70500 508.000
17.72000 481.000
17.73500 488.000
17.75000 512.000
17.76500 472.000
17.78000 502.000
17.79500 516.000
17.81000 526.000
17.82500 513.000
17.84000 497.000
17.85500 502.000
17.87000 492.000
17.88500 469.000
17.90000 496.000
17.91500 467.000
17.93000 462.000
17.94500 464.000
17.96000 496.000
17.97500 492.000
17.99000 491.000
18.00500 479.000
18.02000 508.000
18.03500 493.000
18.05000 529.000
18.06500 518.000
18.08000 512.000
18.09500 511.000
18.11000 479.000
18.12500 519.000
18.14000 500.000
18.15500 537.000
18.17000 532.000
18.18500 487.000
18.20000 474.000
18.21500 499.000
18.23000 511.000
18.24500 489.000
18.26000 514.000
18.27500 515.000
18.29000 518.000
18.30500 490.000
18.32000 516.000
18.33500 514.000
18.35000 493.000
18.36500 497.000
18.38000 528.000
18.39500 505.000
18.41000 467.000
18.42500 496.000
18.44000 498.000
18.45500 536.000
18.47000 514.000
18.48500 510.000
18.50000 502.000
18.51500 534.000
18.53000 521.000
18.54500 529.000
18.56000 497.000
18.57500 496.000
18.59000 500.000
18.60500 506.000
18.62000 502.000
18.63500 546.000
18.65000 537.000
18.66500 521.000
18.68000 518.000
18.69500 478.000
18.71000 470.000
18.72500 516.000
18.74000 510.000
18.75500 503.000
18.77000 522.000
18.78500 535.000
18.80000 520.000
18.81500 533.000
18.83000 521.000
18.84500 505.000
18.86000 521.000
18.87500 515.000
18.89000 491.000
18.90500 507.000
18.92000 501.000
18.93500 492.000
18.95000 505.000
18.96500 508.000
18.98000 547.000
18.99500 520.000
19.01000 544.000
19.02500 541.000
19.04000 507.000
19.05500 509.000
19.07000 508.000
19.08500 518.000
19.10000 513.000
19.11500 513.000
19.13000 491.000
19.14500 485.000
19.16000 515.000
19.17500 483.000
19.19000 499.000
19.20500 489.000
19.22000 539.000
19.23500 559.000
19.25000 552.000
19.26500 518.000
19.28000 498.000
19.29500 495.000
19.31000 510.000
19.32500 518.000
19.34000 510.000
19.35500 547.000
19.37000 531.000
19.38500 541.000
19.40000 476.000
19.41500 521.000
19.43000 542.000
19.44500 525.000
19.46000 538.000
19.47500 515.000
19.49000 477.000
19.50500 507.000
19.52000 529.000
19.53500 530.000
19.55000 517.000
19.56500 525.000
19.58000 515.000
19.59500 515.000
19.61000 509.000
19.62500 510.000
19.64000 506.000
19.65500 525.000
19.67000 563.000
19.68500 502.000
19.70000 512.000
19.71500 559.000
19.73000 523.000
19.74500 536.000
19.76000 498.000
19.77500 492.000
19.79000 515.000
19.80500 522.000
19.82000 501.000
19.83500 518.000
19.85000 502.000
19.86500 501.000
19.88000 533.000
19.89500 533.000
19.91000 527.000
19.92500 533.000
19.94000 546.000
19.95500 525.000
19.97000 519.000
19.98500 525.000
20.00000 524.000
20.01500 544.000
20.03000 527.000
20.04500 506.000
20.06000 525.000
20.07500 502.000
20.09000 504.000
20.10500 509.000
20.12000 520.000
20.13500 563.000
20.15000 524.000
20.16500 519.000
20.18000 541.000
20.19500 532.000
20.21000 528.000
20.22500 535.000
20.24000 539.000
20.25500 512.000
20.27000 551.000
20.28500 534.000
20.30000 496.000
20.31500 530.000
20.33000 520.000
20.34500 557.000
20.36000 517.000
20.37500 506.000
20.39000 492.000
20.40500 563.000
20.42000 542.000
20.43500 521.000
20.45000 482.000
20.46500 541.000
20.48000 513.000
20.49500 516.000
20.51000 528.000
20.52500 546.000
20.54000 527.000
20.55500 544.000
20.57000 524.000
20.58500 542.000
20.60000 546.000
20.61500 527.000
20.63000 544.000
20.64500 541.000
20.66000 513.000
20.67500 532.000
20.69000 528.000
20.70500 506.000
20.72000 523.000
20.73500 537.000
20.75000 529.000
20.76500 527.000
20.78000 541.000
20.79500 535.000
20.81000 513.000
20.82500 517.000
20.84000 538.000
20.85500 519.000
20.87000 498.000
20.88500 529.000
20.90000 505.000
20.91500 506.000
20.93000 526.000
20.94500 557.000
20.96000 530.000
20.97500 563.000
20.99000 579.000
21.00500 562.000
21.02000 521.000
21.03500 509.000
21.05000 525.000
21.06500 503.000
21.08000 524.000
21.09500 519.000
21.11000 498.000
21.12500 531.000
21.14000 501.000
21.15500 536.000
21.17000 515.000
21.18500 499.000
21.20000 544.000
21.21500 521.000
21.23000 521.000
21.24500 495.000
21.26000 538.000
21.27500 549.000
21.29000 516.000
21.30500 528.000
21.32000 570.000
21.33500 542.000
21.35000 541.000
21.36500 546.000
21.38000 534.000
21.39500 539.000
21.41000 567.000
21.42500 543.000
21.44000 535.000
21.45500 525.000
21.47000 518.000
21.48500 534.000
21.50000 532.000
21.51500 514.000
21.53000 507.000
21.54500 507.000
21.56000 523.000
21.57500 492.000
21.59000 549.000
21.60500 524.000
21.62000 526.000
21.63500 546.000
21.65000 491.000
21.66500 512.000
21.68000 532.000
21.69500 489.000
21.71000 541.000
21.72500 513.000
21.74000 572.000
21.75500 547.000
21.77000 516.000
21.78500 511.000
21.80000 532.000
21.81500 522.000
21.83000 517.000
21.84500 547.000
21.86000 511.000
21.87500 511.000
21.89000 555.000
21.90500 532.000
21.92000 540.000
21.93500 523.000
21.95000 513.000
21.96500 529.000
21.98000 520.000
21.99500 525.000
22.01000 553.000
22.02500 505.000
22.04000 514.000
22.05500 519.000
22.07000 563.000
22.08500 517.000
22.10000 545.000
22.11500 521.000
22.13000 511.000
22.14500 529.000
22.16000 536.000
22.17500 543.000
22.19000 550.000
22.20500 522.000
22.22000 544.000
22.23500 545.000
22.25000 552.000
22.26500 516.000
22.28000 534.000
22.29500 495.000
22.31000 495.000
22.32500 510.000
22.34000 513.000
22.35500 499.000
22.37000 502.000
22.38500 552.000
22.40000 565.000
22.41500 558.000
22.43000 550.000
22.44500 529.000
22.46000 530.000
22.47500 522.000
22.49000 533.000
22.50500 527.000
22.52000 517.000
22.53500 499.000
22.55000 526.000
22.56500 530.000
22.58000 548.000
22.59500 538.000
22.61000 557.000
22.62500 539.000
22.64000 531.000
22.65500 549.000
22.67000 528.000
22.68500 534.000
22.70000 518.000
22.71500 548.000
22.73000 540.000
22.74500 508.000
22.76000 514.000
22.77500 553.000
22.79000 545.000
22.80500 534.000
22.82000 516.000
22.83500 532.000
22.85000 508.000
22.86500 510.000
22.88000 516.000
22.89500 533.000
22.91000 545.000
22.92500 546.000
22.94000 529.000
22.95500 527.000
22.97000 527.000
22.98500 549.000
23.00000 507.000
23.01500 541.000
23.03000 516.000
23.04500 523.000
23.06000 516.000
23.07500 511.000
23.09000 519.000
23.10500 520.000
23.12000 526.000
23.13500 508.000
23.15000 497.000
23.16500 546.000
23.18000 534.000
23.19500 522.000
23.21000 506.000
23.22500 532.000
23.24000 509.000
23.25500 496.000
23.27000 504.000
23.28500 495.000
23.30000 526.000
23.31500 514.000
23.33000 508.000
23.34500 491.000
23.36000 512.000
23.37500 520.000
23.39000 526.000
23.40500 524.000
23.42000 535.000
23.43500 513.000
23.45000 497.000
23.46500 527.000
23.48000 542.000
23.49500 548.000
23.51000 562.000
23.52500 534.000
23.54000 559.000
23.55500 523.000
23.57000 528.000
23.58500 512.000
23.60000 516.000
23.61500 485.000
23.63000 493.000
23.64500 516.000
23.66000 552.000
23.67500 505.000
23.69000 529.000
23.70500 531.000
23.72000 517.000
23.73500 501.000
23.75000 554.000
23.76500 510.000
23.78000 524.000
23.79500 510.000
23.81000 490.000
23.82500 491.000
23.84000 492.000
23.85500 500.000
23.87000 495.000
23.88500 525.000
23.90000 489.000
23.91500 497.000
23.93000 523.000
23.94500 491.000
23.96000 496.000
23.97500 512.000
23.99000 524.000
24.00500 523.000
24.02000 502.000
24.03500 541.000
24.05000 523.000
24.06500 499.000
24.08000 505.000
24.09500 528.000
24.11000 498.000
24.12500 530.000
24.14000 476.000
24.15500 514.000
24.17000 489.000
24.18500 487.000
24.20000 494.000
24.21500 513.000
24.23000 523.000
24.24500 536.000
24.26000 530.000
24.27500 522.000
24.29000 501.000
24.30500 525.000
24.32000 505.000
24.33500 518.000
24.35000 510.000
24.36500 500.000
24.38000 501.000
24.39500 519.000
24.41000 521.000
24.42500 527.000
24.44000 535.000
24.45500 512.000
24.47000 491.000
24.48500 494.000
24.50000 497.000
24.51500 513.000
24.53000 502.000
24.54500 496.000
24.56000 493.000
24.57500 483.000
24.59000 520.000
24.60500 505.000
24.62000 481.000
24.63500 507.000
24.65000 502.000
24.66500 475.000
24.68000 505.000
24.69500 467.000
24.71000 514.000
24.72500 525.000
24.74000 525.000
24.75500 508.000
24.77000 515.000
24.78500 488.000
24.80000 502.000
24.81500 481.000
24.83000 499.000
24.84500 501.000
24.86000 468.000
24.87500 449.000
24.89000 491.000
24.90500 504.000
24.92000 490.000
24.93500 516.000
24.95000 529.000
24.96500 494.000
24.98000 481.000
24.99500 484.000
25.01000 477.000
25.02500 474.000
25.04000 450.000
25.05500 490.000
25.07000 493.000
25.08500 503.000
25.10000 471.000
25.11500 483.000
25.13000 492.000
25.14500 486.000
25.16000 497.000
25.17500 489.000
25.19000 495.000
25.20500 484.000
25.22000 471.000
25.23500 508.000
25.25000 507.000
25.26500 470.000
25.28000 483.000
25.29500 528.000
25.31000 492.000
25.32500 489.000
25.34000 476.000
25.35500 520.000
25.37000 523.000
25.38500 488.000
25.40000 474.000
25.41500 465.000
25.43000 484.000
25.44500 479.000
25.46000 471.000
25.47500 491.000
25.49000 504.000
25.50500 466.000
25.52000 499.000
25.53500 497.000
25.55000 465.000
25.56500 446.000
25.58000 485.000
25.59500 468.000
25.61000 461.000
25.62500 461.000
25.64000 471.000
25.65500 478.000
25.67000 479.000
25.68500 472.000
25.70000 484.000
25.71500 486.000
25.73000 478.000
25.74500 484.000
25.76000 482.000
25.77500 455.000
25.79000 451.000
25.80500 443.000
25.82000 446.000
25.83500 443.000
25.85000 454.000
25.86500 483.000
25.88000 455.000
25.89500 442.000
25.91000 464.000
25.92500 470.000
25.94000 476.000
25.95500 475.000
25.97000 504.000
25.98500 461.000
26.00000 466.000
26.01500 500.000
26.03000 474.000
26.04500 458.000
26.06000 482.000
26.07500 467.000
26.09000 438.000
26.10500 473.000
26.12000 469.000
26.13500 470.000
26.15000 451.000
26.16500 488.000
26.18000 461.000
26.19500 459.000
26.21000 461.000
26.22500 462.000
26.24000 473.000
26.25500 447.000
26.27000 468.000
26.28500 461.000
26.30000 465.000
26.31500 462.000
26.33000 479.000
26.34500 493.000
26.36000 467.000
26.37500 456.000
26.39000 476.000
26.40500 453.000
26.42000 470.000
26.43500 457.000
26.45000 450.000
26.46500 435.000
26.48000 468.000
26.49500 483.000
26.51000 447.000
26.52500 448.000
26.54000 482.000
26.55500 452.000
26.57000 441.000
26.58500 466.000
26.60000 492.000
26.61500 472.000
26.63000 450.000
26.64500 453.000
26.66000 445.000
26.67500 439.000
26.69000 448.000
26.70500 433.000
26.72000 458.000
26.73500 472.000
26.75000 444.000
26.76500 443.000
26.78000 444.000
26.79500 458.000
26.81000 439.000
26.82500 457.000
26.84000 454.000
26.85500 422.000
26.87000 440.000
26.88500 448.000
26.90000 441.000
26.91500 436.000
26.93000 457.000
26.94500 433.000
26.96000 460.000
26.97500 460.000
26.99000 437.000
27.00500 445.000
27.02000 402.000
27.03500 414.000
27.05000 418.000
27.06500 400.000
27.08000 403.000
27.09500 421.000
27.11000 416.000
27.12500 434.000
27.14000 431.000
27.15500 451.000
27.17000 423.000
27.18500 432.000
27.20000 452.000
27.21500 449.000
27.23000 417.000
27.24500 434.000
27.26000 432.000
27.27500 430.000
27.29000 471.000
27.30500 458.000
27.32000 429.000
27.33500 418.000
27.35000 433.000
27.36500 410.000
27.38000 413.000
27.39500 411.000
27.41000 403.000
27.42500 413.000
27.44000 447.000
27.45500 409.000
27.47000 405.000
27.48500 430.000
27.50000 428.000
27.51500 433.000
27.53000 453.000
27.54500 433.000
27.56000 435.000
27.57500 402.000
27.59000 416.000
27.60500 425.000
27.62000 386.000
27.63500 418.000
27.65000 418.000
27.66500 472.000
27.68000 444.000
27.69500 407.000
27.71000 429.000
27.72500 429.000
27.74000 402.000
27.75500 416.000
27.77000 406.000
27.78500 432.000
27.80000 449.000
27.81500 408.000
27.83000 401.000
27.84500 415.000
27.86000 434.000
27.87500 412.000
27.89000 404.000
27.90500 418.000
27.92000 435.000
27.93500 435.000
27.95000 428.000
27.96500 425.000
27.98000 409.000
27.99500 426.000
28.01000 426.000
28.02500 433.000
28.04000 415.000
28.05500 456.000
28.07000 434.000
28.08500 395.000
28.10000 408.000
28.11500 412.000
28.13000 371.000
28.14500 393.000
28.16000 399.000
28.17500 430.000
28.19000 392.000
28.20500 404.000
28.22000 422.000
28.23500 407.000
28.25000 386.000
28.26500 428.000
28.28000 413.000
28.29500 423.000
28.31000 407.000
28.32500 428.000
28.34000 409.000
28.35500 423.000
28.37000 404.000
28.38500 397.000
28.40000 436.000
28.41500 421.000
28.43000 438.000
28.44500 417.000
28.46000 402.000
28.47500 400.000
28.49000 398.000
28.50500 403.000
28.52000 421.000
28.53500 388.000
28.55000 398.000
28.56500 406.000
28.58000 412.000
28.59500 409.000
28.61000 407.000
28.62500 384.000
28.64000 378.000
28.65500 393.000
28.67000 394.000
28.68500 405.000
28.70000 388.000
28.71500 389.000
28.73000 418.000
28.74500 384.000
28.76000 372.000
28.77500 406.000
28.79000 379.000
28.80500 385.000
28.82000 389.000
28.83500 426.000
28.85000 383.000
28.86500 378.000
28.88000 382.000
28.89500 400.000
28.91000 403.000
28.92500 391.000
28.94000 382.000
28.95500 365.000
28.97000 367.000
28.98500 389.000
29.00000 407.000
29.01500 426.000
29.03000 401.000
29.04500 392.000
29.06000 385.000
29.07500 394.000
29.09000 380.000
29.10500 399.000
29.12000 418.000
29.13500 412.000
29.15000 392.000
29.16500 406.000
29.18000 393.000
29.19500 408.000
29.21000 337.000
29.22500 367.000
29.24000 377.000
29.25500 401.000
29.27000 379.000
29.28500 400.000
29.30000 410.000
29.31500 392.000
29.33000 401.000
29.34500 381.000
29.36000 400.000
29.37500 394.000
29.39000 400.000
29.40500 408.000
29.42000 393.000
29.43500 392.000
29.45000 369.000
29.46500 382.000
29.48000 393.000
29.49500 411.000
29.51000 410.000
29.52500 390.000
29.54000 394.000
29.55500 380.000
29.57000 384.000
29.58500 389.000
29.60000 381.000
29.61500 385.000
29.63000 350.000
29.64500 372.000
29.66000 380.000
29.67500 403.000
29.69000 398.000
29.70500 396.000
29.72000 411.000
29.73500 374.000
29.75000 385.000
29.76500 393.000
29.78000 369.000
29.79500 369.000
29.81000 367.000
29.82500 378.000
29.84000 365.000
29.85500 375.000
29.87000 383.000
29.88500 385.000
29.90000 353.000
29.91500 372.000
29.93000 373.000
29.94500 343.000
29.96000 336.000
29.97500 364.000
29.99000 374.000
30.00500 376.000
30.02000 368.000
30.03500 362.000
30.05000 383.000
30.06500 374.000
30.08000 339.000
30.09500 358.000
30.11000 394.000
30.12500 396.000
30.14000 371.000
30.15500 364.000
30.17000 392.000
30.18500 377.000
30.20000 363.000
30.21500 352.000
30.23000 371.000
30.24500 359.000
30.26000 369.000
30.27500 359.000
30.29000 359.000
30.30500 385.000
30.32000 368.000
30.33500 358.000
30.35000 377.000
30.36500 348.000
30.38000 381.000
30.39500 380.000
30.41000 357.000
30.42500 371.000
30.44000 341.000
30.45500 354.000
30.47000 369.000
30.48500 362.000
30.50000 361.000
30.51500 358.000
30.53000 371.000
30.54500 381.000
30.56000 337.000
30.57500 362.000
30.59000 369.000
30.60500 355.000
30.62000 359.000
30.63500 395.000
30.65000 364.000
30.66500 350.000
30.68000 358.000
30.69500 385.000
30.71000 362.000
30.72500 353.000
30.74000 370.000
30.75500 366.000
30.77000 348.000
30.78500 354.000
30.80000 347.000
30.81500 351.000
30.83000 333.000
30.84500 346.000
30.86000 365.000
30.87500 368.000
30.89000 351.000
30.90500 362.000
30.92000 345.000
30.93500 337.000
30.95000 364.000
30.96500 371.000
30.98000 365.000
30.99500 347.000
31.01000 339.000
31.02500 345.000
31.04000 350.000
31.05500 359.000
31.07000 356.000
31.08500 378.000
31.10000 361.000
31.11500 350.000
31.13000 326.000
31.14500 323.000
31.16000 346.000
31.17500 334.000
31.19000 342.000
31.20500 350.000
31.22000 343.000
31.23500 345.000
31.25000 322.000
31.26500 344.000
31.28000 341.000
31.29500 351.000
31.31000 341.000
31.32500 322.000
31.34000 345.000
31.35500 322.000
31.37000 380.000
31.38500 363.000
31.40000 335.000
31.41500 327.000
31.43000 363.000
31.44500 333.000
31.46000 352.000
31.47500 343.000
31.49000 329.000
31.50500 312.000
31.52000 301.000
31.53500 349.000
31.55000 338.000
31.56500 310.000
31.58000 333.000
31.59500 328.000
31.61000 350.000
31.62500 342.000
31.64000 324.000
31.65500 339.000
31.67000 338.000
31.68500 340.000
31.70000 344.000
31.71500 333.000
31.73000 313.000
31.74500 344.000
31.76000 322.000
31.77500 337.000
31.79000 325.000
31.80500 318.000
31.82000 341.000
31.83500 333.000
31.85000 349.000
31.86500 327.000
31.88000 328.000
31.89500 332.000
31.91000 308.000
31.92500 317.000
31.94000 325.000
31.95500 315.000
31.97000 326.000
31.98500 315.000
32.00000 324.000
32.01500 323.000
32.03000 320.000
32.04500 311.000
32.06000 320.000
32.07500 304.000
32.09000 321.000
32.10500 338.000
32.12000 312.000
32.13500 300.000
32.15000 330.000
32.16500 327.000
32.18000 311.000
32.19500 314.000
32.21000 331.000
32.22500 325.000
32.24000 315.000
32.25500 321.000
32.27000 323.000
32.28500 332.000
32.30000 305.000
32.31500 333.000
32.33000 296.000
32.34500 304.000
32.36000 317.000
32.37500 318.000
32.39000 326.000
32.40500 286.000
32.42000 325.000
32.43500 332.000
32.45000 313.000
32.46500 326.000
32.48000 297.000
32.49500 317.000
32.51000 335.000
32.52500 294.000
32.54000 306.000
32.55500 332.000
32.57000 313.000
32.58500 318.000
32.60000 284.000
32.61500 295.000
32.63000 289.000
32.64500 313.000
32.66000 292.000
32.67500 303.000
32.69000 311.000
32.70500 296.000
32.72000 291.000
32.73500 295.000
32.75000 313.000
32.76500 321.000
32.78000 294.000
32.79500 280.000
32.81000 295.000
32.82500 296.000
32.84000 277.000
32.85500 313.000
32.87000 300.000
32.88500 306.000
32.90000 310.000
32.91500 317.000
32.93000 321.000
32.94500 291.000
32.96000 290.000
32.97500 297.000
32.99000 322.000
33.00500 308.000
33.02000 284.000
33.03500 288.000
33.05000 276.000
33.06500 289.000
33.08000 289.000
33.09500 299.000
33.11000 281.000
33.12500 290.000
33.14000 312.000
33.15500 318.000
33.17000 302.000
33.18500 287.000
33.20000 294.000
33.21500 271.000
33.23000 297.000
33.24500 313.000
33.26000 301.000
33.27500 290.000
33.29000 266.000
33.30500 293.000
33.32000 300.000
33.33500 302.000
33.35000 299.000
33.36500 296.000
33.38000 318.000
33.39500 318.000
33.41000 288.000
33.42500 272.000
33.44000 279.000
33.45500 294.000
33.47000 287.000
33.48500 288.000
33.50000 284.000
33.51500 270.000
33.53000 288.000
33.54500 265.000
33.56000 267.000
33.57500 280.000
33.59000 281.000
33.60500 295.000
33.62000 312.000
33.63500 266.000
33.65000 273.000
33.66500 294.000
33.68000 285.000
33.69500 269.000
33.71000 299.000
33.72500 298.000
33.74000 283.000
33.75500 281.000
33.77000 237.000
33.78500 272.000
33.80000 263.000
33.81500 276.000
33.83000 279.000
33.84500 282.000
33.86000 275.000
33.87500 287.000
33.89000 281.000
33.90500 279.000
33.92000 265.000
33.93500 265.000
33.95000 259.000
33.96500 293.000
33.98000 271.000
33.99500 285.000
34.01000 280.000
34.02500 288.000
34.04000 292.000
34.05500 286.000
34.07000 294.000
34.08500 272.000
34.10000 272.000
34.11500 277.000
34.13000 265.000
34.14500 261.000
34.16000 262.000
34.17500 274.000
34.19000 276.000
34.20500 269.000
34.22000 272.000
34.23500 268.000
34.25000 273.000
34.26500 265.000
34.28000 266.000
34.29500 268.000
34.31000 274.000
34.32500 277.000
34.34000 288.000
34.35500 268.000
34.37000 249.000
34.38500 277.000
34.40000 265.000
34.41500 261.000
34.43000 254.000
34.44500 272.000
34.46000 272.000
34.47500 264.000
34.49000 251.000
34.50500 258.000
34.52000 260.000
34.53500 256.000
34.55000 255.000
34.56500 268.000
34.58000 268.000
34.59500 270.000
34.61000 259.000
34.62500 262.000
34.64000 242.000
34.65500 251.000
34.67000 260.000
34.68500 237.000
34.70000 250.000
34.71500 238.000
34.73000 234.000
34.74500 269.000
34.76000 260.000
34.77500 258.000
34.79000 272.000
34.80500 264.000
34.82000 267.000
34.83500 243.000
34.85000 259.000
34.86500 259.000
34.88000 250.000
34.89500 239.000
34.91000 257.000
34.92500 253.000
34.94000 272.000
34.95500 264.000
34.97000 254.000
34.98500 243.000
35.00000 250.000
35.01500 243.000
35.03000 264.000
35.04500 268.000
35.06000 286.000
35.07500 249.000
35.09000 242.000
35.10500 265.000
35.12000 254.000
35.13500 250.000
35.15000 243.000
35.16500 247.000
35.18000 243.000
35.19500 262.000
35.21000 239.000
35.22500 255.000
35.24000 244.000
35.25500 243.000
35.27000 229.000
35.28500 244.000
35.30000 249.000
35.31500 241.000
35.33000 227.000
35.34500 231.000
35.36000 234.000
35.37500 257.000
35.39000 273.000
35.40500 230.000
35.42000 234.000
35.43500 251.000
35.45000 249.000
35.46500 242.000
35.48000 229.000
35.49500 256.000
35.51000 247.000
35.52500 239.000
35.54000 257.000
35.55500 239.000
35.57000 218.000
35.58500 237.000
35.60000 239.000
35.61500 226.000
35.63000 220.000
35.64500 239.000
35.66000 217.000
35.67500 245.000
35.69000 252.000
35.70500 260.000
35.72000 218.000
35.73500 253.000
35.75000 256.000
35.76500 234.000
35.78000 243.000
35.79500 237.000
35.81000 242.000
35.82500 239.000
35.84000 240.000
35.85500 218.000
35.87000 202.000
35.88500 226.000
35.90000 223.000
35.91500 217.000
35.93000 229.000
35.94500 237.000
35.96000 245.000
35.97500 243.000
35.99000 215.000
36.00500 233.000
36.02000 241.000
36.03500 217.000
36.05000 209.000
36.06500 221.000
36.08000 223.000
36.09500 219.000
36.11000 237.000
36.12500 230.000
36.14000 235.000
36.15500 227.000
36.17000 216.000
36.18500 218.000
36.20000 219.000
36.21500 235.000
36.23000 242.000
36.24500 225.000
36.26000 214.000
36.27500 229.000
36.29000 235.000
36.30500 225.000
36.32000 213.000
36.33500 221.000
36.35000 217.000
36.36500 225.000
36.38000 218.000
36.39500 198.000
36.41000 217.000
36.42500 238.000
36.44000 228.000
36.45500 226.000
36.47000 211.000
36.48500 213.000
36.50000 217.000
36.51500 234.000
36.53000 199.000
36.54500 219.000
36.56000 226.000
36.57500 222.000
36.59000 220.000
36.60500 233.000
36.62000 222.000
36.63500 201.000
36.65000 227.000
36.66500 227.000
36.68000 216.000
36.69500 225.000
36.71000 223.000
36.72500 233.000
36.74000 222.000
36.75500 213.000
36.77000 223.000
36.78500 209.000
36.80000 221.000
36.81500 226.000
36.83000 234.000
36.84500 225.000
36.86000 218.000
36.87500 221.000
36.89000 212.000
36.90500 213.000
36.92000 214.000
36.93500 195.000
36.95000 204.000
36.96500 208.000
36.98000 210.000
36.99500 246.000
37.01000 227.000
37.02500 236.000
37.04000 223.000
37.05500 228.000
37.07000 193.000
37.08500 207.000
37.10000 227.000
37.11500 203.000
37.13000 201.000
37.14500 199.000
37.16000 194.000
37.17500 211.000
37.19000 235.000
37.20500 228.000
37.22000 214.000
37.23500 199.000
37.25000 215.000
37.26500 211.000
37.28000 185.000
37.29500 202.000
37.31000 217.000
37.32500 223.000
37.34000 218.000
37.35500 201.000
37.37000 198.000
37.38500 210.000
37.40000 204.000
37.41500 195.000
37.43000 215.000
37.44500 209.000
37.46000 220.000
37.47500 203.000
37.49000 207.000
37.50500 214.000
37.52000 217.000
37.53500 220.000
37.55000 217.000
37.56500 211.000
37.58000 183.000
37.59500 204.000
37.61000 189.000
37.62500 196.000
37.64000 207.000
37.65500 203.000
37.67000 205.000
37.68500 206.000
37.70000 201.000
37.71500 200.000
37.73000 197.000
37.74500 200.000
37.76000 199.000
37.77500 208.000
37.79000 196.000
37.80500 197.000
37.82000 210.000
37.83500 215.000
37.85000 215.000
37.86500 193.000
37.88000 194.000
37.89500 197.000
37.91000 199.000
37.92500 194.000
37.94000 210.000
37.95500 222.000
37.97000 210.000
37.98500 191.000
38.00000 203.000
38.01500 209.000
38.03000 204.000
38.04500 212.000
38.06000 211.000
38.07500 190.000
38.09000 227.000
38.10500 201.000
38.12000 195.000
38.13500 210.000
38.15000 213.000
38.16500 206.000
38.18000 221.000
38.19500 201.000
38.21000 193.000
38.22500 207.000
38.24000 194.000
38.25500 191.000
38.27000 178.000
38.28500 198.000
38.30000 189.000
38.31500 186.000
38.33000 196.000
38.34500 208.000
38.36000 223.000
38.37500 224.000
38.39000 231.000
38.40500 202.000
38.42000 178.000
38.43500 208.000
38.45000 218.000
38.46500 216.000
38.48000 193.000
38.49500 187.000
38.51000 206.000
38.52500 205.000
38.54000 189.000
38.55500 191.000
38.57000 217.000
38.58500 224.000
38.60000 218.000
38.61500 192.000
38.63000 200.000
38.64500 201.000
38.66000 200.000
38.67500 197.000
38.69000 215.000
38.70500 223.000
38.72000 203.000
38.73500 215.000
38.75000 226.000
38.76500 214.000
38.78000 219.000
38.79500 192.000
38.81000 184.000
38.82500 202.000
38.84000 218.000
38.85500 214.000
38.87000 173.000
38.88500 187.000
38.90000 217.000
38.91500 188.000
38.93000 193.000
38.94500 205.000
38.96000 197.000
38.97500 190.000
38.99000 200.000
39.00500 191.000
39.02000 195.000
39.03500 198.000
39.05000 178.000
39.06500 182.000
39.08000 187.000
39.09500 182.000
39.11000 185.000
39.12500 189.000
39.14000 203.000
39.15500 207.000
39.17000 213.000
39.18500 210.000
39.20000 203.000
39.21500 192.000
39.23000 179.000
39.24500 178.000
39.26000 191.000
39.27500 206.000
39.29000 202.000
39.30500 194.000
39.32000 200.000
39.33500 201.000
39.35000 189.000
39.36500 202.000
39.38000 204.000
39.39500 209.000
39.41000 203.000
39.42500 187.000
39.44000 193.000
39.45500 201.000
39.47000 221.000
39.48500 198.000
39.50000 180.000
39.51500 191.000
39.53000 186.000
39.54500 193.000
39.56000 198.000
39.57500 180.000
39.59000 197.000
39.60500 182.000
39.62000 185.000
39.63500 205.000
39.65000 182.000
39.66500 198.000
39.68000 204.000
39.69500 183.000
39.71000 191.000
39.72500 193.000
39.74000 198.000
39.75500 191.000
39.77000 185.000
39.78500 177.000
39.80000 176.000
39.81500 191.000
39.83000 196.000
39.84500 213.000
39.86000 206.000
39.87500 180.000
39.89000 186.000
39.90500 195.000
39.92000 178.000
39.93500 195.000
39.95000 184.000
39.96500 197.000
39.98000 190.000
39.99500 182.000
40.01000 186.000
40.02500 187.000
40.04000 193.000
40.05500 172.000
40.07000 191.000
40.08500 189.000
40.10000 173.000
40.11500 186.000
40.13000 177.000
40.14500 170.000
40.16000 186.000
40.17500 201.000
40.19000 193.000
40.20500 193.000
40.22000 196.000
40.23500 192.000
40.25000 199.000
40.26500 182.000
40.28000 200.000
40.29500 172.000
40.31000 175.000
40.32500 194.000
40.34000 196.000
40.35500 194.000
40.37000 170.000
40.38500 183.000
40.40000 198.000
40.41500 200.000
40.43000 189.000
40.44500 180.000
40.46000 192.000
40.47500 185.000
40.49000 179.000
40.50500 191.000
40.52000 202.000
40.53500 199.000
40.55000 177.000
40.56500 186.000
40.58000 179.000
40.59500 181.000
40.61000 208.000
40.62500 182.000
40.64000 206.000
40.65500 182.000
40.67000 182.000
40.68500 174.000
40.70000 180.000
40.71500 215.000
40.73000 178.000
40.74500 165.000
40.76000 172.000
40.77500 194.000
40.79000 193.000
40.80500 200.000
40.82000 206.000
40.83500 193.000
40.85000 172.000
40.86500 204.000
40.88000 165.000
40.89500 188.000
40.91000 187.000
40.92500 197.000
40.94000 191.000
40.95500 189.000
40.97000 189.000
40.98500 203.000
41.00000 187.000
41.01500 184.000
41.03000 181.000
41.04500 169.000
41.06000 187.000
41.07500 179.000
41.09000 189.000
41.10500 172.000
41.12000 174.000
41.13500 180.000
41.15000 180.000
41.16500 170.000
41.18000 180.000
41.19500 190.000
41.21000 170.000
41.22500 189.000
41.24000 184.000
41.25500 167.000
41.27000 171.000
41.28500 164.000
41.30000 164.000
41.31500 186.000
41.33000 202.000
41.34500 180.000
41.36000 176.000
41.37500 171.000
41.39000 181.000
41.40500 176.000
41.42000 183.000
41.43500 191.000
41.45000 193.000
41.46500 188.000
41.48000 176.000
41.49500 174.000
41.51000 183.000
41.52500 194.000
41.54000 214.000
41.55500 187.000
41.57000 180.000
41.58500 182.000
41.60000 178.000
41.61500 159.000
41.63000 187.000
41.64500 182.000
41.66000 194.000
41.67500 197.000
41.69000 182.000
41.70500 166.000
41.72000 182.000
41.73500 196.000
41.75000 184.000
41.76500 178.000
41.78000 185.000
41.79500 177.000
41.81000 186.000
41.82500 204.000
41.84000 173.000
41.85500 173.000
41.87000 165.000
41.88500 175.000
41.90000 175.000
41.91500 182.000
41.93000 187.000
41.94500 173.000
41.96000 173.000
41.97500 177.000
41.99000 183.000
42.00500 199.000
42.02000 191.000
42.03500 169.000
42.05000 172.000
42.06500 180.000
42.08000 197.000
42.09500 184.000
42.11000 172.000
42.12500 182.000
42.14000 184.000
42.15500 180.000
42.17000 174.000
42.18500 173.000
42.20000 193.000
42.21500 186.000
42.23000 177.000
42.24500 193.000
42.26000 199.000
42.27500 159.000
42.29000 174.000
42.30500 172.000
42.32000 182.000
42.33500 186.000
42.35000 171.000
42.36500 160.000
42.38000 170.000
42.39500 163.000
42.41000 159.000
42.42500 172.000
42.44000 189.000
42.45500 183.000
42.47000 147.000
42.48500 186.000
42.50000 173.000
42.51500 173.000
42.53000 164.000
42.54500 161.000
42.56000 169.000
42.57500 178.000
42.59000 171.000
42.60500 165.000
42.62000 182.000
42.63500 175.000
42.65000 178.000
42.66500 183.000
42.68000 171.000
42.69500 174.000
42.71000 192.000
42.72500 182.000
42.74000 187.000
42.75500 186.000
42.77000 171.000
42.78500 186.000
42.80000 173.000
42.81500 191.000
42.83000 161.000
42.84500 177.000
42.86000 165.000
42.87500 158.000
42.89000 181.000
42.90500 180.000
42.92000 180.000
42.93500 183.000
42.95000 168.000
42.96500 174.000
42.98000 177.000
42.99500 196.000
43.01000 169.000
43.02500 178.000
43.04000 179.000
43.05500 181.000
43.07000 184.000
43.08500 173.000
43.10000 166.000
43.11500 184.000
43.13000 178.000
43.14500 172.000
43.16000 165.000
43.17500 143.000
43.19000 159.000
43.20500 168.000
43.22000 171.000
43.23500 174.000
43.25000 175.000
43.26500 165.000
43.28000 186.000
43.29500 186.000
43.31000 181.000
43.32500 192.000
43.34000 174.000
43.35500 171.000
43.37000 179.000
43.38500 187.000
43.40000 192.000
43.41500 178.000
43.43000 184.000
43.44500 194.000
43.46000 163.000
43.47500 179.000
43.49000 173.000
43.50500 165.000
43.52000 179.000
43.53500 185.000
43.55000 171.000
43.56500 169.000
43.58000 183.000
43.59500 184.000
43.61000 181.000
43.62500 184.000
43.64000 156.000
43.65500 157.000
43.67000 163.000
43.68500 179.000
43.70000 176.000
43.71500 169.000
43.73000 181.000
43.74500 177.000
43.76000 174.000
43.77500 173.000
43.79000 158.000
43.80500 160.000
43.82000 164.000
43.83500 176.000
43.85000 186.000
43.86500 188.000
43.88000 157.000
43.89500 184.000
43.91000 177.000
43.92500 171.000
43.94000 178.000
43.95500 165.000
43.97000 169.000
43.98500 199.000
44.00000 172.000
44.01500 175.000
44.03000 187.000
44.04500 183.000
44.06000 163.000
44.07500 177.000
44.09000 160.000
44.10500 170.000
44.12000 191.000
44.13500 180.000
44.15000 169.000
44.16500 183.000
44.18000 187.000
44.19500 160.000
44.21000 164.000
44.22500 173.000
44.24000 162.000
44.25500 190.000
44.27000 182.000
44.28500 185.000
44.30000 171.000
44.31500 160.000
44.33000 158.000
44.34500 179.000
44.36000 168.000
44.37500 181.000
44.39000 176.000
44.40500 158.000
44.42000 161.000
44.43500 159.000
44.45000 167.000
44.46500 153.000
44.48000 151.000
44.49500 177.000
44.51000 170.000
44.52500 163.000
44.54000 178.000
44.55500 179.000
44.57000 179.000
44.58500 179.000
44.60000 168.000
44.61500 160.000
44.63000 175.000
44.64500 174.000
44.66000 178.000
44.67500 175.000
44.69000 159.000
44.70500 193.000
44.72000 182.000
44.73500 176.000
44.75000 171.000
44.76500 165.000
44.78000 175.000
44.79500 173.000
44.81000 179.000
44.82500 187.000
44.84000 163.000
44.85500 166.000
44.87000 170.000
44.88500 162.000
44.90000 155.000
44.91500 168.000
44.93000 177.000
44.94500 161.000
44.96000 178.000
44.97500 176.000
44.99000 171.000
45.00500 159.000
45.02000 166.000
45.03500 175.000
45.05000 158.000
45.06500 166.000
45.08000 163.000
45.09500 154.000
45.11000 159.000
45.12500 162.000
45.14000 177.000
45.15500 186.000
45.17000 177.000
45.18500 160.000
45.20000 174.000
45.21500 168.000
45.23000 172.000
45.24500 159.000
45.26000 157.000
45.27500 174.000
45.29000 166.000
45.30500 174.000
45.32000 172.000
45.33500 153.000
45.35000 165.000
45.36500 171.000
45.38000 142.000
45.39500 163.000
45.41000 154.000
45.42500 167.000
45.44000 158.000
45.45500 165.000
45.47000 164.000
45.48500 175.000
45.50000 178.000
45.51500 173.000
45.53000 190.000
45.54500 167.000
45.56000 182.000
45.57500 166.000
45.59000 179.000
45.60500 182.000
45.62000 166.000
45.63500 161.000
45.65000 161.000
45.66500 155.000
45.68000 167.000
45.69500 167.000
45.71000 181.000
45.72500 181.000
45.74000 179.000
45.75500 161.000
45.77000 168.000
45.78500 157.000
45.80000 163.000
45.81500 162.000
45.83000 153.000
45.84500 167.000
45.86000 157.000
45.87500 159.000
45.89000 146.000
45.90500 156.000
45.92000 160.000
45.93500 169.000
45.95000 163.000
45.96500 156.000
45.98000 150.000
45.99500 157.000
46.01000 176.000
46.02500 170.000
46.04000 147.000
46.05500 148.000
46.07000 170.000
46.08500 167.000
46.10000 157.000
46.11500 142.000
46.13000 177.000
46.14500 157.000
46.16000 179.000
46.17500 161.000
46.19000 165.000
46.20500 157.000
46.22000 157.000
46.23500 160.000
46.25000 172.000
46.26500 161.000
46.28000 175.000
46.29500 165.000
46.31000 152.000
46.32500 160.000
46.34000 188.000
46.35500 177.000
46.37000 165.000
46.38500 167.000
46.40000 172.000
46.41500 159.000
46.43000 170.000
46.44500 163.000
46.46000 154.000
46.47500 157.000
46.49000 176.000
46.50500 175.000
46.52000 160.000
46.53500 156.000
46.55000 163.000
46.56500 162.000
46.58000 156.000
46.59500 144.000
46.61000 166.000
46.62500 161.000
46.64000 162.000
46.65500 176.000
46.67000 155.000
46.68500 158.000
46.70000 161.000
46.71500 147.000
46.73000 155.000
46.74500 165.000
46.76000 154.000
46.77500 153.000
46.79000 160.000
46.80500 172.000
46.82000 141.000
46.83500 147.000
46.85000 158.000
46.86500 171.000
46.88000 154.000
46.89500 160.000
46.91000 151.000
46.92500 157.000
46.94000 154.000
46.95500 172.000
46.97000 161.000
46.98500 169.000
47.00000 172.000
47.01500 170.000
47.03000 154.000
47.04500 163.000
47.06000 159.000
47.07500 176.000
47.09000 153.000
47.10500 164.000
47.12000 165.000
47.13500 157.000
47.15000 145.000
47.16500 150.000
47.18000 164.000
47.19500 162.000
47.21000 159.000
47.22500 161.000
47.24000 155.000
47.25500 159.000
47.27000 151.000
47.28500 154.000
47.30000 160.000
47.31500 163.000
47.33000 157.000
47.34500 163.000
47.36000 166.000
47.37500 151.000
47.39000 150.000
47.40500 147.000
47.42000 155.000
47.43500 143.000
47.45000 148.000
47.46500 150.000
47.48000 171.000
47.49500 153.000
47.51000 159.000
47.52500 156.000
47.54000 161.000
47.55500 156.000
47.57000 157.000
47.58500 151.000
47.60000 145.000
47.61500 166.000
47.63000 163.000
47.64500 164.000
47.66000 167.000
47.67500 176.000
47.69000 170.000
47.70500 161.000
47.72000 157.000
47.73500 157.000
47.75000 147.000
47.76500 147.000
47.78000 159.000
47.79500 159.000
47.81000 155.000
47.82500 159.000
47.84000 166.000
47.85500 162.000
47.87000 159.000
47.88500 144.000
47.90000 141.000
47.91500 140.000
47.93000 148.000
47.94500 143.000
47.96000 150.000
47.97500 147.000
47.99000 156.000
48.00500 155.000
48.02000 143.000
48.03500 149.000
48.05000 130.000
48.06500 149.000
48.08000 171.000
48.09500 154.000
48.11000 139.000
48.12500 155.000
48.14000 156.000
48.15500 154.000
48.17000 178.000
48.18500 157.000
48.20000 142.000
48.21500 166.000
48.23000 150.000
48.24500 161.000
48.26000 147.000
48.27500 148.000
48.29000 157.000
48.30500 148.000
48.32000 151.000
48.33500 137.000
48.35000 147.000
48.36500 161.000
48.38000 155.000
48.39500 133.000
48.41000 159.000
48.42500 169.000
48.44000 152.000
48.45500 145.000
48.47000 148.000
48.48500 171.000
48.50000 146.000
48.51500 149.000
48.53000 148.000
48.54500 153.000
48.56000 145.000
48.57500 152.000
48.59000 152.000
48.60500 146.000
48.62000 145.000
48.63500 157.000
48.65000 139.000
48.66500 142.000
48.68000 149.000
48.69500 156.000
48.71000 167.000
48.72500 150.000
48.74000 156.000
48.75500 145.000
48.77000 140.000
48.78500 145.000
48.80000 148.000
48.81500 144.000
48.83000 153.000
48.84500 143.000
48.86000 153.000
48.87500 162.000
48.89000 157.000
48.90500 155.000
48.92000 154.000
48.93500 160.000
48.95000 165.000
48.96500 150.000
48.98000 141.000
48.99500 160.000
49.01000 159.000
49.02500 150.000
49.04000 165.000
49.05500 159.000
49.07000 145.000
49.08500 157.000
49.10000 143.000
49.11500 122.000
49.13000 145.000
49.14500 147.000
49.16000 126.000
49.17500 150.000
49.19000 150.000
49.20500 149.000
49.22000 157.000
49.23500 162.000
49.25000 158.000
49.26500 136.000
49.28000 155.000
49.29500 142.000
49.31000 139.000
49.32500 144.000
49.34000 163.000
49.35500 152.000
49.37000 128.000
49.38500 154.000
49.40000 147.000
49.41500 133.000
49.43000 149.000
49.44500 162.000
49.46000 156.000
49.47500 165.000
49.49000 142.000
49.50500 147.000
49.52000 140.000
49.53500 158.000
49.55000 149.000
49.56500 150.000
49.58000 148.000
49.59500 147.000
49.61000 155.000
49.62500 151.000
49.64000 155.000
49.65500 142.000
49.67000 139.000
49.68500 127.000
49.70000 131.000
49.71500 147.000
49.73000 146.000
49.74500 145.000
49.76000 148.000
49.77500 144.000
49.79000 143.000
49.80500 137.000
49.82000 141.000
49.83500 142.000
49.85000 142.000
49.86500 127.000
49.88000 155.000
49.89500 142.000
49.91000 143.000
49.92500 145.000
49.94000 137.000
49.95500 143.000
49.97000 143.000
49.98500 129.000
50.00000 155.000
50.01500 147.000
50.03000 129.000
50.04500 148.000
50.06000 150.000
50.07500 133.000
50.09000 151.000
50.10500 129.000
50.12000 125.000
50.13500 137.000
50.15000 140.000
50.16500 144.000
50.18000 140.000
50.19500 136.000
50.21000 113.000
50.22500 128.000
50.24000 153.000
50.25500 155.000
50.27000 143.000
50.28500 144.000
50.30000 146.000
50.31500 146.000
50.33000 134.000
50.34500 129.000
50.36000 136.000
50.37500 134.000
50.39000 140.000
50.40500 133.000
50.42000 128.000
50.43500 150.000
50.45000 150.000
50.46500 149.000
50.48000 138.000
50.49500 139.000
50.51000 125.000
50.52500 134.000
50.54000 134.000
50.55500 153.000
50.57000 129.000
50.58500 137.000
50.60000 142.000
50.61500 138.000
50.63000 137.000
50.64500 131.000
50.66000 146.000
50.67500 151.000
50.69000 159.000
50.70500 162.000
50.72000 130.000
50.73500 131.000
50.75000 134.000
50.76500 154.000
50.78000 159.000
50.79500 145.000
50.81000 144.000
50.82500 133.000
50.84000 141.000
50.85500 149.000
50.87000 141.000
50.88500 135.000
50.90000 131.000
50.91500 142.000
50.93000 147.000
50.94500 137.000
50.96000 156.000
50.97500 136.000
50.99000 127.000
51.00500 140.000
51.02000 138.000
51.03500 129.000
51.05000 134.000
51.06500 128.000
51.08000 133.000
51.09500 130.000
51.11000 124.000
51.12500 130.000
51.14000 124.000
51.15500 127.000
51.17000 122.000
51.18500 138.000
51.20000 137.000
51.21500 129.000
51.23000 145.000
51.24500 136.000
51.26000 163.000
51.27500 128.000
51.29000 117.000
51.30500 123.000
51.32000 136.000
51.33500 126.000
51.35000 134.000
51.36500 136.000
51.38000 137.000
51.39500 147.000
51.41000 126.000
51.42500 144.000
51.44000 127.000
51.45500 124.000
51.47000 128.000
51.48500 144.000
51.50000 131.000
51.51500 132.000
51.53000 120.000
51.54500 131.000
51.56000 123.000
51.57500 141.000
51.59000 134.000
51.60500 130.000
51.62000 132.000
51.63500 142.000
51.65000 140.000
51.66500 140.000
51.68000 146.000
51.69500 147.000
51.71000 137.000
51.72500 148.000
51.74000 144.000
51.75500 142.000
51.77000 144.000
51.78500 119.000
51.80000 133.000
51.81500 135.000
51.83000 145.000
51.84500 147.000
51.86000 129.000
51.87500 113.000
51.89000 129.000
51.90500 137.000
51.92000 148.000
51.93500 133.000
51.95000 136.000
51.96500 129.000
51.98000 130.000
51.99500 149.000
52.01000 126.000
52.02500 129.000
52.04000 134.000
52.05500 145.000
52.07000 138.000
52.08500 134.000
52.10000 126.000
52.11500 141.000
52.13000 134.000
52.14500 127.000
52.16000 121.000
52.17500 132.000
52.19000 127.000
52.20500 139.000
52.22000 141.000
52.23500 134.000
52.25000 135.000
52.26500 128.000
52.28000 152.000
52.29500 131.000
52.31000 135.000
52.32500 127.000
52.34000 141.000
52.35500 134.000
52.37000 147.000
52.38500 142.000
52.40000 132.000
52.41500 141.000
52.43000 128.000
52.44500 150.000
52.46000 144.000
52.47500 136.000
52.49000 143.000
52.50500 120.000
52.52000 138.000
52.53500 148.000
52.55000 141.000
52.56500 138.000
52.58000 139.000
52.59500 123.000
52.61000 127.000
52.62500 139.000
52.64000 162.000
52.65500 127.000
52.67000 141.000
52.68500 136.000
52.70000 136.000
52.71500 142.000
52.73000 123.000
52.74500 135.000
52.76000 112.000
52.77500 129.000
52.79000 154.000
52.80500 133.000
52.82000 132.000
52.83500 142.000
52.85000 120.000
52.86500 120.000
52.88000 119.000
52.89500 127.000
52.91000 129.000
52.92500 118.000
52.94000 133.000
52.95500 154.000
52.97000 130.000
52.98500 128.000
53.00000 128.000
53.01500 133.000
53.03000 158.000
53.04500 157.000
53.06000 144.000
53.07500 130.000
53.09000 138.000
53.10500 132.000
53.12000 117.000
53.13500 139.000
53.15000 127.000
53.16500 133.000
53.18000 142.000
53.19500 146.000
53.21000 145.000
53.22500 139.000
53.24000 133.000
53.25500 123.000
53.27000 119.000
53.28500 133.000
53.30000 121.000
53.31500 124.000
53.33000 130.000
53.34500 122.000
53.36000 127.000
53.37500 130.000
53.39000 136.000
53.40500 137.000
53.42000 135.000
53.43500 131.000
53.45000 132.000
53.46500 135.000
53.48000 130.000
53.49500 132.000
53.51000 130.000
53.52500 134.000
53.54000 145.000
53.55500 142.000
53.57000 141.000
53.58500 142.000
53.60000 119.000
53.61500 128.000
53.63000 140.000
53.64500 132.000
53.66000 149.000
53.67500 125.000
53.69000 123.000
53.70500 107.000
53.72000 144.000
53.73500 146.000
53.75000 144.000
53.76500 136.000
53.78000 139.000
53.79500 139.000
53.81000 118.000
53.82500 124.000
53.84000 143.000
53.85500 139.000
53.87000 115.000
53.88500 118.000
53.90000 130.000
53.91500 137.000
53.93000 146.000
53.94500 124.000
53.96000 139.000
53.97500 129.000
53.99000 123.000
54.00500 130.000
54.02000 137.000
54.03500 129.000
54.05000 122.000
54.06500 124.000
54.08000 119.000
54.09500 122.000
54.11000 134.000
54.12500 128.000
54.14000 111.000
54.15500 137.000
54.17000 129.000
54.18500 130.000
54.20000 137.000
54.21500 145.000
54.23000 128.000
54.24500 121.000
54.26000 139.000
54.27500 133.000
54.29000 112.000
54.30500 128.000
54.32000 118.000
54.33500 112.000
54.35000 118.000
54.36500 122.000
54.38000 132.000
54.39500 126.000
54.41000 130.000
54.42500 139.000
54.44000 132.000
54.45500 110.000
54.47000 129.000
54.48500 121.000
54.50000 128.000
54.51500 126.000
54.53000 127.000
54.54500 133.000
54.56000 134.000
54.57500 116.000
54.59000 126.000
54.60500 137.000
54.62000 136.000
54.63500 116.000
54.65000 134.000
54.66500 139.000
54.68000 136.000
54.69500 122.000
54.71000 127.000
54.72500 121.000
54.74000 136.000
54.75500 124.000
54.77000 129.000
54.78500 137.000
54.80000 132.000
54.81500 125.000
54.83000 116.000
54.84500 124.000
54.86000 128.000
54.87500 129.000
54.89000 141.000
54.90500 135.000
54.92000 119.000
54.93500 128.000
54.95000 122.000
54.96500 122.000
54.98000 132.000
54.99500 124.000
55.01000 118.000
55.02500 148.000
55.04000 136.000
55.05500 114.000
55.07000 135.000
55.08500 123.000
55.10000 135.000
55.11500 137.000
55.13000 131.000
55.14500 119.000
55.16000 130.000
55.17500 134.000
55.19000 114.000
55.20500 131.000
55.22000 135.000
55.23500 126.000
55.25000 134.000
55.26500 129.000
55.28000 126.000
55.29500 149.000
55.31000 139.000
55.32500 135.000
55.34000 136.000
55.35500 133.000
55.37000 127.000
55.38500 115.000
55.40000 122.000
55.41500 133.000
55.43000 141.000
55.44500 147.000
55.46000 124.000
55.47500 122.000
55.49000 120.000
55.50500 127.000
55.52000 120.000
55.53500 130.000
55.55000 142.000
55.56500 132.000
55.58000 120.000
55.59500 141.000
55.61000 130.000
55.62500 142.000
55.64000 124.000
55.65500 127.000
55.67000 122.000
55.68500 117.000
55.70000 119.000
55.71500 130.000
55.73000 124.000
55.74500 131.000
55.76000 140.000
55.77500 136.000
55.79000 146.000
55.80500 141.000
55.82000 120.000
55.83500 125.000
55.85000 131.000
55.86500 120.000
55.88000 107.000
55.89500 134.000
55.91000 121.000
55.92500 139.000
55.94000 130.000
55.95500 134.000
55.97000 114.000
55.98500 131.000
56.00000 126.000
56.01500 135.000
56.03000 142.000
56.04500 135.000
56.06000 133.000
56.07500 123.000
56.09000 134.000
56.10500 122.000
56.12000 114.000
56.13500 129.000
56.15000 117.000
56.16500 133.000
56.18000 121.000
56.19500 137.000
56.21000 118.000
56.22500 125.000
56.24000 113.000
56.25500 124.000
56.27000 130.000
56.28500 144.000
56.30000 137.000
56.31500 121.000
56.33000 134.000
56.34500 131.000
56.36000 134.000
56.37500 124.000
56.39000 143.000
56.40500 135.000
56.42000 128.000
56.43500 113.000
56.45000 103.000
56.46500 117.000
56.48000 132.000
56.49500 141.000
56.51000 131.000
56.52500 118.000
56.54000 122.000
56.55500 149.000
56.57000 147.000
56.58500 119.000
56.60000 135.000
56.61500 128.000
56.63000 129.000
56.64500 150.000
56.66000 140.000
56.67500 117.000
56.69000 126.000
56.70500 125.000
56.72000 119.000
56.73500 126.000
56.75000 124.000
56.76500 123.000
56.78000 116.000
56.79500 132.000
56.81000 150.000
56.82500 130.000
56.84000 120.000
56.85500 115.000
56.87000 139.000
56.88500 133.000
56.90000 128.000
56.91500 128.000
56.93000 134.000
56.94500 128.000
56.96000 113.000
56.97500 103.000
56.99000 117.000
57.00500 128.000
57.02000 142.000
57.03500 122.000
57.05000 134.000
57.06500 123.000
57.08000 136.000
57.09500 121.000
57.11000 126.000
57.12500 123.000
57.14000 122.000
57.15500 125.000
57.17000 128.000
57.18500 119.000
57.20000 128.000
57.21500 125.000
57.23000 127.000
57.24500 133.000
57.26000 131.000
57.27500 131.000
57.29000 116.000
57.30500 111.000
57.32000 125.000
57.33500 127.000
57.35000 121.000
57.36500 119.000
57.38000 126.000
57.39500 137.000
57.41000 115.000
57.42500 139.000
57.44000 127.000
57.45500 116.000
57.47000 140.000
57.48500 138.000
57.50000 142.000
57.51500 131.000
57.53000 140.000
57.54500 116.000
57.56000 113.000
57.57500 120.000
57.59000 127.000
57.60500 119.000
57.62000 122.000
57.63500 120.000
57.65000 135.000
57.66500 144.000
57.68000 109.000
57.69500 122.000
57.71000 115.000
57.72500 110.000
57.74000 126.000
57.75500 113.000
57.77000 107.000
57.78500 110.000
57.80000 124.000
57.81500 119.000
57.83000 115.000
57.84500 115.000
57.86000 129.000
57.87500 121.000
57.89000 131.000
57.90500 118.000
57.92000 127.000
57.93500 140.000
57.95000 119.000
57.96500 96.000
57.98000 118.000
57.99500 114.000
58.01000 127.000
58.02500 138.000
58.04000 123.000
58.05500 113.000
58.07000 133.000
58.08500 125.000
58.10000 122.000
58.11500 124.000
58.13000 113.000
58.14500 130.000
58.16000 113.000
58.17500 111.000
58.19000 122.000
58.20500 120.000
58.22000 122.000
58.23500 124.000
58.25000 121.000
58.26500 116.000
58.28000 119.000
58.29500 123.000
58.31000 117.000
58.32500 117.000
58.34000 130.000
58.35500 128.000
58.37000 120.000
58.38500 134.000
58.40000 129.000
58.41500 127.000
58.43000 115.000
58.44500 127.000
58.46000 146.000
58.47500 127.000
58.49000 120.000
58.50500 110.000
58.52000 141.000
58.53500 123.000
58.55000 120.000
58.56500 113.000
58.58000 121.000
58.59500 119.000
58.61000 124.000
58.62500 138.000
58.64000 122.000
58.65500 118.000
58.67000 132.000
58.68500 108.000
58.70000 109.000
58.71500 122.000
58.73000 109.000
58.74500 111.000
58.76000 110.000
58.77500 120.000
58.79000 119.000
58.80500 133.000
58.82000 129.000
58.83500 128.000
58.85000 131.000
58.86500 104.000
58.88000 107.000
58.89500 115.000
58.91000 113.000
58.92500 125.000
58.94000 140.000
58.95500 122.000
58.97000 126.000
58.98500 124.000
59.00000 117.000
59.01500 129.000
59.03000 118.000
59.04500 111.000
59.06000 119.000
59.07500 127.000
59.09000 117.000
59.10500 109.000
59.12000 113.000
59.13500 129.000
59.15000 121.000
59.16500 114.000
59.18000 121.000
59.19500 113.000
59.21000 121.000
59.22500 119.000
59.24000 117.000
59.25500 112.000
59.27000 117.000
59.28500 120.000
59.30000 112.000
59.31500 104.000
59.33000 95.000
59.34500 109.000
59.36000 124.000
59.37500 123.000
59.39000 118.000
59.40500 132.000
59.42000 137.000
59.43500 129.000
59.45000 123.000
59.46500 116.000
59.48000 120.000
59.49500 117.000
59.51000 123.000
59.52500 126.000
59.54000 127.000
59.55500 122.000
59.57000 127.000
59.58500 119.000
59.60000 106.000
59.61500 117.000
59.63000 127.000
59.64500 114.000
59.66000 110.000
59.67500 107.000
59.69000 134.000
59.70500 130.000
59.72000 126.000
59.73500 140.000
59.75000 127.000
59.76500 131.000
59.78000 125.000
59.79500 127.000
59.81000 112.000
59.82500 112.000
59.84000 117.000
59.85500 118.000
59.87000 124.000
59.88500 116.000
59.90000 109.000
59.91500 121.000
59.93000 132.000
59.94500 120.000
59.96000 122.000
59.97500 127.000
59.99000 120.000
60.00500 128.000
60.02000 98.000
60.03500 110.000
60.05000 115.000
60.06500 133.000
60.08000 106.000
60.09500 101.000
60.11000 131.000
60.12500 114.000
60.14000 107.000
60.15500 113.000
60.17000 113.000
60.18500 104.000
60.20000 123.000
60.21500 117.000
60.23000 131.000
60.24500 128.000
60.26000 126.000
60.27500 119.000
60.29000 112.000
60.30500 127.000
60.32000 132.000
60.33500 114.000
60.35000 131.000
60.36500 108.000
60.38000 116.000
60.39500 124.000
60.41000 134.000
60.42500 132.000
60.44000 124.000
60.45500 120.000
60.47000 128.000
60.48500 123.000
60.50000 128.000
60.51500 114.000
60.53000 121.000
60.54500 115.000
60.56000 111.000
60.57500 123.000
60.59000 106.000
60.60500 114.000
60.62000 118.000
60.63500 117.000
60.65000 114.000
60.66500 121.000
60.68000 117.000
60.69500 124.000
60.71000 116.000
60.72500 122.000
60.74000 119.000
60.75500 115.000
60.77000 107.000
60.78500 115.000
60.80000 124.000
60.81500 134.000
60.83000 125.000
60.84500 115.000
60.86000 105.000
60.87500 109.000
60.89000 105.000
60.90500 132.000
60.92000 124.000
60.93500 105.000
60.95000 118.000
60.96500 111.000
60.98000 108.000
60.99500 117.000
61.01000 122.000
61.02500 121.000
61.04000 124.000
61.05500 122.000
61.07000 135.000
61.08500 120.000
61.10000 101.000
61.11500 99.000
61.13000 139.000
61.14500 105.000
61.16000 112.000
61.17500 94.000
61.19000 118.000
61.20500 118.000
61.22000 110.000
61.23500 129.000
61.25000 113.000
61.26500 110.000
61.28000 112.000
61.29500 116.000
61.31000 127.000
61.32500 118.000
61.34000 118.000
61.35500 127.000
61.37000 116.000
61.38500 112.000
61.40000 125.000
61.41500 115.000
61.43000 122.000
61.44500 127.000
61.46000 130.000
61.47500 124.000
61.49000 111.000
61.50500 122.000
61.52000 131.000
61.53500 128.000
61.55000 128.000
61.56500 107.000
61.58000 105.000
61.59500 107.000
61.61000 113.000
61.62500 124.000
61.64000 112.000
61.65500 114.000
61.67000 120.000
61.68500 122.000
61.70000 113.000
61.71500 103.000
61.73000 107.000
61.74500 114.000
61.76000 125.000
61.77500 125.000
61.79000 112.000
61.80500 121.000
61.82000 116.000
61.83500 115.000
61.85000 112.000
61.86500 104.000
61.88000 116.000
61.89500 100.000
61.91000 113.000
61.92500 118.000
61.94000 117.000
61.95500 100.000
61.97000 106.000
61.98500 98.000
