2.00000 6.000
2.01500 6.000
2.03000 10.000
2.04500 9.000
2.06000 10.000
2.07500 10.000
2.09000 5.000
2.10500 7.000
2.12000 6.000
2.13500 6.000
2.15000 10.000
2.16500 9.000
2.18000 8.000
2.19500 8.000
2.21000 6.000
2.22500 7.000
2.24000 6.000
2.25500 5.000
2.27000 3.000
2.28500 1.000
2.30000 6.000
2.31500 6.000
2.33000 4.000
2.34500 4.000
2.36000 1.000
2.37500 4.000
2.39000 8.000
2.40500 7.000
2.42000 5.000
2.43500 3.000
2.45000 4.000
2.46500 5.000
2.48000 6.000
2.49500 6.000
2.51000 6.000
2.52500 6.000
2.54000 4.000
2.55500 3.000
2.57000 6.000
2.58500 9.000
2.60000 7.000
2.61500 8.000
2.63000 7.000
2.64500 5.000
2.66000 6.000
2.67500 8.000
2.69000 7.000
2.70500 6.000
2.72000 1.000
2.73500 8.000
2.75000 6.000
2.76500 8.000
2.78000 7.000
2.79500 6.000
2.81000 6.000
2.82500 8.000
2.84000 8.000
2.85500 6.000
2.87000 2.000
2.88500 6.000
2.90000 3.000
2.91500 5.000
2.93000 9.000
2.94500 5.000
2.96000 5.000
2.97500 7.000
2.99000 6.000
3.00500 9.000
3.02000 3.000
3.03500 7.000
3.05000 9.000
3.06500 8.000
3.08000 4.000
3.09500 6.000
3.11000 5.000
3.12500 8.000
3.14000 5.000
3.15500 4.000
3.17000 8.000
3.18500 14.000
3.20000 15.000
3.21500 24.000
3.23000 29.000
3.24500 28.000
3.26000 37.000
3.27500 51.000
3.29000 67.000
3.30500 113.000
3.32000 165.000
3.33500 198.000
3.35000 246.000
3.36500 291.000
3.38000 338.000
3.39500 355.000
3.41000 446.000
3.42500 459.000
3.44000 486.000
3.45500 469.000
3.47000 421.000
3.48500 438.000
3.50000 449.000
3.51500 430.000
3.53000 422.000
3.54500 466.000
3.56000 434.000
3.57500 435.000
3.59000 435.000
3.60500 435.000
3.62000 443.000
3.63500 444.000
3.65000 423.000
3.66500 422.000
3.68000 429.000
3.69500 463.000
3.71000 426.000
3.72500 402.000
3.74000 392.000
3.75500 410.000
3.77000 425.000
3.78500 411.000
3.80000 405.000
3.81500 430.000
3.83000 428.000
3.84500 433.000
3.86000 418.000
3.87500 379.000
3.89000 397.000
3.90500 430.000
3.92000 441.000
3.93500 407.000
3.95000 399.000
3.96500 365.000
3.98000 409.000
3.99500 429.000
4.01000 437.000
4.02500 383.000
4.04000 399.000
4.05500 400.000
4.07000 424.000
4.08500 424.000
4.10000 418.000
4.11500 422.000
4.13000 400.000
4.14500 403.000
4.16000 406.000
4.17500 441.000
4.19000 380.000
4.20500 384.000
4.22000 392.000
4.23500 397.000
4.25000 404.000
4.26500 429.000
4.28000 383.000
4.29500 393.000
4.31000 406.000
4.32500 425.000
4.34000 408.000
4.35500 398.000
4.37000 393.000
4.38500 417.000
4.40000 432.000
4.41500 413.000
4.43000 399.000
4.44500 400.000
4.46000 372.000
4.47500 414.000
4.49000 405.000
4.50500 414.000
4.52000 403.000
4.53500 410.000
4.55000 408.000
4.56500 399.000
4.58000 392.000
4.59500 397.000
4.61000 412.000
4.62500 405.000
4.64000 403.000
4.65500 412.000
4.67000 402.000
4.68500 389.000
4.70000 387.000
4.71500 392.000
4.73000 408.000
4.74500 381.000
4.76000 398.000
4.77500 393.000
4.79000 388.000
4.80500 413.000
4.82000 405.000
4.83500 384.000
4.85000 408.000
4.86500 414.000
4.88000 410.000
4.89500 395.000
4.91000 417.000
4.92500 396.000
4.94000 366.000
4.95500 369.000
4.97000 412.000
4.98500 417.000
5.00000 407.000
5.01500 406.000
5.03000 389.000
5.04500 393.000
5.06000 427.000
5.07500 401.000
5.09000 423.000
5.10500 413.000
5.12000 422.000
5.13500 418.000
5.15000 406.000
5.16500 405.000
5.18000 424.000
5.19500 429.000
5.21000 422.000
5.22500 407.000
5.24000 397.000
5.25500 411.000
5.27000 449.000
5.28500 446.000
5.30000 415.000
5.31500 383.000
5.33000 409.000
5.34500 390.000
5.36000 396.000
5.37500 394.000
5.39000 398.000
5.40500 404.000
5.42000 396.000
5.43500 412.000
5.45000 410.000
5.46500 392.000
5.48000 413.000
5.49500 437.000
5.51000 421.000
5.52500 430.000
5.54000 431.000
5.55500 384.000
5.57000 413.000
5.58500 405.000
5.60000 405.000
5.61500 400.000
5.63000 436.000
5.64500 401.000
5.66000 411.000
5.67500 399.000
5.69000 404.000
5.70500 399.000
5.72000 453.000
5.73500 439.000
5.75000 436.000
5.76500 420.000
5.78000 439.000
5.79500 431.000
5.81000 411.000
5.82500 410.000
5.84000 428.000
5.85500 411.000
5.87000 414.000
5.88500 413.000
5.90000 400.000
5.91500 403.000
5.93000 418.000
5.94500 413.000
5.96000 428.000
5.97500 427.000
5.99000 449.000
6.00500 425.000
6.02000 468.000
6.03500 429.000
6.05000 413.000
6.06500 398.000
6.08000 395.000
6.09500 418.000
6.11000 422.000
6.12500 407.000
6.14000 427.000
6.15500 432.000
6.17000 441.000
6.18500 440.000
6.20000 422.000
6.21500 439.000
6.23000 426.000
6.24500 451.000
6.26000 429.000
6.27500 424.000
6.29000 405.000
6.30500 426.000
6.32000 410.000
6.33500 454.000
6.35000 423.000
6.36500 396.000
6.38000 410.000
6.39500 432.000
6.41000 443.000
6.42500 426.000
6.44000 414.000
6.45500 449.000
6.47000 453.000
6.48500 456.000
6.50000 416.000
6.51500 400.000
6.53000 435.000
6.54500 425.000
6.56000 453.000
6.57500 439.000
6.59000 438.000
6.60500 404.000
6.62000 449.000
6.63500 446.000
6.65000 440.000
6.66500 453.000
6.68000 441.000
6.69500 439.000
6.71000 436.000
6.72500 426.000
6.74000 428.000
6.75500 427.000
6.77000 440.000
6.78500 475.000
6.80000 461.000
6.81500 449.000
6.83000 462.000
6.84500 439.000
6.86000 441.000
6.87500 433.000
6.89000 439.000
6.90500 432.000
6.92000 441.000
6.93500 472.000
6.95000 456.000
6.96500 443.000
6.98000 428.000
6.99500 466.000
7.01000 459.000
7.02500 453.000
7.04000 441.000
7.05500 476.000
7.07000 452.000
7.08500 426.000
7.10000 456.000
7.11500 454.000
7.13000 462.000
7.14500 449.000
7.16000 438.000
7.17500 487.000
7.19000 473.000
7.20500 413.000
7.22000 450.000
7.23500 446.000
7.25000 476.000
7.26500 470.000
7.28000 461.000
7.29500 449.000
7.31000 450.000
7.32500 435.000
7.34000 463.000
7.35500 477.000
7.37000 455.000
7.38500 474.000
7.40000 457.000
7.41500 429.000
7.43000 444.000
7.44500 451.000
7.46000 427.000
7.47500 456.000
7.49000 433.000
7.50500 428.000
7.52000 474.000
7.53500 466.000
7.55000 472.000
7.56500 443.000
7.58000 444.000
7.59500 431.000
7.61000 461.000
7.62500 451.000
7.64000 423.000
7.65500 459.000
7.67000 461.000
7.68500 455.000
7.70000 466.000
7.71500 438.000
7.73000 442.000
7.74500 457.000
7.76000 439.000
7.77500 444.000
7.79000 454.000
7.80500 495.000
7.82000 465.000
7.83500 445.000
7.85000 429.000
7.86500 444.000
7.88000 418.000
7.89500 457.000
7.91000 463.000
7.92500 448.000
7.94000 455.000
7.95500 446.000
7.97000 446.000
7.98500 470.000
8.00000 465.000
8.01500 474.000
8.03000 453.000
8.04500 449.000
8.06000 478.000
8.07500 490.000
8.09000 450.000
8.10500 444.000
8.12000 463.000
8.13500 468.000
8.15000 477.000
8.16500 461.000
8.18000 477.000
8.19500 482.000
8.21000 484.000
8.22500 485.000
8.24000 467.000
8.25500 449.000
8.27000 480.000
8.28500 464.000
8.30000 484.000
8.31500 500.000
8.33000 489.000
8.34500 459.000
8.36000 442.000
8.37500 467.000
8.39000 469.000
8.40500 475.000
8.42000 478.000
8.43500 478.000
8.45000 499.000
8.46500 466.000
8.48000 459.000
8.49500 505.000
8.51000 478.000
8.52500 474.000
8.54000 473.000
8.55500 500.000
8.57000 489.000
8.58500 477.000
8.60000 487.000
8.61500 472.000
8.63000 454.000
8.64500 472.000
8.66000 466.000
8.67500 461.000
8.69000 469.000
8.70500 464.000
8.72000 441.000
8.73500 461.000
8.75000 483.000
8.76500 497.000
8.78000 460.000
8.79500 439.000
8.81000 459.000
8.82500 490.000
8.84000 501.000
8.85500 480.000
8.87000 511.000
8.88500 481.000
8.90000 489.000
8.91500 504.000
8.93000 498.000
8.94500 494.000
8.96000 474.000
8.97500 506.000
8.99000 492.000
9.00500 453.000
9.02000 489.000
9.03500 510.000
9.05000 477.000
9.06500 462.000
9.08000 488.000
9.09500 475.000
9.11000 489.000
9.12500 494.000
9.14000 459.000
9.15500 492.000
9.17000 472.000
9.18500 468.000
9.20000 494.000
9.21500 531.000
9.23000 526.000
9.24500 497.000
9.26000 501.000
9.27500 486.000
9.29000 495.000
9.30500 488.000
9.32000 455.000
9.33500 481.000
9.35000 484.000
9.36500 498.000
9.38000 482.000
9.39500 494.000
9.41000 504.000
9.42500 494.000
9.44000 499.000
9.45500 497.000
9.47000 483.000
9.48500 468.000
9.50000 465.000
9.51500 482.000
9.53000 462.000
9.54500 500.000
9.56000 487.000
9.57500 485.000
9.59000 508.000
9.60500 498.000
9.62000 469.000
9.63500 526.000
9.65000 492.000
9.66500 461.000
9.68000 497.000
9.69500 507.000
9.71000 508.000
9.72500 498.000
9.74000 495.000
9.75500 495.000
9.77000 489.000
9.78500 486.000
9.80000 495.000
9.81500 495.000
9.83000 500.000
9.84500 513.000
9.86000 498.000
9.87500 523.000
9.89000 533.000
9.90500 489.000
9.92000 511.000
9.93500 537.000
9.95000 540.000
9.96500 540.000
9.98000 510.000
9.99500 514.000
10.01000 509.000
10.02500 505.000
10.04000 454.000
10.05500 541.000
10.07000 532.000
10.08500 503.000
10.10000 491.000
10.11500 467.000
10.13000 484.000
10.14500 507.000
10.16000 488.000
10.17500 517.000
10.19000 498.000
10.20500 497.000
10.22000 516.000
10.23500 524.000
10.25000 491.000
10.26500 521.000
10.28000 481.000
10.29500 487.000
10.31000 517.000
10.32500 519.000
10.34000 477.000
10.35500 482.000
10.37000 515.000
10.38500 497.000
10.40000 500.000
10.41500 494.000
10.43000 517.000
10.44500 512.000
10.46000 560.000
10.47500 514.000
10.49000 548.000
10.50500 528.000
10.52000 527.000
10.53500 553.000
10.55000 475.000
10.56500 488.000
10.58000 534.000
10.59500 541.000
10.61000 523.000
10.62500 534.000
10.64000 520.000
10.65500 531.000
10.67000 536.000
10.68500 539.000
10.70000 546.000
10.71500 547.000
10.73000 526.000
10.74500 517.000
10.76000 517.000
10.77500 534.000
10.79000 535.000
10.80500 510.000
10.82000 517.000
10.83500 535.000
10.85000 539.000
10.86500 527.000
10.88000 511.000
10.89500 520.000
10.91000 536.000
10.92500 504.000
10.94000 520.000
10.95500 542.000
10.97000 554.000
10.98500 526.000
11.00000 562.000
11.01500 535.000
11.03000 561.000
11.04500 541.000
11.06000 524.000
11.07500 558.000
11.09000 538.000
11.10500 540.000
11.12000 551.000
11.13500 497.000
11.15000 540.000
11.16500 526.000
11.18000 549.000
11.19500 564.000
11.21000 511.000
11.22500 526.000
11.24000 518.000
11.25500 513.000
11.27000 536.000
11.28500 522.000
11.30000 553.000
11.31500 524.000
11.33000 549.000
11.34500 581.000
11.36000 533.000
11.37500 548.000
11.39000 558.000
11.40500 566.000
11.42000 557.000
11.43500 546.000
11.45000 538.000
11.46500 520.000
11.48000 548.000
11.49500 623.000
11.51000 564.000
11.52500 539.000
11.54000 559.000
11.55500 562.000
11.57000 544.000
11.58500 586.000
11.60000 546.000
11.61500 586.000
11.63000 566.000
11.64500 544.000
11.66000 567.000
11.67500 570.000
11.69000 565.000
11.70500 576.000
11.72000 572.000
11.73500 575.000
11.75000 567.000
11.76500 585.000
11.78000 565.000
11.79500 592.000
11.81000 541.000
11.82500 578.000
11.84000 577.000
11.85500 587.000
11.87000 588.000
11.88500 572.000
11.90000 587.000
11.91500 562.000
11.93000 605.000
11.94500 596.000
11.96000 574.000
11.97500 558.000
11.99000 608.000
12.00500 590.000
12.02000 562.000
12.03500 589.000
12.05000 558.000
12.06500 539.000
12.08000 571.000
12.09500 589.000
12.11000 618.000
12.12500 592.000
12.14000 575.000
12.15500 616.000
12.17000 635.000
12.18500 594.000
12.20000 576.000
12.21500 612.000
12.23000 633.000
12.24500 612.000
12.26000 624.000
12.27500 630.000
12.29000 635.000
12.30500 632.000
12.32000 616.000
12.33500 626.000
12.35000 660.000
12.36500 636.000
12.38000 613.000
12.39500 635.000
12.41000 651.000
12.42500 653.000
12.44000 652.000
12.45500 663.000
12.47000 691.000
12.48500 673.000
12.50000 691.000
12.51500 727.000
12.53000 732.000
12.54500 716.000
12.56000 711.000
12.57500 718.000
12.59000 703.000
12.60500 712.000
12.62000 718.000
12.63500 724.000
12.65000 736.000
12.66500 726.000
12.68000 726.000
12.69500 770.000
12.71000 747.000
12.72500 746.000
12.74000 740.000
12.75500 771.000
12.77000 714.000
12.78500 786.000
12.80000 756.000
12.81500 751.000
12.83000 761.000
12.84500 746.000
12.86000 773.000
12.87500 777.000
12.89000 795.000
12.90500 801.000
12.92000 759.000
12.93500 795.000
12.95000 763.000
12.96500 794.000
12.98000 775.000
12.99500 780.000
13.01000 795.000
13.02500 771.000
13.04000 744.000
13.05500 781.000
13.07000 797.000
13.08500 779.000
13.10000 779.000
13.11500 746.000
13.13000 754.000
13.14500 775.000
13.16000 765.000
13.17500 778.000
13.19000 776.000
13.20500 766.000
13.22000 760.000
13.23500 820.000
13.25000 774.000
13.26500 789.000
13.28000 797.000
13.29500 745.000
13.31000 804.000
13.32500 800.000
13.34000 787.000
13.35500 770.000
13.37000 749.000
13.38500 768.000
13.40000 755.000
13.41500 784.000
13.43000 751.000
13.44500 713.000
13.46000 713.000
13.47500 754.000
13.49000 772.000
13.50500 773.000
13.52000 715.000
13.53500 735.000
13.55000 732.000
13.56500 717.000
13.58000 737.000
13.59500 775.000
13.61000 769.000
13.62500 733.000
13.64000 697.000
13.65500 717.000
13.67000 733.000
13.68500 696.000
13.70000 722.000
13.71500 725.000
13.73000 718.000
13.74500 711.000
13.76000 697.000
13.77500 742.000
13.79000 691.000
13.80500 717.000
13.82000 746.000
13.83500 764.000
13.85000 688.000
13.86500 663.000
13.88000 740.000
13.89500 727.000
13.91000 708.000
13.92500 710.000
13.94000 727.000
13.95500 728.000
13.97000 717.000
13.98500 744.000
14.00000 685.000
14.01500 696.000
14.03000 724.000
14.04500 742.000
14.06000 708.000
14.07500 685.000
14.09000 718.000
14.10500 680.000
14.12000 746.000
14.13500 745.000
14.15000 722.000
14.16500 690.000
14.18000 765.000
14.19500 728.000
14.21000 734.000
14.22500 683.000
14.24000 725.000
14.25500 701.000
14.27000 682.000
14.28500 677.000
14.30000 708.000
14.31500 736.000
14.33000 710.000
14.34500 694.000
14.36000 687.000
14.37500 675.000
14.39000 664.000
14.40500 706.000
14.42000 720.000
14.43500 675.000
14.45000 685.000
14.46500 708.000
14.48000 717.000
14.49500 699.000
14.51000 702.000
14.52500 700.000
14.54000 720.000
14.55500 719.000
14.57000 662.000
14.58500 683.000
14.60000 706.000
14.61500 733.000
14.63000 719.000
14.64500 729.000
14.66000 737.000
14.67500 727.000
14.69000 660.000
14.70500 637.000
14.72000 673.000
14.73500 684.000
14.75000 682.000
14.76500 716.000
14.78000 676.000
14.79500 681.000
14.81000 679.000
14.82500 667.000
14.84000 673.000
14.85500 695.000
14.87000 658.000
14.88500 690.000
14.90000 679.000
14.91500 701.000
14.93000 678.000
14.94500 666.000
14.96000 672.000
14.97500 684.000
14.99000 667.000
15.00500 686.000
15.02000 704.000
15.03500 710.000
15.05000 691.000
15.06500 693.000
15.08000 684.000
15.09500 692.000
15.11000 672.000
15.12500 666.000
15.14000 658.000
15.15500 679.000
15.17000 677.000
15.18500 709.000
15.20000 654.000
15.21500 648.000
15.23000 687.000
15.24500 654.000
15.26000 669.000
15.27500 700.000
15.29000 687.000
15.30500 701.000
15.32000 699.000
15.33500 661.000
15.35000 671.000
15.36500 639.000
15.38000 658.000
15.39500 665.000
15.41000 676.000
15.42500 665.000
15.44000 691.000
15.45500 676.000
15.47000 650.000
15.48500 676.000
15.50000 667.000
15.51500 692.000
15.53000 680.000
15.54500 678.000
15.56000 640.000
15.57500 627.000
15.59000 658.000
15.60500 644.000
15.62000 654.000
15.63500 663.000
15.65000 674.000
15.66500 657.000
15.68000 632.000
15.69500 680.000
15.71000 690.000
15.72500 647.000
15.74000 654.000
15.75500 655.000
15.77000 623.000
15.78500 674.000
15.80000 677.000
15.81500 628.000
15.83000 612.000
15.84500 657.000
15.86000 632.000
15.87500 642.000
15.89000 674.000
15.90500 678.000
15.92000 683.000
15.93500 641.000
15.95000 644.000
15.96500 643.000
15.98000 672.000
15.99500 673.000
16.01000 672.000
16.02500 623.000
16.04000 627.000
16.05500 658.000
16.07000 654.000
16.08500 686.000
16.10000 678.000
16.11500 626.000
16.13000 622.000
16.14500 641.000
16.16000 670.000
16.17500 646.000
16.19000 639.000
16.20500 650.000
16.22000 672.000
16.23500 669.000
16.25000 683.000
16.26500 647.000
16.28000 660.000
16.29500 680.000
16.31000 673.000
16.32500 663.000
16.34000 666.000
16.35500 641.000
16.37000 660.000
16.38500 631.000
16.40000 688.000
16.41500 676.000
16.43000 656.000
16.44500 634.000
16.46000 666.000
16.47500 668.000
16.49000 650.000
16.50500 673.000
16.52000 660.000
16.53500 683.000
16.55000 637.000
16.56500 667.000
16.58000 657.000
16.59500 623.000
16.61000 639.000
16.62500 677.000
16.64000 660.000
16.65500 694.000
16.67000 642.000
16.68500 640.000
16.70000 681.000
16.71500 682.000
16.73000 674.000
16.74500 645.000
16.76000 656.000
16.77500 627.000
16.79000 660.000
16.80500 681.000
16.82000 692.000
16.83500 669.000
16.85000 676.000
16.86500 700.000
16.88000 630.000
16.89500 680.000
16.91000 661.000
16.92500 668.000
16.94000 613.000
16.95500 657.000
16.97000 663.000
16.98500 665.000
17.00000 642.000
17.01500 705.000
17.03000 690.000
17.04500 658.000
17.06000 690.000
17.07500 678.000
17.09000 649.000
17.10500 667.000
17.12000 677.000
17.13500 647.000
17.15000 681.000
17.16500 688.000
17.18000 670.000
17.19500 643.000
17.21000 705.000
17.22500 684.000
17.24000 686.000
17.25500 670.000
17.27000 685.000
17.28500 685.000
17.30000 713.000
17.31500 699.000
17.33000 680.000
17.34500 735.000
17.36000 662.000
17.37500 699.000
17.39000 666.000
17.40500 703.000
17.42000 687.000
17.43500 655.000
17.45000 682.000
17.46500 659.000
17.48000 694.000
17.49500 671.000
17.51000 708.000
17.52500 685.000
17.54000 653.000
17.55500 696.000
17.57000 686.000
17.58500 662.000
17.60000 675.000
17.61500 665.000
17.63000 664.000
17.64500 640.000
17.66000 697.000
17.67500 708.000
17.69000 670.000
17.70500 716.000
17.72000 705.000
17.73500 695.000
17.75000 682.000
17.76500 725.000
17.78000 708.000
17.79500 748.000
17.81000 718.000
17.82500 681.000
17.84000 740.000
17.85500 681.000
17.87000 693.000
17.88500 691.000
17.90000 702.000
17.91500 683.000
17.93000 698.000
17.94500 682.000
17.96000 688.000
17.97500 724.000
17.99000 729.000
18.00500 681.000
18.02000 681.000
18.03500 674.000
18.05000 698.000
18.06500 675.000
18.08000 688.000
18.09500 707.000
18.11000 733.000
18.12500 729.000
18.14000 687.000
18.15500 683.000
18.17000 714.000
18.18500 700.000
18.20000 699.000
18.21500 679.000
18.23000 689.000
18.24500 671.000
18.26000 690.000
18.27500 678.000
18.29000 693.000
18.30500 692.000
18.32000 718.000
18.33500 713.000
18.35000 701.000
18.36500 671.000
18.38000 656.000
18.39500 718.000
18.41000 728.000
18.42500 633.000
18.44000 669.000
18.45500 728.000
18.47000 697.000
18.48500 706.000
18.50000 694.000
18.51500 686.000
18.53000 700.000
18.54500 708.000
18.56000 683.000
18.57500 671.000
18.59000 696.000
18.60500 694.000
18.62000 692.000
18.63500 673.000
18.65000 665.000
18.66500 691.000
18.68000 671.000
18.69500 655.000
18.71000 699.000
18.72500 704.000
18.74000 709.000
18.75500 696.000
18.77000 717.000
18.78500 724.000
18.80000 670.000
18.81500 680.000
18.83000 688.000
18.84500 686.000
18.86000 668.000
18.87500 623.000
18.89000 643.000
18.90500 698.000
18.92000 665.000
18.93500 649.000
18.95000 656.000
18.96500 656.000
18.98000 646.000
18.99500 646.000
19.01000 663.000
19.02500 677.000
19.04000 684.000
19.05500 702.000
19.07000 690.000
19.08500 692.000
19.10000 680.000
19.11500 655.000
19.13000 694.000
19.14500 686.000
19.16000 662.000
19.17500 694.000
19.19000 682.000
19.20500 642.000
19.22000 668.000
19.23500 712.000
19.25000 710.000
19.26500 689.000
19.28000 678.000
19.29500 659.000
19.31000 646.000
19.32500 658.000
19.34000 655.000
19.35500 660.000
19.37000 671.000
19.38500 675.000
19.40000 659.000
19.41500 662.000
19.43000 678.000
19.44500 648.000
19.46000 643.000
19.47500 642.000
19.49000 693.000
19.50500 699.000
19.52000 694.000
19.53500 645.000
19.55000 646.000
19.56500 680.000
19.58000 686.000
19.59500 707.000
19.61000 721.000
19.62500 706.000
19.64000 695.000
19.65500 692.000
19.67000 628.000
19.68500 644.000
19.70000 705.000
19.71500 616.000
19.73000 668.000
19.74500 639.000
19.76000 699.000
19.77500 629.000
19.79000 648.000
19.80500 653.000
19.82000 678.000
19.83500 689.000
19.85000 686.000
19.86500 664.000
19.88000 643.000
19.89500 676.000
19.91000 702.000
19.92500 701.000
19.94000 661.000
19.95500 660.000
19.97000 667.000
19.98500 676.000
20.00000 674.000
20.01500 667.000
20.03000 699.000
20.04500 645.000
20.06000 639.000
20.07500 668.000
20.09000 659.000
20.10500 661.000
20.12000 666.000
20.13500 687.000
20.15000 673.000
20.16500 683.000
20.18000 689.000
20.19500 657.000
20.21000 619.000
20.22500 647.000
20.24000 673.000
20.25500 702.000
20.27000 669.000
20.28500 653.000
20.30000 680.000
20.31500 681.000
20.33000 648.000
20.34500 648.000
20.36000 674.000
20.37500 648.000
20.39000 662.000
20.40500 654.000
20.42000 692.000
20.43500 690.000
20.45000 661.000
20.46500 629.000
20.48000 667.000
20.49500 691.000
20.51000 678.000
20.52500 670.000
20.54000 669.000
20.55500 686.000
20.57000 649.000
20.58500 697.000
20.60000 662.000
20.61500 650.000
20.63000 681.000
20.64500 659.000
20.66000 682.000
20.67500 675.000
20.69000 660.000
20.70500 635.000
20.72000 661.000
20.73500 667.000
20.75000 630.000
20.76500 634.000
20.78000 677.000
20.79500 672.000
20.81000 663.000
20.82500 682.000
20.84000 692.000
20.85500 686.000
20.87000 676.000
20.88500 659.000
20.90000 667.000
20.91500 640.000
20.93000 683.000
20.94500 652.000
20.96000 681.000
20.97500 692.000
20.99000 669.000
21.00500 701.000
21.02000 693.000
21.03500 671.000
21.05000 668.000
21.06500 686.000
21.08000 677.000
21.09500 698.000
21.11000 705.000
21.12500 677.000
21.14000 643.000
21.15500 680.000
21.17000 664.000
21.18500 630.000
21.20000 640.000
21.21500 691.000
21.23000 711.000
21.24500 678.000
21.26000 702.000
21.27500 693.000
21.29000 668.000
21.30500 698.000
21.32000 712.000
21.33500 671.000
21.35000 709.000
21.36500 688.000
21.38000 686.000
21.39500 641.000
21.41000 680.000
21.42500 693.000
21.44000 687.000
21.45500 666.000
21.47000 683.000
21.48500 675.000
21.50000 645.000
21.51500 695.000
21.53000 681.000
21.54500 661.000
21.56000 673.000
21.57500 681.000
21.59000 690.000
21.60500 656.000
21.62000 669.000
21.63500 696.000
21.65000 686.000
21.66500 689.000
21.68000 701.000
21.69500 696.000
21.71000 686.000
21.72500 727.000
21.74000 703.000
21.75500 690.000
21.77000 703.000
21.78500 696.000
21.80000 709.000
21.81500 732.000
21.83000 680.000
21.84500 705.000
21.86000 673.000
21.87500 679.000
21.89000 663.000
21.90500 678.000
21.92000 664.000
21.93500 698.000
21.95000 717.000
21.96500 684.000
21.98000 718.000
21.99500 687.000
22.01000 690.000
22.02500 701.000
22.04000 662.000
22.05500 648.000
22.07000 670.000
22.08500 712.000
22.10000 682.000
22.11500 688.000
22.13000 676.000
22.14500 683.000
22.16000 681.000
22.17500 697.000
22.19000 667.000
22.20500 699.000
22.22000 687.000
22.23500 675.000
22.25000 704.000
22.26500 693.000
22.28000 679.000
22.29500 691.000
22.31000 680.000
22.32500 692.000
22.34000 702.000
22.35500 650.000
22.37000 676.000
22.38500 682.000
22.40000 670.000
22.41500 696.000
22.43000 674.000
22.44500 680.000
22.46000 630.000
22.47500 668.000
22.49000 697.000
22.50500 689.000
22.52000 664.000
22.53500 661.000
22.55000 664.000
22.56500 644.000
22.58000 656.000
22.59500 634.000
22.61000 692.000
22.62500 703.000
22.64000 673.000
22.65500 671.000
22.67000 686.000
22.68500 667.000
22.70000 689.000
22.71500 702.000
22.73000 681.000
22.74500 695.000
22.76000 674.000
22.77500 659.000
22.79000 670.000
22.80500 667.000
22.82000 648.000
22.83500 648.000
22.85000 668.000
22.86500 649.000
22.88000 666.000
22.89500 646.000
22.91000 668.000
22.92500 656.000
22.94000 673.000
22.95500 662.000
22.97000 688.000
22.98500 654.000
23.00000 667.000
23.01500 693.000
23.03000 666.000
23.04500 689.000
23.06000 688.000
23.07500 663.000
23.09000 703.000
23.10500 633.000
23.12000 662.000
23.13500 687.000
23.15000 661.000
23.16500 686.000
23.18000 693.000
23.19500 679.000
23.21000 669.000
23.22500 732.000
23.24000 673.000
23.25500 667.000
23.27000 645.000
23.28500 646.000
23.30000 644.000
23.31500 657.000
23.33000 617.000
23.34500 656.000
23.36000 672.000
23.37500 701.000
23.39000 689.000
23.40500 669.000
23.42000 669.000
23.43500 713.000
23.45000 655.000
23.46500 659.000
23.48000 673.000
23.49500 677.000
23.51000 703.000
23.52500 680.000
23.54000 679.000
23.55500 672.000
23.57000 668.000
23.58500 651.000
23.60000 687.000
23.61500 657.000
23.63000 673.000
23.64500 669.000
23.66000 706.000
23.67500 648.000
23.69000 631.000
23.70500 674.000
23.72000 711.000
23.73500 735.000
23.75000 679.000
23.76500 685.000
23.78000 664.000
23.79500 675.000
23.81000 667.000
23.82500 731.000
23.84000 675.000
23.85500 661.000
23.87000 653.000
23.88500 680.000
23.90000 685.000
23.91500 662.000
23.93000 648.000
23.94500 625.000
23.96000 664.000
23.97500 666.000
23.99000 676.000
24.00500 717.000
24.02000 723.000
24.03500 684.000
24.05000 696.000
24.06500 708.000
24.08000 710.000
24.09500 691.000
24.11000 717.000
24.12500 683.000
24.14000 650.000
24.15500 684.000
24.17000 675.000
24.18500 685.000
24.20000 712.000
24.21500 696.000
24.23000 713.000
24.24500 674.000
24.26000 694.000
24.27500 689.000
24.29000 705.000
24.30500 688.000
24.32000 719.000
24.33500 659.000
24.35000 675.000
24.36500 651.000
24.38000 641.000
24.39500 644.000
24.41000 645.000
24.42500 683.000
24.44000 702.000
24.45500 699.000
24.47000 684.000
24.48500 701.000
24.50000 694.000
24.51500 724.000
24.53000 714.000
24.54500 665.000
24.56000 666.000
24.57500 723.000
24.59000 683.000
24.60500 663.000
24.62000 701.000
24.63500 705.000
24.65000 714.000
24.66500 703.000
24.68000 695.000
24.69500 716.000
24.71000 687.000
24.72500 698.000
24.74000 696.000
24.75500 699.000
24.77000 717.000
24.78500 682.000
24.80000 713.000
24.81500 710.000
24.83000 697.000
24.84500 761.000
24.86000 721.000
24.87500 707.000
24.89000 750.000
24.90500 739.000
24.92000 741.000
24.93500 732.000
24.95000 674.000
24.96500 715.000
24.98000 740.000
24.99500 741.000
25.01000 750.000
25.02500 764.000
25.04000 750.000
25.05500 770.000
25.07000 749.000
25.08500 755.000
25.10000 792.000
25.11500 734.000
25.13000 732.000
25.14500 736.000
25.16000 755.000
25.17500 765.000
25.19000 770.000
25.20500 767.000
25.22000 736.000
25.23500 738.000
25.25000 747.000
25.26500 757.000
25.28000 750.000
25.29500 724.000
25.31000 746.000
25.32500 771.000
25.34000 767.000
25.35500 783.000
25.37000 760.000
25.38500 754.000
25.40000 741.000
25.41500 766.000
25.43000 789.000
25.44500 765.000
25.46000 795.000
25.47500 807.000
25.49000 831.000
25.50500 837.000
25.52000 773.000
25.53500 805.000
25.55000 825.000
25.56500 829.000
25.58000 816.000
25.59500 769.000
25.61000 822.000
25.62500 853.000
25.64000 835.000
25.65500 840.000
25.67000 817.000
25.68500 856.000
25.70000 829.000
25.71500 818.000
25.73000 827.000
25.74500 834.000
25.76000 842.000
25.77500 806.000
25.79000 843.000
25.80500 893.000
25.82000 909.000
25.83500 893.000
25.85000 882.000
25.86500 877.000
25.88000 860.000
25.89500 882.000
25.91000 879.000
25.92500 904.000
25.94000 918.000
25.95500 914.000
25.97000 904.000
25.98500 935.000
26.00000 992.000
26.01500 929.000
26.03000 941.000
26.04500 1028.000
26.06000 990.000
26.07500 919.000
26.09000 992.000
26.10500 990.000
26.12000 1001.000
26.13500 1042.000
26.15000 1046.000
26.16500 1032.000
26.18000 1015.000
26.19500 1014.000
26.21000 1037.000
26.22500 1060.000
26.24000 1063.000
26.25500 1030.000
26.27000 1074.000
26.28500 1114.000
26.30000 1094.000
26.31500 1119.000
26.33000 1121.000
26.34500 1154.000
26.36000 1174.000
26.37500 1178.000
26.39000 1185.000
26.40500 1215.000
26.42000 1159.000
26.43500 1260.000
26.45000 1203.000
26.46500 1203.000
26.48000 1267.000
26.49500 1239.000
26.51000 1263.000
26.52500 1255.000
26.54000 1314.000
26.55500 1412.000
26.57000 1470.000
26.58500 1474.000
26.60000 1506.000
26.61500 1462.000
26.63000 1410.000
26.64500 1386.000
26.66000 1384.000
26.67500 1425.000
26.69000 1474.000
26.70500 1508.000
26.72000 1551.000
26.73500 1616.000
26.75000 1631.000
26.76500 1660.000
26.78000 1621.000
26.79500 1583.000
26.81000 1671.000
26.82500 1705.000
26.84000 1696.000
26.85500 1679.000
26.87000 1782.000
26.88500 1822.000
26.90000 1832.000
26.91500 1825.000
26.93000 1851.000
26.94500 1827.000
26.96000 1944.000
26.97500 1960.000
26.99000 2038.000
27.00500 1986.000
27.02000 1999.000
27.03500 1975.000
27.05000 2040.000
27.06500 2168.000
27.08000 2173.000
27.09500 2174.000
27.11000 2158.000
27.12500 2251.000
27.14000 2226.000
27.15500 2287.000
27.17000 2290.000
27.18500 2247.000
27.20000 2290.000
27.21500 2353.000
27.23000 2454.000
27.24500 2419.000
27.26000 2448.000
27.27500 2493.000
27.29000 2476.000
27.30500 2520.000
27.32000 2554.000
27.33500 2548.000
27.35000 2623.000
27.36500 2493.000
27.38000 2564.000
27.39500 2590.000
27.41000 2604.000
27.42500 2601.000
27.44000 2576.000
27.45500 2646.000
27.47000 2614.000
27.48500 2638.000
27.50000 2628.000
27.51500 2622.000
27.53000 2682.000
27.54500 2617.000
27.56000 2615.000
27.57500 2612.000
27.59000 2618.000
27.60500 2661.000
27.62000 2563.000
27.63500 2532.000
27.65000 2512.000
27.66500 2520.000
27.68000 2450.000
27.69500 2476.000
27.71000 2412.000
27.72500 2473.000
27.74000 2314.000
27.75500 2324.000
27.77000 2237.000
27.78500 2293.000
27.80000 2210.000
27.81500 2133.000
27.83000 2093.000
27.84500 2084.000
27.86000 1994.000
27.87500 1938.000
27.89000 1899.000
27.90500 1834.000
27.92000 1802.000
27.93500 1849.000
27.95000 1786.000
27.96500 1733.000
27.98000 1685.000
27.99500 1694.000
28.01000 1610.000
28.02500 1583.000
28.04000 1595.000
28.05500 1593.000
28.07000 1518.000
28.08500 1424.000
28.10000 1464.000
28.11500 1437.000
28.13000 1423.000
28.14500 1417.000
28.16000 1357.000
28.17500 1338.000
28.19000 1325.000
28.20500 1320.000
28.22000 1255.000
28.23500 1348.000
28.25000 1285.000
28.26500 1176.000
28.28000 1170.000
28.29500 1170.000
28.31000 1109.000
28.32500 1151.000
28.34000 1155.000
28.35500 1080.000
28.37000 1101.000
28.38500 1065.000
28.40000 1056.000
28.41500 1068.000
28.43000 1052.000
28.44500 1070.000
28.46000 1020.000
28.47500 996.000
28.49000 972.000
28.50500 956.000
28.52000 947.000
28.53500 925.000
28.55000 945.000
28.56500 900.000
28.58000 946.000
28.59500 931.000
28.61000 921.000
28.62500 930.000
28.64000 938.000
28.65500 864.000
28.67000 918.000
28.68500 893.000
28.70000 898.000
28.71500 910.000
28.73000 890.000
28.74500 811.000
28.76000 804.000
28.77500 879.000
28.79000 863.000
28.80500 842.000
28.82000 829.000
28.83500 826.000
28.85000 787.000
28.86500 783.000
28.88000 784.000
28.89500 781.000
28.91000 770.000
28.92500 778.000
28.94000 776.000
28.95500 766.000
28.97000 724.000
28.98500 742.000
29.00000 774.000
29.01500 793.000
29.03000 735.000
29.04500 757.000
29.06000 730.000
29.07500 732.000
29.09000 750.000
29.10500 751.000
29.12000 713.000
29.13500 743.000
29.15000 724.000
29.16500 711.000
29.18000 700.000
29.19500 724.000
29.21000 684.000
29.22500 749.000
29.24000 712.000
29.25500 748.000
29.27000 708.000
29.28500 721.000
29.30000 677.000
29.31500 691.000
29.33000 689.000
29.34500 682.000
29.36000 695.000
29.37500 754.000
29.39000 802.000
29.40500 772.000
29.42000 739.000
29.43500 702.000
29.45000 686.000
29.46500 716.000
29.48000 693.000
29.49500 691.000
29.51000 667.000
29.52500 680.000
29.54000 666.000
29.55500 628.000
29.57000 715.000
29.58500 696.000
29.60000 656.000
29.61500 634.000
29.63000 624.000
29.64500 648.000
29.66000 653.000
29.67500 647.000
29.69000 661.000
29.70500 604.000
29.72000 636.000
29.73500 647.000
29.75000 587.000
29.76500 617.000
29.78000 631.000
29.79500 597.000
29.81000 604.000
29.82500 622.000
29.84000 622.000
29.85500 575.000
29.87000 574.000
29.88500 595.000
29.90000 591.000
29.91500 588.000
29.93000 608.000
29.94500 592.000
29.96000 582.000
29.97500 596.000
29.99000 595.000
30.00500 582.000
30.02000 597.000
30.03500 572.000
30.05000 567.000
30.06500 564.000
30.08000 598.000
30.09500 566.000
30.11000 560.000
30.12500 581.000
30.14000 599.000
30.15500 581.000
30.17000 607.000
30.18500 586.000
30.20000 565.000
30.21500 591.000
30.23000 577.000
30.24500 581.000
30.26000 607.000
30.27500 565.000
30.29000 570.000
30.30500 572.000
30.32000 591.000
30.33500 574.000
30.35000 531.000
30.36500 550.000
30.38000 573.000
30.39500 578.000
30.41000 571.000
30.42500 561.000
30.44000 595.000
30.45500 559.000
30.47000 568.000
30.48500 577.000
30.50000 566.000
30.51500 555.000
30.53000 562.000
30.54500 597.000
30.56000 537.000
30.57500 573.000
30.59000 552.000
30.60500 506.000
30.62000 537.000
30.63500 545.000
30.65000 540.000
30.66500 556.000
30.68000 521.000
30.69500 547.000
30.71000 569.000
30.72500 539.000
30.74000 514.000
30.75500 537.000
30.77000 551.000
30.78500 554.000
30.80000 565.000
30.81500 556.000
30.83000 517.000
30.84500 554.000
30.86000 543.000
30.87500 528.000
30.89000 591.000
30.90500 549.000
30.92000 545.000
30.93500 538.000
30.95000 499.000
30.96500 502.000
30.98000 496.000
30.99500 554.000
31.01000 577.000
31.02500 533.000
31.04000 529.000
31.05500 537.000
31.07000 549.000
31.08500 566.000
31.10000 527.000
31.11500 535.000
31.13000 543.000
31.14500 531.000
31.16000 493.000
31.17500 510.000
31.19000 507.000
31.20500 549.000
31.22000 504.000
31.23500 525.000
31.25000 528.000
31.26500 547.000
31.28000 495.000
31.29500 485.000
31.31000 512.000
31.32500 552.000
31.34000 549.000
31.35500 509.000
31.37000 500.000
31.38500 532.000
31.40000 509.000
31.41500 454.000
31.43000 472.000
31.44500 500.000
31.46000 500.000
31.47500 502.000
31.49000 523.000
31.50500 484.000
31.52000 494.000
31.53500 488.000
31.55000 509.000
31.56500 500.000
31.58000 468.000
31.59500 475.000
31.61000 482.000
31.62500 488.000
31.64000 492.000
31.65500 487.000
31.67000 499.000
31.68500 516.000
31.70000 504.000
31.71500 480.000
31.73000 495.000
31.74500 475.000
31.76000 488.000
31.77500 470.000
31.79000 469.000
31.80500 477.000
31.82000 484.000
31.83500 496.000
31.85000 501.000
31.86500 474.000
31.88000 481.000
31.89500 461.000
31.91000 474.000
31.92500 479.000
31.94000 478.000
31.95500 490.000
31.97000 452.000
31.98500 467.000
32.00000 440.000
32.01500 462.000
32.03000 481.000
32.04500 476.000
32.06000 496.000
32.07500 452.000
32.09000 481.000
32.10500 434.000
32.12000 452.000
32.13500 477.000
32.15000 489.000
32.16500 475.000
32.18000 477.000
32.19500 489.000
32.21000 462.000
32.22500 488.000
32.24000 491.000
32.25500 513.000
32.27000 454.000
32.28500 510.000
32.30000 495.000
32.31500 454.000
32.33000 486.000
32.34500 496.000
32.36000 472.000
32.37500 445.000
32.39000 458.000
32.40500 446.000
32.42000 457.000
32.43500 454.000
32.45000 449.000
32.46500 454.000
32.48000 433.000
32.49500 437.000
32.51000 445.000
32.52500 461.000
32.54000 439.000
32.55500 469.000
32.57000 439.000
32.58500 445.000
32.60000 447.000
32.61500 452.000
32.63000 473.000
32.64500 493.000
32.66000 430.000
32.67500 445.000
32.69000 454.000
32.70500 437.000
32.72000 463.000
32.73500 440.000
32.75000 406.000
32.76500 424.000
32.78000 428.000
32.79500 447.000
32.81000 409.000
32.82500 427.000
32.84000 436.000
32.85500 432.000
32.87000 439.000
32.88500 441.000
32.90000 430.000
32.91500 432.000
32.93000 449.000
32.94500 415.000
32.96000 401.000
32.97500 407.000
32.99000 431.000
33.00500 446.000
33.02000 416.000
33.03500 412.000
33.05000 425.000
33.06500 416.000
33.08000 436.000
33.09500 442.000
33.11000 440.000
33.12500 397.000
33.14000 428.000
33.15500 442.000
33.17000 446.000
33.18500 423.000
33.20000 410.000
33.21500 436.000
33.23000 419.000
33.24500 404.000
33.26000 427.000
33.27500 427.000
33.29000 442.000
33.30500 405.000
33.32000 441.000
33.33500 446.000
33.35000 433.000
33.36500 413.000
33.38000 406.000
33.39500 406.000
33.41000 440.000
33.42500 441.000
33.44000 405.000
33.45500 418.000
33.47000 435.000
33.48500 420.000
33.50000 417.000
33.51500 381.000
33.53000 411.000
33.54500 418.000
33.56000 413.000
33.57500 382.000
33.59000 394.000
33.60500 392.000
33.62000 397.000
33.63500 437.000
33.65000 411.000
33.66500 441.000
33.68000 452.000
33.69500 423.000
33.71000 431.000
33.72500 413.000
33.74000 400.000
33.75500 414.000
33.77000 381.000
33.78500 400.000
33.80000 391.000
33.81500 391.000
33.83000 380.000
33.84500 393.000
33.86000 414.000
33.87500 414.000
33.89000 402.000
33.90500 395.000
33.92000 407.000
33.93500 409.000
33.95000 413.000
33.96500 398.000
33.98000 403.000
33.99500 379.000
34.01000 392.000
34.02500 392.000
34.04000 390.000
34.05500 393.000
34.07000 389.000
34.08500 391.000
34.10000 417.000
34.11500 398.000
34.13000 405.000
34.14500 392.000
34.16000 414.000
34.17500 416.000
34.19000 408.000
34.20500 367.000
34.22000 391.000
34.23500 402.000
34.25000 385.000
34.26500 379.000
34.28000 374.000
34.29500 373.000
34.31000 414.000
34.32500 399.000
34.34000 388.000
34.35500 407.000
34.37000 406.000
34.38500 382.000
34.40000 395.000
34.41500 362.000
34.43000 366.000
34.44500 359.000
34.46000 382.000
34.47500 391.000
34.49000 408.000
34.50500 387.000
34.52000 403.000
34.53500 400.000
34.55000 378.000
34.56500 389.000
34.58000 351.000
34.59500 390.000
34.61000 377.000
34.62500 365.000
34.64000 403.000
34.65500 408.000
34.67000 393.000
34.68500 370.000
34.70000 359.000
34.71500 384.000
34.73000 376.000
34.74500 381.000
34.76000 386.000
34.77500 366.000
34.79000 380.000
34.80500 405.000
34.82000 398.000
34.83500 417.000
34.85000 387.000
34.86500 356.000
34.88000 376.000
34.89500 414.000
34.91000 409.000
34.92500 357.000
34.94000 365.000
34.95500 413.000
34.97000 376.000
34.98500 357.000
35.00000 369.000
35.01500 380.000
35.03000 367.000
35.04500 362.000
35.06000 373.000
35.07500 360.000
35.09000 371.000
35.10500 374.000
35.12000 376.000
35.13500 372.000
35.15000 372.000
35.16500 372.000
35.18000 377.000
35.19500 382.000
35.21000 398.000
35.22500 361.000
35.24000 337.000
35.25500 382.000
35.27000 393.000
35.28500 362.000
35.30000 354.000
35.31500 329.000
35.33000 356.000
35.34500 363.000
35.36000 336.000
35.37500 346.000
35.39000 376.000
35.40500 348.000
35.42000 365.000
35.43500 391.000
35.45000 378.000
35.46500 340.000
35.48000 364.000
35.49500 359.000
35.51000 366.000
35.52500 385.000
35.54000 376.000
35.55500 348.000
35.57000 378.000
35.58500 380.000
35.60000 369.000
35.61500 399.000
35.63000 371.000
35.64500 360.000
35.66000 368.000
35.67500 366.000
35.69000 376.000
35.70500 347.000
35.72000 356.000
35.73500 347.000
35.75000 377.000
35.76500 349.000
35.78000 363.000
35.79500 342.000
35.81000 347.000
35.82500 330.000
35.84000 367.000
35.85500 338.000
35.87000 346.000
35.88500 383.000
35.90000 363.000
35.91500 353.000
35.93000 362.000
35.94500 365.000
35.96000 359.000
35.97500 350.000
35.99000 363.000
36.00500 345.000
36.02000 357.000
36.03500 337.000
36.05000 326.000
36.06500 350.000
36.08000 351.000
36.09500 380.000
36.11000 394.000
36.12500 375.000
36.14000 343.000
36.15500 349.000
36.17000 340.000
36.18500 341.000
36.20000 359.000
36.21500 353.000
36.23000 332.000
36.24500 324.000
36.26000 322.000
36.27500 335.000
36.29000 353.000
36.30500 336.000
36.32000 311.000
36.33500 316.000
36.35000 347.000
36.36500 361.000
36.38000 356.000
36.39500 328.000
36.41000 338.000
36.42500 324.000
36.44000 332.000
36.45500 355.000
36.47000 343.000
36.48500 335.000
36.50000 326.000
36.51500 341.000
36.53000 348.000
36.54500 324.000
36.56000 329.000
36.57500 338.000
36.59000 320.000
36.60500 334.000
36.62000 328.000
36.63500 343.000
36.65000 343.000
36.66500 336.000
36.68000 323.000
36.69500 343.000
36.71000 336.000
36.72500 347.000
36.74000 332.000
36.75500 328.000
36.77000 345.000
36.78500 349.000
36.80000 345.000
36.81500 320.000
36.83000 333.000
36.84500 332.000
36.86000 338.000
36.87500 322.000
36.89000 319.000
36.90500 345.000
36.92000 353.000
36.93500 317.000
36.95000 305.000
36.96500 304.000
36.98000 316.000
36.99500 319.000
37.01000 337.000
37.02500 352.000
37.04000 329.000
37.05500 317.000
37.07000 340.000
37.08500 333.000
37.10000 350.000
37.11500 320.000
37.13000 314.000
37.14500 320.000
37.16000 316.000
37.17500 333.000
37.19000 327.000
37.20500 326.000
37.22000 328.000
37.23500 347.000
37.25000 329.000
37.26500 319.000
37.28000 318.000
37.29500 316.000
37.31000 327.000
37.32500 333.000
37.34000 311.000
37.35500 344.000
37.37000 357.000
37.38500 326.000
37.40000 314.000
37.41500 317.000
37.43000 319.000
37.44500 347.000
37.46000 331.000
37.47500 326.000
37.49000 316.000
37.50500 340.000
37.52000 344.000
37.53500 306.000
37.55000 307.000
37.56500 310.000
37.58000 308.000
37.59500 315.000
37.61000 315.000
37.62500 309.000
37.64000 315.000
37.65500 313.000
37.67000 341.000
37.68500 297.000
37.70000 310.000
37.71500 307.000
37.73000 314.000
37.74500 332.000
37.76000 303.000
37.77500 313.000
37.79000 307.000
37.80500 322.000
37.82000 338.000
37.83500 323.000
37.85000 329.000
37.86500 321.000
37.88000 303.000
37.89500 330.000
37.91000 328.000
37.92500 319.000
37.94000 319.000
37.95500 308.000
37.97000 330.000
37.98500 337.000
38.00000 301.000
38.01500 292.000
38.03000 300.000
38.04500 318.000
38.06000 294.000
38.07500 319.000
38.09000 310.000
38.10500 315.000
38.12000 304.000
38.13500 335.000
38.15000 326.000
38.16500 309.000
38.18000 293.000
38.19500 300.000
38.21000 300.000
38.22500 311.000
38.24000 308.000
38.25500 313.000
38.27000 308.000
38.28500 296.000
38.30000 315.000
38.31500 316.000
38.33000 325.000
38.34500 336.000
38.36000 320.000
38.37500 324.000
38.39000 337.000
38.40500 325.000
38.42000 333.000
38.43500 322.000
38.45000 349.000
38.46500 333.000
38.48000 317.000
38.49500 306.000
38.51000 300.000
38.52500 302.000
38.54000 301.000
38.55500 308.000
38.57000 303.000
38.58500 320.000
38.60000 301.000
38.61500 319.000
38.63000 329.000
38.64500 325.000
38.66000 318.000
38.67500 323.000
38.69000 319.000
38.70500 296.000
38.72000 300.000
38.73500 316.000
38.75000 312.000
38.76500 310.000
38.78000 311.000
38.79500 312.000
38.81000 312.000
38.82500 323.000
38.84000 309.000
38.85500 311.000
38.87000 278.000
38.88500 306.000
38.90000 315.000
38.91500 325.000
38.93000 354.000
38.94500 339.000
38.96000 304.000
38.97500 298.000
38.99000 310.000
39.00500 336.000
39.02000 300.000
39.03500 321.000
39.05000 307.000
39.06500 311.000
39.08000 292.000
39.09500 295.000
39.11000 333.000
39.12500 336.000
39.14000 304.000
39.15500 324.000
39.17000 313.000
39.18500 321.000
39.20000 320.000
39.21500 318.000
39.23000 298.000
39.24500 325.000
39.26000 321.000
39.27500 308.000
39.29000 324.000
39.30500 309.000
39.32000 334.000
39.33500 326.000
39.35000 314.000
39.36500 298.000
39.38000 329.000
39.39500 323.000
39.41000 350.000
39.42500 333.000
39.44000 325.000
39.45500 340.000
39.47000 325.000
39.48500 323.000
39.50000 314.000
39.51500 320.000
39.53000 326.000
39.54500 313.000
39.56000 308.000
39.57500 311.000
39.59000 309.000
39.60500 314.000
39.62000 327.000
39.63500 292.000
39.65000 310.000
39.66500 348.000
39.68000 331.000
39.69500 318.000
39.71000 330.000
39.72500 318.000
39.74000 316.000
39.75500 317.000
39.77000 334.000
39.78500 326.000
39.80000 329.000
39.81500 318.000
39.83000 320.000
39.84500 307.000
39.86000 324.000
39.87500 306.000
39.89000 282.000
39.90500 317.000
39.92000 306.000
39.93500 322.000
39.95000 302.000
39.96500 341.000
39.98000 308.000
39.99500 315.000
40.01000 332.000
40.02500 328.000
40.04000 324.000
40.05500 330.000
40.07000 284.000
40.08500 286.000
40.10000 307.000
40.11500 298.000
40.13000 317.000
40.14500 312.000
40.16000 294.000
40.17500 307.000
40.19000 300.000
40.20500 333.000
40.22000 319.000
40.23500 308.000
40.25000 299.000
40.26500 296.000
40.28000 319.000
40.29500 306.000
40.31000 324.000
40.32500 315.000
40.34000 326.000
40.35500 309.000
40.37000 318.000
40.38500 309.000
40.40000 318.000
40.41500 303.000
40.43000 310.000
40.44500 309.000
40.46000 314.000
40.47500 313.000
40.49000 307.000
40.50500 306.000
40.52000 298.000
40.53500 331.000
40.55000 338.000
40.56500 311.000
40.58000 314.000
40.59500 292.000
40.61000 297.000
40.62500 302.000
40.64000 292.000
40.65500 309.000
40.67000 313.000
40.68500 298.000
40.70000 318.000
40.71500 328.000
40.73000 317.000
40.74500 315.000
40.76000 315.000
40.77500 299.000
40.79000 304.000
40.80500 309.000
40.82000 292.000
40.83500 313.000
40.85000 331.000
40.86500 304.000
40.88000 300.000
40.89500 307.000
40.91000 299.000
40.92500 291.000
40.94000 295.000
40.95500 314.000
40.97000 313.000
40.98500 300.000
41.00000 303.000
41.01500 305.000
41.03000 292.000
41.04500 329.000
41.06000 319.000
41.07500 316.000
41.09000 298.000
41.10500 288.000
41.12000 302.000
41.13500 320.000
41.15000 326.000
41.16500 303.000
41.18000 314.000
41.19500 332.000
41.21000 330.000
41.22500 311.000
41.24000 304.000
41.25500 318.000
41.27000 314.000
41.28500 322.000
41.30000 322.000
41.31500 290.000
41.33000 286.000
41.34500 313.000
41.36000 322.000
41.37500 292.000
41.39000 313.000
41.40500 285.000
41.42000 277.000
41.43500 285.000
41.45000 315.000
41.46500 300.000
41.48000 305.000
41.49500 315.000
41.51000 315.000
41.52500 304.000
41.54000 297.000
41.55500 303.000
41.57000 300.000
41.58500 296.000
41.60000 331.000
41.61500 317.000
41.63000 305.000
41.64500 315.000
41.66000 290.000
41.67500 282.000
41.69000 278.000
41.70500 298.000
41.72000 278.000
41.73500 309.000
41.75000 303.000
41.76500 307.000
41.78000 281.000
41.79500 300.000
41.81000 323.000
41.82500 317.000
41.84000 304.000
41.85500 311.000
41.87000 291.000
41.88500 301.000
41.90000 332.000
41.91500 293.000
41.93000 303.000
41.94500 293.000
41.96000 309.000
41.97500 332.000
41.99000 322.000
42.00500 334.000
42.02000 318.000
42.03500 319.000
42.05000 314.000
42.06500 300.000
42.08000 318.000
42.09500 316.000
42.11000 316.000
42.12500 322.000
42.14000 310.000
42.15500 302.000
42.17000 306.000
42.18500 294.000
42.20000 283.000
42.21500 323.000
42.23000 324.000
42.24500 307.000
42.26000 290.000
42.27500 312.000
42.29000 326.000
42.30500 320.000
42.32000 328.000
42.33500 289.000
42.35000 307.000
42.36500 302.000
42.38000 317.000
42.39500 298.000
42.41000 292.000
42.42500 314.000
42.44000 315.000
42.45500 319.000
42.47000 323.000
42.48500 300.000
42.50000 273.000
42.51500 296.000
42.53000 315.000
42.54500 313.000
42.56000 324.000
42.57500 286.000
42.59000 320.000
42.60500 347.000
42.62000 326.000
42.63500 310.000
42.65000 312.000
42.66500 317.000
42.68000 312.000
42.69500 308.000
42.71000 335.000
42.72500 341.000
42.74000 309.000
42.75500 299.000
42.77000 314.000
42.78500 314.000
42.80000 311.000
42.81500 310.000
42.83000 312.000
42.84500 333.000
42.86000 321.000
42.87500 323.000
42.89000 305.000
42.90500 327.000
42.92000 324.000
42.93500 305.000
42.95000 300.000
42.96500 302.000
42.98000 311.000
42.99500 314.000
43.01000 325.000
43.02500 327.000
43.04000 325.000
43.05500 334.000
43.07000 327.000
43.08500 339.000
43.10000 322.000
43.11500 324.000
43.13000 324.000
43.14500 319.000
43.16000 337.000
43.17500 338.000
43.19000 329.000
43.20500 299.000
43.22000 327.000
43.23500 340.000
43.25000 315.000
43.26500 320.000
43.28000 324.000
43.29500 346.000
43.31000 313.000
43.32500 343.000
43.34000 336.000
43.35500 293.000
43.37000 309.000
43.38500 318.000
43.40000 315.000
43.41500 327.000
43.43000 347.000
43.44500 341.000
43.46000 333.000
43.47500 325.000
43.49000 327.000
43.50500 293.000
43.52000 349.000
43.53500 354.000
43.55000 309.000
43.56500 311.000
43.58000 323.000
43.59500 311.000
43.61000 320.000
43.62500 336.000
43.64000 312.000
43.65500 345.000
43.67000 340.000
43.68500 338.000
43.70000 350.000
43.71500 329.000
43.73000 332.000
43.74500 333.000
43.76000 336.000
43.77500 355.000
43.79000 338.000
43.80500 375.000
43.82000 351.000
43.83500 347.000
43.85000 312.000
43.86500 315.000
43.88000 346.000
43.89500 293.000
43.91000 309.000
43.92500 308.000
43.94000 321.000
43.95500 318.000
43.97000 335.000
43.98500 326.000
44.00000 302.000
44.01500 335.000
44.03000 336.000
44.04500 306.000
44.06000 330.000
44.07500 342.000
44.09000 337.000
44.10500 334.000
44.12000 346.000
44.13500 317.000
44.15000 344.000
44.16500 349.000
44.18000 345.000
44.19500 342.000
44.21000 318.000
44.22500 322.000
44.24000 359.000
44.25500 355.000
44.27000 321.000
44.28500 326.000
44.30000 329.000
44.31500 337.000
44.33000 337.000
44.34500 345.000
44.36000 326.000
44.37500 321.000
44.39000 317.000
44.40500 343.000
44.42000 322.000
44.43500 354.000
44.45000 334.000
44.46500 326.000
44.48000 318.000
44.49500 337.000
44.51000 324.000
44.52500 337.000
44.54000 331.000
44.55500 327.000
44.57000 303.000
44.58500 315.000
44.60000 342.000
44.61500 360.000
44.63000 336.000
44.64500 329.000
44.66000 335.000
44.67500 341.000
44.69000 355.000
44.70500 305.000
44.72000 320.000
44.73500 344.000
44.75000 343.000
44.76500 326.000
44.78000 339.000
44.79500 365.000
44.81000 319.000
44.82500 330.000
44.84000 366.000
44.85500 341.000
44.87000 343.000
44.88500 334.000
44.90000 338.000
44.91500 330.000
44.93000 323.000
44.94500 318.000
44.96000 315.000
44.97500 332.000
44.99000 310.000
45.00500 311.000
45.02000 321.000
45.03500 351.000
45.05000 336.000
45.06500 322.000
45.08000 316.000
45.09500 318.000
45.11000 305.000
45.12500 345.000
45.14000 340.000
45.15500 318.000
45.17000 324.000
45.18500 322.000
45.20000 317.000
45.21500 340.000
45.23000 335.000
45.24500 321.000
45.26000 329.000
45.27500 320.000
45.29000 289.000
45.30500 333.000
45.32000 319.000
45.33500 330.000
45.35000 317.000
45.36500 306.000
45.38000 323.000
45.39500 312.000
45.41000 301.000
45.42500 311.000
45.44000 324.000
45.45500 326.000
45.47000 333.000
45.48500 314.000
45.50000 312.000
45.51500 319.000
45.53000 299.000
45.54500 341.000
45.56000 326.000
45.57500 301.000
45.59000 312.000
45.60500 332.000
45.62000 298.000
45.63500 295.000
45.65000 310.000
45.66500 313.000
45.68000 339.000
45.69500 326.000
45.71000 329.000
45.72500 319.000
45.74000 317.000
45.75500 323.000
45.77000 300.000
45.78500 291.000
45.80000 266.000
45.81500 288.000
45.83000 305.000
45.84500 313.000
45.86000 309.000
45.87500 319.000
45.89000 319.000
45.90500 323.000
45.92000 292.000
45.93500 338.000
45.95000 305.000
45.96500 327.000
45.98000 318.000
45.99500 313.000
46.01000 326.000
46.02500 312.000
46.04000 295.000
46.05500 303.000
46.07000 295.000
46.08500 329.000
46.10000 328.000
46.11500 335.000
46.13000 314.000
46.14500 310.000
46.16000 293.000
46.17500 322.000
46.19000 323.000
46.20500 308.000
46.22000 342.000
46.23500 313.000
46.25000 325.000
46.26500 315.000
46.28000 323.000
46.29500 305.000
46.31000 295.000
46.32500 306.000
46.34000 324.000
46.35500 321.000
46.37000 306.000
46.38500 309.000
46.40000 326.000
46.41500 305.000
46.43000 285.000
46.44500 290.000
46.46000 297.000
46.47500 283.000
46.49000 298.000
46.50500 316.000
46.52000 311.000
46.53500 312.000
46.55000 304.000
46.56500 310.000
46.58000 299.000
46.59500 302.000
46.61000 305.000
46.62500 243.000
46.64000 272.000
46.65500 290.000
46.67000 286.000
46.68500 276.000
46.70000 311.000
46.71500 327.000
46.73000 321.000
46.74500 301.000
46.76000 317.000
46.77500 284.000
46.79000 303.000
46.80500 310.000
46.82000 301.000
46.83500 315.000
46.85000 300.000
46.86500 278.000
46.88000 303.000
46.89500 303.000
46.91000 281.000
46.92500 308.000
46.94000 299.000
46.95500 315.000
46.97000 277.000
46.98500 288.000
47.00000 287.000
47.01500 293.000
47.03000 283.000
47.04500 309.000
47.06000 294.000
47.07500 319.000
47.09000 294.000
47.10500 291.000
47.12000 291.000
47.13500 298.000
47.15000 305.000
47.16500 275.000
47.18000 283.000
47.19500 296.000
47.21000 284.000
47.22500 306.000
47.24000 289.000
47.25500 284.000
47.27000 281.000
47.28500 311.000
47.30000 290.000
47.31500 320.000
47.33000 283.000
47.34500 296.000
47.36000 286.000
47.37500 273.000
47.39000 290.000
47.40500 298.000
47.42000 295.000
47.43500 306.000
47.45000 293.000
47.46500 284.000
47.48000 281.000
47.49500 277.000
47.51000 291.000
47.52500 321.000
47.54000 286.000
47.55500 290.000
47.57000 293.000
47.58500 300.000
47.60000 307.000
47.61500 304.000
47.63000 284.000
47.64500 287.000
47.66000 297.000
47.67500 289.000
47.69000 303.000
47.70500 262.000
47.72000 278.000
47.73500 275.000
47.75000 268.000
47.76500 289.000
47.78000 298.000
47.79500 283.000
47.81000 278.000
47.82500 291.000
47.84000 279.000
47.85500 302.000
47.87000 298.000
47.88500 277.000
47.90000 279.000
47.91500 295.000
47.93000 298.000
47.94500 295.000
47.96000 290.000
47.97500 288.000
47.99000 260.000
48.00500 282.000
48.02000 260.000
48.03500 282.000
48.05000 301.000
48.06500 285.000
48.08000 285.000
48.09500 284.000
48.11000 279.000
48.12500 291.000
48.14000 302.000
48.15500 297.000
48.17000 262.000
48.18500 239.000
48.20000 259.000
48.21500 296.000
48.23000 287.000
48.24500 248.000
48.26000 274.000
48.27500 283.000
48.29000 260.000
48.30500 270.000
48.32000 292.000
48.33500 290.000
48.35000 263.000
48.36500 285.000
48.38000 302.000
48.39500 281.000
48.41000 280.000
48.42500 284.000
48.44000 263.000
48.45500 280.000
48.47000 284.000
48.48500 278.000
48.50000 281.000
48.51500 290.000
48.53000 274.000
48.54500 274.000
48.56000 275.000
48.57500 251.000
48.59000 278.000
48.60500 260.000
48.62000 288.000
48.63500 281.000
48.65000 256.000
48.66500 260.000
48.68000 321.000
48.69500 283.000
48.71000 297.000
48.72500 277.000
48.74000 275.000
48.75500 271.000
48.77000 276.000
48.78500 273.000
48.80000 285.000
48.81500 295.000
48.83000 284.000
48.84500 269.000
48.86000 284.000
48.87500 278.000
48.89000 274.000
48.90500 262.000
48.92000 261.000
48.93500 292.000
48.95000 281.000
48.96500 285.000
48.98000 260.000
48.99500 273.000
49.01000 271.000
49.02500 269.000
49.04000 271.000
49.05500 275.000
49.07000 271.000
49.08500 285.000
49.10000 248.000
49.11500 261.000
49.13000 263.000
49.14500 260.000
49.16000 251.000
49.17500 280.000
49.19000 281.000
49.20500 251.000
49.22000 261.000
49.23500 287.000
49.25000 254.000
49.26500 281.000
49.28000 283.000
49.29500 255.000
49.31000 253.000
49.32500 240.000
49.34000 263.000
49.35500 267.000
49.37000 265.000
49.38500 262.000
49.40000 279.000
49.41500 278.000
49.43000 274.000
49.44500 240.000
49.46000 239.000
49.47500 270.000
49.49000 265.000
49.50500 263.000
49.52000 262.000
49.53500 281.000
49.55000 291.000
49.56500 273.000
49.58000 254.000
49.59500 268.000
49.61000 287.000
49.62500 257.000
49.64000 268.000
49.65500 277.000
49.67000 281.000
49.68500 265.000
49.70000 246.000
49.71500 253.000
49.73000 270.000
49.74500 242.000
49.76000 238.000
49.77500 256.000
49.79000 276.000
49.80500 258.000
49.82000 259.000
49.83500 243.000
49.85000 252.000
49.86500 256.000
49.88000 249.000
49.89500 249.000
49.91000 244.000
49.92500 274.000
49.94000 272.000
49.95500 267.000
49.97000 275.000
49.98500 253.000
50.00000 268.000
50.01500 277.000
50.03000 277.000
50.04500 258.000
50.06000 283.000
50.07500 247.000
50.09000 260.000
50.10500 267.000
50.12000 290.000
50.13500 296.000
50.15000 292.000
50.16500 261.000
50.18000 284.000
50.19500 271.000
50.21000 246.000
50.22500 246.000
50.24000 254.000
50.25500 251.000
50.27000 252.000
50.28500 262.000
50.30000 264.000
50.31500 256.000
50.33000 253.000
50.34500 249.000
50.36000 266.000
50.37500 245.000
50.39000 243.000
50.40500 263.000
50.42000 252.000
50.43500 259.000
50.45000 253.000
50.46500 240.000
50.48000 249.000
50.49500 265.000
50.51000 260.000
50.52500 248.000
50.54000 245.000
50.55500 252.000
50.57000 244.000
50.58500 253.000
50.60000 264.000
50.61500 250.000
50.63000 269.000
50.64500 275.000
50.66000 254.000
50.67500 247.000
50.69000 263.000
50.70500 255.000
50.72000 286.000
50.73500 293.000
50.75000 281.000
50.76500 253.000
50.78000 253.000
50.79500 252.000
50.81000 253.000
50.82500 256.000
50.84000 261.000
50.85500 253.000
50.87000 250.000
50.88500 299.000
50.90000 270.000
50.91500 259.000
50.93000 268.000
50.94500 257.000
50.96000 252.000
50.97500 275.000
50.99000 277.000
51.00500 264.000
51.02000 244.000
51.03500 239.000
51.05000 250.000
51.06500 245.000
51.08000 255.000
51.09500 253.000
51.11000 238.000
51.12500 260.000
51.14000 252.000
51.15500 253.000
51.17000 268.000
51.18500 271.000
51.20000 258.000
51.21500 282.000
51.23000 269.000
51.24500 258.000
51.26000 245.000
51.27500 244.000
51.29000 265.000
51.30500 292.000
51.32000 273.000
51.33500 257.000
51.35000 250.000
51.36500 260.000
51.38000 266.000
51.39500 268.000
51.41000 274.000
51.42500 296.000
51.44000 265.000
51.45500 245.000
51.47000 264.000
51.48500 272.000
51.50000 274.000
51.51500 268.000
51.53000 260.000
51.54500 256.000
51.56000 227.000
51.57500 249.000
51.59000 249.000
51.60500 240.000
51.62000 250.000
51.63500 255.000
51.65000 294.000
51.66500 258.000
51.68000 254.000
51.69500 263.000
51.71000 257.000
51.72500 278.000
51.74000 253.000
51.75500 222.000
51.77000 254.000
51.78500 281.000
51.80000 265.000
51.81500 250.000
51.83000 263.000
51.84500 268.000
51.86000 273.000
51.87500 273.000
51.89000 287.000
51.90500 272.000
51.92000 280.000
51.93500 290.000
51.95000 266.000
51.96500 234.000
51.98000 250.000
51.99500 264.000
52.01000 278.000
52.02500 264.000
52.04000 256.000
52.05500 245.000
52.07000 242.000
52.08500 251.000
52.10000 242.000
52.11500 281.000
52.13000 263.000
52.14500 270.000
52.16000 253.000
52.17500 274.000
52.19000 251.000
52.20500 255.000
52.22000 279.000
52.23500 255.000
52.25000 267.000
52.26500 259.000
52.28000 255.000
52.29500 255.000
52.31000 268.000
52.32500 262.000
52.34000 250.000
52.35500 256.000
52.37000 240.000
52.38500 250.000
52.40000 263.000
52.41500 277.000
52.43000 253.000
52.44500 237.000
52.46000 244.000
52.47500 269.000
52.49000 271.000
52.50500 266.000
52.52000 268.000
52.53500 263.000
52.55000 224.000
52.56500 241.000
52.58000 261.000
52.59500 261.000
52.61000 258.000
52.62500 251.000
52.64000 247.000
52.65500 244.000
52.67000 224.000
52.68500 241.000
52.70000 252.000
52.71500 261.000
52.73000 241.000
52.74500 241.000
52.76000 266.000
52.77500 256.000
52.79000 257.000
52.80500 256.000
52.82000 245.000
52.83500 240.000
52.85000 248.000
52.86500 243.000
52.88000 261.000
52.89500 240.000
52.91000 240.000
52.92500 237.000
52.94000 239.000
52.95500 238.000
52.97000 261.000
52.98500 256.000
53.00000 234.000
53.01500 269.000
53.03000 254.000
53.04500 247.000
53.06000 238.000
53.07500 235.000
53.09000 232.000
53.10500 240.000
53.12000 262.000
53.13500 245.000
53.15000 271.000
53.16500 253.000
53.18000 284.000
53.19500 277.000
53.21000 248.000
53.22500 249.000
53.24000 243.000
53.25500 232.000
53.27000 265.000
53.28500 271.000
53.30000 262.000
53.31500 246.000
53.33000 239.000
53.34500 239.000
53.36000 253.000
53.37500 255.000
53.39000 250.000
53.40500 254.000
53.42000 245.000
53.43500 237.000
53.45000 249.000
53.46500 235.000
53.48000 241.000
53.49500 269.000
53.51000 273.000
53.52500 246.000
53.54000 255.000
53.55500 260.000
53.57000 251.000
53.58500 246.000
53.60000 248.000
53.61500 223.000
53.63000 237.000
53.64500 262.000
53.66000 236.000
53.67500 236.000
53.69000 236.000
53.70500 230.000
53.72000 230.000
53.73500 245.000
53.75000 256.000
53.76500 252.000
53.78000 225.000
53.79500 246.000
53.81000 259.000
53.82500 246.000
53.84000 240.000
53.85500 256.000
53.87000 245.000
53.88500 275.000
53.90000 231.000
53.91500 253.000
53.93000 256.000
53.94500 244.000
53.96000 274.000
53.97500 244.000
53.99000 263.000
54.00500 239.000
54.02000 227.000
54.03500 264.000
54.05000 248.000
54.06500 243.000
54.08000 232.000
54.09500 244.000
54.11000 244.000
54.12500 235.000
54.14000 246.000
54.15500 242.000
54.17000 235.000
54.18500 227.000
54.20000 233.000
54.21500 225.000
54.23000 227.000
54.24500 250.000
54.26000 243.000
54.27500 256.000
54.29000 256.000
54.30500 237.000
54.32000 234.000
54.33500 233.000
54.35000 244.000
54.36500 245.000
54.38000 247.000
54.39500 269.000
54.41000 235.000
54.42500 233.000
54.44000 243.000
54.45500 263.000
54.47000 253.000
54.48500 232.000
54.50000 227.000
54.51500 231.000
54.53000 261.000
54.54500 239.000
54.56000 246.000
54.57500 225.000
54.59000 259.000
54.60500 252.000
54.62000 258.000
54.63500 246.000
54.65000 231.000
54.66500 243.000
54.68000 252.000
54.69500 242.000
54.71000 254.000
54.72500 259.000
54.74000 237.000
54.75500 260.000
54.77000 241.000
54.78500 242.000
54.80000 234.000
54.81500 252.000
54.83000 236.000
54.84500 227.000
54.86000 240.000
54.87500 257.000
54.89000 246.000
54.90500 260.000
54.92000 251.000
54.93500 240.000
54.95000 238.000
54.96500 257.000
54.98000 253.000
54.99500 237.000
55.01000 222.000
55.02500 247.000
55.04000 247.000
55.05500 247.000
55.07000 262.000
55.08500 256.000
55.10000 242.000
55.11500 235.000
55.13000 243.000
55.14500 237.000
55.16000 244.000
55.17500 242.000
55.19000 252.000
55.20500 257.000
55.22000 260.000
55.23500 242.000
55.25000 256.000
55.26500 232.000
55.28000 235.000
55.29500 260.000
55.31000 251.000
55.32500 234.000
55.34000 248.000
55.35500 237.000
55.37000 266.000
55.38500 241.000
55.40000 265.000
55.41500 272.000
55.43000 269.000
55.44500 263.000
55.46000 252.000
55.47500 245.000
55.49000 259.000
55.50500 242.000
55.52000 239.000
55.53500 249.000
55.55000 254.000
55.56500 270.000
55.58000 249.000
55.59500 258.000
55.61000 244.000
55.62500 271.000
55.64000 250.000
55.65500 235.000
55.67000 267.000
55.68500 255.000
55.70000 254.000
55.71500 228.000
55.73000 225.000
55.74500 251.000
55.76000 249.000
55.77500 228.000
55.79000 268.000
55.80500 254.000
55.82000 250.000
55.83500 247.000
55.85000 245.000
55.86500 255.000
55.88000 262.000
55.89500 253.000
55.91000 265.000
55.92500 249.000
55.94000 252.000
55.95500 258.000
55.97000 264.000
55.98500 228.000
56.00000 244.000
56.01500 266.000
56.03000 264.000
56.04500 275.000
56.06000 271.000
56.07500 257.000
56.09000 259.000
56.10500 254.000
56.12000 261.000
56.13500 263.000
56.15000 268.000
56.16500 260.000
56.18000 266.000
56.19500 274.000
56.21000 265.000
56.22500 264.000
56.24000 263.000
56.25500 284.000
56.27000 272.000
56.28500 260.000
56.30000 270.000
56.31500 279.000
56.33000 266.000
56.34500 272.000
56.36000 272.000
56.37500 243.000
56.39000 262.000
56.40500 275.000
56.42000 313.000
56.43500 278.000
56.45000 278.000
56.46500 290.000
56.48000 281.000
56.49500 281.000
56.51000 292.000
56.52500 274.000
56.54000 274.000
56.55500 280.000
56.57000 295.000
56.58500 276.000
56.60000 268.000
56.61500 253.000
56.63000 292.000
56.64500 277.000
56.66000 266.000
56.67500 272.000
56.69000 306.000
56.70500 293.000
56.72000 274.000
56.73500 258.000
56.75000 253.000
56.76500 251.000
56.78000 286.000
56.79500 258.000
56.81000 282.000
56.82500 257.000
56.84000 271.000
56.85500 262.000
56.87000 237.000
56.88500 258.000
56.90000 257.000
56.91500 254.000
56.93000 280.000
56.94500 262.000
56.96000 274.000
56.97500 270.000
56.99000 274.000
57.00500 273.000
57.02000 282.000
57.03500 287.000
57.05000 273.000
57.06500 247.000
57.08000 242.000
57.09500 243.000
57.11000 270.000
57.12500 268.000
57.14000 266.000
57.15500 249.000
57.17000 249.000
57.18500 268.000
57.20000 255.000
57.21500 249.000
57.23000 270.000
57.24500 262.000
57.26000 254.000
57.27500 246.000
57.29000 244.000
57.30500 258.000
57.32000 265.000
57.33500 288.000
57.35000 276.000
57.36500 242.000
57.38000 265.000
57.39500 251.000
57.41000 230.000
57.42500 260.000
57.44000 245.000
57.45500 262.000
57.47000 261.000
57.48500 251.000
57.50000 242.000
57.51500 248.000
57.53000 269.000
57.54500 237.000
57.56000 258.000
57.57500 241.000
57.59000 252.000
57.60500 260.000
57.62000 256.000
57.63500 253.000
57.65000 251.000
57.66500 254.000
57.68000 235.000
57.69500 218.000
57.71000 237.000
57.72500 249.000
57.74000 250.000
57.75500 243.000
57.77000 245.000
57.78500 233.000
57.80000 250.000
57.81500 250.000
57.83000 246.000
57.84500 244.000
57.86000 245.000
57.87500 246.000
57.89000 238.000
57.90500 244.000
57.92000 232.000
57.93500 233.000
57.95000 244.000
57.96500 255.000
57.98000 213.000
57.99500 231.000
58.01000 228.000
58.02500 231.000
58.04000 239.000
58.05500 221.000
58.07000 245.000
58.08500 235.000
58.10000 245.000
58.11500 231.000
58.13000 254.000
58.14500 237.000
58.16000 224.000
58.17500 217.000
58.19000 231.000
58.20500 228.000
58.22000 217.000
58.23500 218.000
58.25000 230.000
58.26500 219.000
58.28000 228.000
58.29500 238.000
58.31000 227.000
58.32500 220.000
58.34000 211.000
58.35500 219.000
58.37000 223.000
58.38500 220.000
58.40000 247.000
58.41500 226.000
58.43000 227.000
58.44500 219.000
58.46000 242.000
58.47500 233.000
58.49000 237.000
58.50500 228.000
58.52000 234.000
58.53500 233.000
58.55000 215.000
58.56500 219.000
58.58000 228.000
58.59500 203.000
58.61000 211.000
58.62500 227.000
58.64000 195.000
58.65500 194.000
58.67000 220.000
58.68500 227.000
58.70000 210.000
58.71500 213.000
58.73000 229.000
58.74500 206.000
58.76000 208.000
58.77500 210.000
58.79000 211.000
58.80500 215.000
58.82000 209.000
58.83500 210.000
58.85000 214.000
58.86500 222.000
58.88000 217.000
58.89500 238.000
58.91000 244.000
58.92500 238.000
58.94000 225.000
58.95500 216.000
58.97000 240.000
58.98500 220.000
59.00000 219.000
59.01500 202.000
59.03000 200.000
59.04500 216.000
59.06000 224.000
59.07500 217.000
59.09000 207.000
59.10500 226.000
59.12000 201.000
59.13500 225.000
59.15000 230.000
59.16500 233.000
59.18000 229.000
59.19500 237.000
59.21000 211.000
59.22500 219.000
59.24000 202.000
59.25500 196.000
59.27000 202.000
59.28500 199.000
59.30000 206.000
59.31500 201.000
59.33000 185.000
59.34500 199.000
59.36000 206.000
59.37500 191.000
59.39000 219.000
59.40500 207.000
59.42000 207.000
59.43500 239.000
59.45000 222.000
59.46500 217.000
59.48000 200.000
59.49500 198.000
59.51000 221.000
59.52500 205.000
59.54000 214.000
59.55500 224.000
59.57000 205.000
59.58500 206.000
59.60000 213.000
59.61500 191.000
59.63000 207.000
59.64500 220.000
59.66000 219.000
59.67500 219.000
59.69000 209.000
59.70500 193.000
59.72000 216.000
59.73500 214.000
59.75000 205.000
59.76500 202.000
59.78000 192.000
59.79500 219.000
59.81000 189.000
59.82500 209.000
59.84000 216.000
59.85500 195.000
59.87000 213.000
59.88500 206.000
59.90000 203.000
59.91500 215.000
59.93000 203.000
59.94500 225.000
59.96000 207.000
59.97500 190.000
59.99000 229.000
60.00500 215.000
60.02000 202.000
60.03500 205.000
60.05000 188.000
60.06500 213.000
60.08000 210.000
60.09500 210.000
60.11000 209.000
60.12500 199.000
60.14000 189.000
60.15500 205.000
60.17000 212.000
60.18500 203.000
60.20000 214.000
60.21500 221.000
60.23000 199.000
60.24500 175.000
60.26000 212.000
60.27500 211.000
60.29000 217.000
60.30500 210.000
60.32000 214.000
60.33500 208.000
60.35000 192.000
60.36500 190.000
60.38000 186.000
60.39500 202.000
60.41000 196.000
60.42500 187.000
60.44000 193.000
60.45500 196.000
60.47000 189.000
60.48500 174.000
60.50000 208.000
60.51500 211.000
60.53000 210.000
60.54500 213.000
60.56000 207.000
60.57500 201.000
60.59000 186.000
60.60500 195.000
60.62000 189.000
60.63500 185.000
60.65000 201.000
60.66500 178.000
60.68000 187.000
60.69500 177.000
60.71000 213.000
60.72500 187.000
60.74000 198.000
60.75500 211.000
60.77000 193.000
60.78500 196.000
60.80000 181.000
60.81500 189.000
60.83000 187.000
60.84500 207.000
60.86000 208.000
60.87500 177.000
60.89000 194.000
60.90500 200.000
60.92000 211.000
60.93500 185.000
60.95000 198.000
60.96500 182.000
60.98000 172.000
60.99500 189.000
61.01000 194.000
61.02500 187.000
61.04000 181.000
61.05500 198.000
61.07000 202.000
61.08500 193.000
61.10000 202.000
61.11500 183.000
61.13000 212.000
61.14500 198.000
61.16000 190.000
61.17500 204.000
61.19000 194.000
61.20500 193.000
61.22000 183.000
61.23500 175.000
61.25000 202.000
61.26500 200.000
61.28000 182.000
61.29500 194.000
61.31000 200.000
61.32500 194.000
61.34000 199.000
61.35500 200.000
61.37000 193.000
61.38500 214.000
61.40000 218.000
61.41500 201.000
61.43000 200.000
61.44500 188.000
61.46000 184.000
61.47500 174.000
61.49000 195.000
61.50500 209.000
61.52000 214.000
61.53500 186.000
61.55000 198.000
61.56500 170.000
61.58000 181.000
61.59500 195.000
61.61000 187.000
61.62500 187.000
61.64000 179.000
61.65500 197.000
61.67000 198.000
61.68500 190.000
61.70000 188.000
61.71500 190.000
61.73000 191.000
61.74500 205.000
61.76000 207.000
61.77500 198.000
61.79000 190.000
61.80500 196.000
61.82000 205.000
61.83500 187.000
61.85000 183.000
61.86500 199.000
61.88000 200.000
61.89500 184.000
61.91000 195.000
61.92500 183.000
61.94000 194.000
61.95500 176.000
61.97000 195.000
61.98500 179.000
