2.00000 5.000
2.01500 2.000
2.03000 3.000
2.04500 3.000
2.06000 7.000
2.07500 7.000
2.09000 5.000
2.10500 8.000
2.12000 8.000
2.13500 4.000
2.15000 7.000
2.16500 5.000
2.18000 4.000
2.19500 6.000
2.21000 6.000
2.22500 4.000
2.24000 2.000
2.25500 6.000
2.27000 8.000
2.28500 8.000
2.30000 3.000
2.31500 4.000
2.33000 6.000
2.34500 3.000
2.36000 5.000
2.37500 3.000
2.39000 3.000
2.40500 4.000
2.42000 3.000
2.43500 3.000
2.45000 3.000
2.46500 5.000
2.48000 6.000
2.49500 4.000
2.51000 3.000
2.52500 4.000
2.54000 4.000
2.55500 1.000
2.57000 4.000
2.58500 4.000
2.60000 9.000
2.61500 7.000
2.63000 6.000
2.64500 6.000
2.66000 7.000
2.67500 7.000
2.69000 6.000
2.70500 7.000
2.72000 6.000
2.73500 5.000
2.75000 4.000
2.76500 4.000
2.78000 5.000
2.79500 3.000
2.81000 1.000
2.82500 2.000
2.84000 1.000
2.85500 1.000
2.87000 3.000
2.88500 1.000
2.90000 3.000
2.91500 2.000
2.93000 2.000
2.94500 4.000
2.96000 3.000
2.97500 6.000
2.99000 7.000
3.00500 6.000
3.02000 8.000
3.03500 7.000
3.05000 8.000
3.06500 13.000
3.08000 16.000
3.09500 24.000
3.11000 19.000
3.12500 26.000
3.14000 28.000
3.15500 29.000
3.17000 52.000
3.18500 85.000
3.20000 125.000
3.21500 186.000
3.23000 236.000
3.24500 298.000
3.26000 378.000
3.27500 446.000
3.29000 501.000
3.30500 491.000
3.32000 529.000
3.33500 587.000
3.35000 577.000
3.36500 519.000
3.38000 533.000
3.39500 568.000
3.41000 511.000
3.42500 516.000
3.44000 513.000
3.45500 510.000
3.47000 499.000
3.48500 503.000
3.50000 502.000
3.51500 476.000
3.53000 473.000
3.54500 474.000
3.56000 464.000
3.57500 463.000
3.59000 469.000
3.60500 447.000
3.62000 451.000
3.63500 436.000
3.65000 445.000
3.66500 427.000
3.68000 449.000
3.69500 407.000
3.71000 428.000
3.72500 446.000
3.74000 442.000
3.75500 421.000
3.77000 416.000
3.78500 426.000
3.80000 396.000
3.81500 393.000
3.83000 399.000
3.84500 428.000
3.86000 400.000
3.87500 399.000
3.89000 404.000
3.90500 381.000
3.92000 389.000
3.93500 361.000
3.95000 389.000
3.96500 377.000
3.98000 365.000
3.99500 393.000
4.01000 401.000
4.02500 366.000
4.04000 368.000
4.05500 376.000
4.07000 372.000
4.08500 378.000
4.10000 349.000
4.11500 373.000
4.13000 373.000
4.14500 384.000
4.16000 360.000
4.17500 361.000
4.19000 337.000
4.20500 337.000
4.22000 355.000
4.23500 363.000
4.25000 341.000
4.26500 336.000
4.28000 341.000
4.29500 350.000
4.31000 360.000
4.32500 395.000
4.34000 361.000
4.35500 359.000
4.37000 335.000
4.38500 335.000
4.40000 345.000
4.41500 323.000
4.43000 291.000
4.44500 325.000
4.46000 320.000
4.47500 336.000
4.49000 337.000
4.50500 321.000
4.52000 328.000
4.53500 335.000
4.55000 339.000
4.56500 334.000
4.58000 311.000
4.59500 310.000
4.61000 325.000
4.62500 302.000
4.64000 288.000
4.65500 336.000
4.67000 323.000
4.68500 314.000
4.70000 317.000
4.71500 328.000
4.73000 302.000
4.74500 307.000
4.76000 316.000
4.77500 340.000
4.79000 312.000
4.80500 288.000
4.82000 323.000
4.83500 291.000
4.85000 295.000
4.86500 300.000
4.88000 307.000
4.89500 296.000
4.91000 313.000
4.92500 306.000
4.94000 275.000
4.95500 294.000
4.97000 320.000
4.98500 301.000
5.00000 317.000
5.01500 330.000
5.03000 297.000
5.04500 271.000
5.06000 272.000
5.07500 286.000
5.09000 284.000
5.10500 318.000
5.12000 270.000
5.13500 283.000
5.15000 306.000
5.16500 294.000
5.18000 287.000
5.19500 287.000
5.21000 301.000
5.22500 304.000
5.24000 290.000
5.25500 279.000
5.27000 301.000
5.28500 302.000
5.30000 290.000
5.31500 271.000
5.33000 311.000
5.34500 287.000
5.36000 299.000
5.37500 297.000
5.39000 288.000
5.40500 285.000
5.42000 305.000
5.43500 321.000
5.45000 303.000
5.46500 284.000
5.48000 275.000
5.49500 290.000
5.51000 309.000
5.52500 288.000
5.54000 297.000
5.55500 306.000
5.57000 297.000
5.58500 269.000
5.60000 284.000
5.61500 271.000
5.63000 283.000
5.64500 278.000
5.66000 280.000
5.67500 300.000
5.69000 304.000
5.70500 302.000
5.72000 295.000
5.73500 278.000
5.75000 264.000
5.76500 279.000
5.78000 258.000
5.79500 278.000
5.81000 294.000
5.82500 306.000
5.84000 298.000
5.85500 289.000
5.87000 292.000
5.88500 275.000
5.90000 292.000
5.91500 258.000
5.93000 267.000
5.94500 271.000
5.96000 255.000
5.97500 251.000
5.99000 290.000
6.00500 299.000
6.02000 271.000
6.03500 279.000
6.05000 264.000
6.06500 267.000
6.08000 259.000
6.09500 287.000
6.11000 284.000
6.12500 278.000
6.14000 274.000
6.15500 294.000
6.17000 270.000
6.18500 283.000
6.20000 268.000
6.21500 276.000
6.23000 279.000
6.24500 273.000
6.26000 274.000
6.27500 285.000
6.29000 277.000
6.30500 286.000
6.32000 288.000
6.33500 275.000
6.35000 285.000
6.36500 303.000
6.38000 299.000
6.39500 304.000
6.41000 283.000
6.42500 286.000
6.44000 280.000
6.45500 266.000
6.47000 268.000
6.48500 286.000
6.50000 293.000
6.51500 294.000
6.53000 294.000
6.54500 279.000
6.56000 300.000
6.57500 276.000
6.59000 278.000
6.60500 278.000
6.62000 273.000
6.63500 271.000
6.65000 294.000
6.66500 285.000
6.68000 293.000
6.69500 273.000
6.71000 293.000
6.72500 289.000
6.74000 267.000
6.75500 274.000
6.77000 272.000
6.78500 291.000
6.80000 271.000
6.81500 280.000
6.83000 294.000
6.84500 280.000
6.86000 278.000
6.87500 258.000
6.89000 327.000
6.90500 265.000
6.92000 267.000
6.93500 281.000
6.95000 242.000
6.96500 280.000
6.98000 283.000
6.99500 290.000
7.01000 257.000
7.02500 264.000
7.04000 261.000
7.05500 270.000
7.07000 269.000
7.08500 272.000
7.10000 272.000
7.11500 278.000
7.13000 271.000
7.14500 251.000
7.16000 289.000
7.17500 293.000
7.19000 266.000
7.20500 259.000
7.22000 263.000
7.23500 273.000
7.25000 270.000
7.26500 259.000
7.28000 273.000
7.29500 305.000
7.31000 283.000
7.32500 300.000
7.34000 271.000
7.35500 289.000
7.37000 269.000
7.38500 260.000
7.40000 281.000
7.41500 278.000
7.43000 246.000
7.44500 278.000
7.46000 295.000
7.47500 287.000
7.49000 292.000
7.50500 285.000
7.52000 283.000
7.53500 270.000
7.55000 292.000
7.56500 307.000
7.58000 296.000
7.59500 286.000
7.61000 264.000
7.62500 248.000
7.64000 273.000
7.65500 273.000
7.67000 275.000
7.68500 306.000
7.70000 287.000
7.71500 295.000
7.73000 282.000
7.74500 280.000
7.76000 296.000
7.77500 293.000
7.79000 258.000
7.80500 262.000
7.82000 273.000
7.83500 282.000
7.85000 312.000
7.86500 289.000
7.88000 289.000
7.89500 281.000
7.91000 248.000
7.92500 286.000
7.94000 289.000
7.95500 276.000
7.97000 302.000
7.98500 288.000
8.00000 273.000
8.01500 300.000
8.03000 281.000
8.04500 269.000
8.06000 311.000
8.07500 282.000
8.09000 271.000
8.10500 265.000
8.12000 287.000
8.13500 279.000
8.15000 292.000
8.16500 279.000
8.18000 276.000
8.19500 309.000
8.21000 266.000
8.22500 287.000
8.24000 300.000
8.25500 308.000
8.27000 267.000
8.28500 251.000
8.30000 270.000
8.31500 278.000
8.33000 310.000
8.34500 296.000
8.36000 271.000
8.37500 276.000
8.39000 308.000
8.40500 286.000
8.42000 309.000
8.43500 286.000
8.45000 291.000
8.46500 259.000
8.48000 259.000
8.49500 259.000
8.51000 275.000
8.52500 275.000
8.54000 269.000
8.55500 286.000
8.57000 294.000
8.58500 276.000
8.60000 281.000
8.61500 271.000
8.63000 261.000
8.64500 268.000
8.66000 285.000
8.67500 271.000
8.69000 272.000
8.70500 287.000
8.72000 278.000
8.73500 287.000
8.75000 294.000
8.76500 282.000
8.78000 271.000
8.79500 274.000
8.81000 287.000
8.82500 287.000
8.84000 253.000
8.85500 269.000
8.87000 291.000
8.88500 283.000
8.90000 279.000
8.91500 273.000
8.93000 271.000
8.94500 265.000
8.96000 281.000
8.97500 276.000
8.99000 283.000
9.00500 296.000
9.02000 266.000
9.03500 264.000
9.05000 255.000
9.06500 269.000
9.08000 280.000
9.09500 282.000
9.11000 271.000
9.12500 275.000
9.14000 270.000
9.15500 270.000
9.17000 299.000
9.18500 295.000
9.20000 268.000
9.21500 246.000
9.23000 288.000
9.24500 272.000
9.26000 272.000
9.27500 263.000
9.29000 255.000
9.30500 287.000
9.32000 261.000
9.33500 281.000
9.35000 299.000
9.36500 281.000
9.38000 282.000
9.39500 291.000
9.41000 296.000
9.42500 272.000
9.44000 283.000
9.45500 271.000
9.47000 276.000
9.48500 278.000
9.50000 275.000
9.51500 290.000
9.53000 282.000
9.54500 291.000
9.56000 272.000
9.57500 263.000
9.59000 276.000
9.60500 284.000
9.62000 264.000
9.63500 272.000
9.65000 249.000
9.66500 281.000
9.68000 263.000
9.69500 269.000
9.71000 269.000
9.72500 274.000
9.74000 258.000
9.75500 256.000
9.77000 282.000
9.78500 283.000
9.80000 261.000
9.81500 271.000
9.83000 255.000
9.84500 258.000
9.86000 284.000
9.87500 282.000
9.89000 281.000
9.90500 293.000
9.92000 297.000
9.93500 277.000
9.95000 266.000
9.96500 262.000
9.98000 249.000
9.99500 277.000
10.01000 273.000
10.02500 255.000
10.04000 261.000
10.05500 267.000
10.07000 292.000
10.08500 285.000
10.10000 258.000
10.11500 302.000
10.13000 284.000
10.14500 294.000
10.16000 302.000
10.17500 289.000
10.19000 307.000
10.20500 306.000
10.22000 296.000
10.23500 306.000
10.25000 289.000
10.26500 269.000
10.28000 271.000
10.29500 277.000
10.31000 278.000
10.32500 265.000
10.34000 285.000
10.35500 281.000
10.37000 293.000
10.38500 277.000
10.40000 294.000
10.41500 280.000
10.43000 279.000
10.44500 321.000
10.46000 324.000
10.47500 279.000
10.49000 269.000
10.50500 274.000
10.52000 281.000
10.53500 282.000
10.55000 268.000
10.56500 279.000
10.58000 278.000
10.59500 299.000
10.61000 264.000
10.62500 298.000
10.64000 278.000
10.65500 279.000
10.67000 295.000
10.68500 287.000
10.70000 283.000
10.71500 273.000
10.73000 274.000
10.74500 260.000
10.76000 280.000
10.77500 274.000
10.79000 271.000
10.80500 272.000
10.82000 291.000
10.83500 279.000
10.85000 280.000
10.86500 290.000
10.88000 266.000
10.89500 262.000
10.91000 275.000
10.92500 285.000
10.94000 281.000
10.95500 277.000
10.97000 275.000
10.98500 297.000
11.00000 283.000
11.01500 318.000
11.03000 286.000
11.04500 289.000
11.06000 313.000
11.07500 309.000
11.09000 314.000
11.10500 319.000
11.12000 289.000
11.13500 288.000
11.15000 283.000
11.16500 293.000
11.18000 307.000
11.19500 314.000
11.21000 290.000
11.22500 287.000
11.24000 294.000
11.25500 312.000
11.27000 321.000
11.28500 300.000
11.30000 317.000
11.31500 301.000
11.33000 305.000
11.34500 303.000
11.36000 306.000
11.37500 331.000
11.39000 302.000
11.40500 301.000
11.42000 297.000
11.43500 293.000
11.45000 315.000
11.46500 319.000
11.48000 285.000
11.49500 307.000
11.51000 321.000
11.52500 302.000
11.54000 300.000
11.55500 316.000
11.57000 317.000
11.58500 303.000
11.60000 322.000
11.61500 327.000
11.63000 313.000
11.64500 335.000
11.66000 320.000
11.67500 325.000
11.69000 330.000
11.70500 348.000
11.72000 352.000
11.73500 337.000
11.75000 348.000
11.76500 389.000
11.78000 391.000
11.79500 429.000
11.81000 425.000
11.82500 442.000
11.84000 438.000
11.85500 478.000
11.87000 486.000
11.88500 473.000
11.90000 502.000
11.91500 525.000
11.93000 554.000
11.94500 556.000
11.96000 592.000
11.97500 645.000
11.99000 665.000
12.00500 682.000
12.02000 698.000
12.03500 708.000
12.05000 669.000
12.06500 680.000
12.08000 705.000
12.09500 702.000
12.11000 701.000
12.12500 640.000
12.14000 558.000
12.15500 573.000
12.17000 529.000
12.18500 513.000
12.20000 500.000
12.21500 470.000
12.23000 471.000
12.24500 428.000
12.26000 395.000
12.27500 393.000
12.29000 417.000
12.30500 374.000
12.32000 379.000
12.33500 347.000
12.35000 361.000
12.36500 324.000
12.38000 318.000
12.39500 319.000
12.41000 293.000
12.42500 316.000
12.44000 337.000
12.45500 332.000
12.47000 318.000
12.48500 317.000
12.50000 323.000
12.51500 342.000
12.53000 325.000
12.54500 317.000
12.56000 296.000
12.57500 322.000
12.59000 318.000
12.60500 319.000
12.62000 321.000
12.63500 307.000
12.65000 291.000
12.66500 324.000
12.68000 316.000
12.69500 287.000
12.71000 294.000
12.72500 277.000
12.74000 285.000
12.75500 283.000
12.77000 307.000
12.78500 292.000
12.80000 288.000
12.81500 328.000
12.83000 278.000
12.84500 290.000
12.86000 289.000
12.87500 275.000
12.89000 298.000
12.90500 280.000
12.92000 292.000
12.93500 291.000
12.95000 278.000
12.96500 267.000
12.98000 290.000
12.99500 321.000
13.01000 282.000
13.02500 290.000
13.04000 297.000
13.05500 311.000
13.07000 285.000
13.08500 300.000
13.10000 284.000
13.11500 267.000
13.13000 295.000
13.14500 301.000
13.16000 282.000
13.17500 283.000
13.19000 293.000
13.20500 275.000
13.22000 277.000
13.23500 263.000
13.25000 271.000
13.26500 259.000
13.28000 271.000
13.29500 295.000
13.31000 272.000
13.32500 276.000
13.34000 256.000
13.35500 277.000
13.37000 266.000
13.38500 274.000
13.40000 289.000
13.41500 279.000
13.43000 284.000
13.44500 269.000
13.46000 268.000
13.47500 274.000
13.49000 294.000
13.50500 275.000
13.52000 263.000
13.53500 274.000
13.55000 266.000
13.56500 267.000
13.58000 281.000
13.59500 280.000
13.61000 280.000
13.62500 282.000
13.64000 278.000
13.65500 294.000
13.67000 281.000
13.68500 260.000
13.70000 298.000
13.71500 288.000
13.73000 273.000
13.74500 265.000
13.76000 270.000
13.77500 274.000
13.79000 275.000
13.80500 304.000
13.82000 299.000
13.83500 294.000
13.85000 300.000
13.86500 278.000
13.88000 277.000
13.89500 281.000
13.91000 287.000
13.92500 278.000
13.94000 262.000
13.95500 292.000
13.97000 283.000
13.98500 291.000
14.00000 286.000
14.01500 276.000
14.03000 267.000
14.04500 289.000
14.06000 281.000
14.07500 273.000
14.09000 260.000
14.10500 264.000
14.12000 258.000
14.13500 289.000
14.15000 296.000
14.16500 282.000
14.18000 298.000
14.19500 283.000
14.21000 285.000
14.22500 285.000
14.24000 295.000
14.25500 279.000
14.27000 273.000
14.28500 280.000
14.30000 282.000
14.31500 290.000
14.33000 281.000
14.34500 275.000
14.36000 287.000
14.37500 271.000
14.39000 293.000
14.40500 289.000
14.42000 294.000
14.43500 290.000
14.45000 263.000
14.46500 262.000
14.48000 273.000
14.49500 285.000
14.51000 281.000
14.52500 274.000
14.54000 296.000
14.55500 278.000
14.57000 296.000
14.58500 282.000
14.60000 310.000
14.61500 284.000
14.63000 266.000
14.64500 273.000
14.66000 305.000
14.67500 301.000
14.69000 283.000
14.70500 291.000
14.72000 290.000
14.73500 273.000
14.75000 295.000
14.76500 275.000
14.78000 271.000
14.79500 281.000
14.81000 274.000
14.82500 276.000
14.84000 282.000
14.85500 282.000
14.87000 262.000
14.88500 266.000
14.90000 315.000
14.91500 280.000
14.93000 278.000
14.94500 268.000
14.96000 268.000
14.97500 273.000
14.99000 271.000
15.00500 260.000
15.02000 284.000
15.03500 311.000
15.05000 279.000
15.06500 285.000
15.08000 278.000
15.09500 303.000
15.11000 293.000
15.12500 294.000
15.14000 279.000
15.15500 282.000
15.17000 279.000
15.18500 252.000
15.20000 259.000
15.21500 286.000
15.23000 298.000
15.24500 292.000
15.26000 274.000
15.27500 287.000
15.29000 259.000
15.30500 269.000
15.32000 269.000
15.33500 262.000
15.35000 287.000
15.36500 284.000
15.38000 293.000
15.39500 254.000
15.41000 276.000
15.42500 281.000
15.44000 287.000
15.45500 291.000
15.47000 279.000
15.48500 278.000
15.50000 279.000
15.51500 278.000
15.53000 277.000
15.54500 272.000
15.56000 266.000
15.57500 278.000
15.59000 262.000
15.60500 278.000
15.62000 299.000
15.63500 286.000
15.65000 286.000
15.66500 288.000
15.68000 276.000
15.69500 278.000
15.71000 281.000
15.72500 277.000
15.74000 294.000
15.75500 292.000
15.77000 290.000
15.78500 287.000
15.80000 254.000
15.81500 269.000
15.83000 270.000
15.84500 283.000
15.86000 277.000
15.87500 264.000
15.89000 260.000
15.90500 256.000
15.92000 276.000
15.93500 279.000
15.95000 263.000
15.96500 290.000
15.98000 280.000
15.99500 267.000
16.01000 297.000
16.02500 269.000
16.04000 264.000
16.05500 277.000
16.07000 285.000
16.08500 284.000
16.10000 282.000
16.11500 254.000
16.13000 260.000
16.14500 263.000
16.16000 271.000
16.17500 277.000
16.19000 303.000
16.20500 281.000
16.22000 273.000
16.23500 286.000
16.25000 264.000
16.26500 256.000
16.28000 279.000
16.29500 304.000
16.31000 298.000
16.32500 264.000
16.34000 285.000
16.35500 296.000
16.37000 291.000
16.38500 254.000
16.40000 270.000
16.41500 284.000
16.43000 305.000
16.44500 290.000
16.46000 284.000
16.47500 273.000
16.49000 268.000
16.50500 291.000
16.52000 296.000
16.53500 298.000
16.55000 264.000
16.56500 278.000
16.58000 295.000
16.59500 283.000
16.61000 306.000
16.62500 278.000
16.64000 277.000
16.65500 282.000
16.67000 283.000
16.68500 290.000
16.70000 271.000
16.71500 288.000
16.73000 277.000
16.74500 313.000
16.76000 310.000
16.77500 292.000
16.79000 266.000
16.80500 287.000
16.82000 281.000
16.83500 273.000
16.85000 267.000
16.86500 259.000
16.88000 278.000
16.89500 272.000
16.91000 290.000
16.92500 276.000
16.94000 271.000
16.95500 268.000
16.97000 301.000
16.98500 286.000
17.00000 258.000
17.01500 283.000
17.03000 263.000
17.04500 271.000
17.06000 295.000
17.07500 292.000
17.09000 280.000
17.10500 286.000
17.12000 313.000
17.13500 292.000
17.15000 263.000
17.16500 273.000
17.18000 316.000
17.19500 308.000
17.21000 290.000
17.22500 294.000
17.24000 292.000
17.25500 290.000
17.27000 289.000
17.28500 294.000
17.30000 299.000
17.31500 299.000
17.33000 289.000
17.34500 286.000
17.36000 302.000
17.37500 267.000
17.39000 261.000
17.40500 275.000
17.42000 295.000
17.43500 316.000
17.45000 277.000
17.46500 286.000
17.48000 300.000
17.49500 276.000
17.51000 287.000
17.52500 279.000
17.54000 273.000
17.55500 273.000
17.57000 289.000
17.58500 311.000
17.60000 297.000
17.61500 295.000
17.63000 285.000
17.64500 286.000
17.66000 264.000
17.67500 281.000
17.69000 296.000
17.70500 300.000
17.72000 273.000
17.73500 258.000
17.75000 280.000
17.76500 284.000
17.78000 284.000
17.79500 280.000
17.81000 285.000
17.82500 295.000
17.84000 260.000
17.85500 262.000
17.87000 289.000
17.88500 286.000
17.90000 308.000
17.91500 297.000
17.93000 293.000
17.94500 284.000
17.96000 277.000
17.97500 285.000
17.99000 280.000
18.00500 301.000
18.02000 296.000
18.03500 284.000
18.05000 304.000
18.06500 270.000
18.08000 289.000
18.09500 293.000
18.11000 289.000
18.12500 284.000
18.14000 282.000
18.15500 293.000
18.17000 282.000
18.18500 264.000
18.20000 280.000
18.21500 293.000
18.23000 289.000
18.24500 286.000
18.26000 297.000
18.27500 301.000
18.29000 303.000
18.30500 290.000
18.32000 282.000
18.33500 290.000
18.35000 270.000
18.36500 288.000
18.38000 296.000
18.39500 300.000
18.41000 287.000
18.42500 274.000
18.44000 303.000
18.45500 309.000
18.47000 290.000
18.48500 279.000
18.50000 267.000
18.51500 269.000
18.53000 295.000
18.54500 301.000
18.56000 314.000
18.57500 329.000
18.59000 305.000
18.60500 280.000
18.62000 289.000
18.63500 282.000
18.65000 283.000
18.66500 297.000
18.68000 300.000
18.69500 278.000
18.71000 303.000
18.72500 296.000
18.74000 299.000
18.75500 281.000
18.77000 314.000
18.78500 298.000
18.80000 306.000
18.81500 298.000
18.83000 290.000
18.84500 296.000
18.86000 289.000
18.87500 293.000
18.89000 277.000
18.90500 282.000
18.92000 306.000
18.93500 305.000
18.95000 301.000
18.96500 299.000
18.98000 280.000
18.99500 297.000
19.01000 311.000
19.02500 305.000
19.04000 318.000
19.05500 296.000
19.07000 294.000
19.08500 288.000
19.10000 297.000
19.11500 275.000
19.13000 271.000
19.14500 283.000
19.16000 292.000
19.17500 309.000
19.19000 273.000
19.20500 282.000
19.22000 302.000
19.23500 291.000
19.25000 313.000
19.26500 301.000
19.28000 297.000
19.29500 309.000
19.31000 297.000
19.32500 281.000
19.34000 292.000
19.35500 308.000
19.37000 291.000
19.38500 314.000
19.40000 312.000
19.41500 311.000
19.43000 317.000
19.44500 320.000
19.46000 296.000
19.47500 291.000
19.49000 301.000
19.50500 283.000
19.52000 296.000
19.53500 284.000
19.55000 280.000
19.56500 310.000
19.58000 307.000
19.59500 298.000
19.61000 275.000
19.62500 288.000
19.64000 285.000
19.65500 319.000
19.67000 311.000
19.68500 288.000
19.70000 289.000
19.71500 316.000
19.73000 299.000
19.74500 280.000
19.76000 299.000
19.77500 294.000
19.79000 306.000
19.80500 302.000
19.82000 296.000
19.83500 282.000
19.85000 278.000
19.86500 279.000
19.88000 289.000
19.89500 346.000
19.91000 332.000
19.92500 337.000
19.94000 325.000
19.95500 301.000
19.97000 308.000
19.98500 306.000
20.00000 295.000
20.01500 309.000
20.03000 310.000
20.04500 300.000
20.06000 299.000
20.07500 338.000
20.09000 329.000
20.10500 313.000
20.12000 284.000
20.13500 296.000
20.15000 332.000
20.16500 299.000
20.18000 295.000
20.19500 317.000
20.21000 290.000
20.22500 290.000
20.24000 318.000
20.25500 295.000
20.27000 294.000
20.28500 318.000
20.30000 322.000
20.31500 302.000
20.33000 308.000
20.34500 329.000
20.36000 332.000
20.37500 319.000
20.39000 337.000
20.40500 320.000
20.42000 332.000
20.43500 321.000
20.45000 317.000
20.46500 321.000
20.48000 334.000
20.49500 315.000
20.51000 348.000
20.52500 367.000
20.54000 335.000
20.55500 351.000
20.57000 391.000
20.58500 380.000
20.60000 386.000
20.61500 376.000
20.63000 370.000
20.64500 410.000
20.66000 388.000
20.67500 418.000
20.69000 458.000
20.70500 438.000
20.72000 476.000
20.73500 482.000
20.75000 470.000
20.76500 543.000
20.78000 576.000
20.79500 617.000
20.81000 590.000
20.82500 644.000
20.84000 738.000
20.85500 787.000
20.87000 786.000
20.88500 834.000
20.90000 863.000
20.91500 882.000
20.93000 929.000
20.94500 972.000
20.96000 947.000
20.97500 957.000
20.99000 914.000
21.00500 923.000
21.02000 841.000
21.03500 820.000
21.05000 752.000
21.06500 725.000
21.08000 658.000
21.09500 650.000
21.11000 612.000
21.12500 544.000
21.14000 515.000
21.15500 541.000
21.17000 486.000
21.18500 476.000
21.20000 447.000
21.21500 425.000
21.23000 413.000
21.24500 428.000
21.26000 426.000
21.27500 403.000
21.29000 396.000
21.30500 383.000
21.32000 373.000
21.33500 383.000
21.35000 360.000
21.36500 320.000
21.38000 321.000
21.39500 322.000
21.41000 362.000
21.42500 351.000
21.44000 326.000
21.45500 311.000
21.47000 334.000
21.48500 325.000
21.50000 317.000
21.51500 348.000
21.53000 317.000
21.54500 330.000
21.56000 307.000
21.57500 309.000
21.59000 333.000
21.60500 306.000
21.62000 315.000
21.63500 323.000
21.65000 309.000
21.66500 318.000
21.68000 328.000
21.69500 321.000
21.71000 326.000
21.72500 321.000
21.74000 339.000
21.75500 316.000
21.77000 324.000
21.78500 343.000
21.80000 322.000
21.81500 284.000
21.83000 308.000
21.84500 301.000
21.86000 282.000
21.87500 293.000
21.89000 297.000
21.90500 322.000
21.92000 314.000
21.93500 321.000
21.95000 303.000
21.96500 303.000
21.98000 305.000
21.99500 301.000
22.01000 338.000
22.02500 325.000
22.04000 314.000
22.05500 303.000
22.07000 307.000
22.08500 302.000
22.10000 306.000
22.11500 303.000
22.13000 296.000
22.14500 303.000
22.16000 314.000
22.17500 309.000
22.19000 313.000
22.20500 303.000
22.22000 312.000
22.23500 298.000
22.25000 299.000
22.26500 320.000
22.28000 345.000
22.29500 344.000
22.31000 316.000
22.32500 292.000
22.34000 306.000
22.35500 307.000
22.37000 309.000
22.38500 331.000
22.40000 327.000
22.41500 301.000
22.43000 327.000
22.44500 336.000
22.46000 355.000
22.47500 350.000
22.49000 311.000
22.50500 283.000
22.52000 299.000
22.53500 308.000
22.55000 300.000
22.56500 328.000
22.58000 315.000
22.59500 317.000
22.61000 301.000
22.62500 314.000
22.64000 309.000
22.65500 316.000
22.67000 314.000
22.68500 320.000
22.70000 303.000
22.71500 297.000
22.73000 298.000
22.74500 275.000
22.76000 308.000
22.77500 299.000
22.79000 338.000
22.80500 310.000
22.82000 313.000
22.83500 306.000
22.85000 309.000
22.86500 335.000
22.88000 311.000
22.89500 253.000
22.91000 316.000
22.92500 324.000
22.94000 297.000
22.95500 302.000
22.97000 305.000
22.98500 314.000
23.00000 306.000
23.01500 334.000
23.03000 323.000
23.04500 296.000
23.06000 287.000
23.07500 288.000
23.09000 334.000
23.10500 321.000
23.12000 283.000
23.13500 324.000
23.15000 317.000
23.16500 332.000
23.18000 330.000
23.19500 327.000
23.21000 306.000
23.22500 321.000
23.24000 279.000
23.25500 292.000
23.27000 298.000
23.28500 313.000
23.30000 312.000
23.31500 301.000
23.33000 311.000
23.34500 321.000
23.36000 303.000
23.37500 292.000
23.39000 293.000
23.40500 322.000
23.42000 315.000
23.43500 305.000
23.45000 279.000
23.46500 287.000
23.48000 311.000
23.49500 324.000
23.51000 306.000
23.52500 314.000
23.54000 333.000
23.55500 295.000
23.57000 343.000
23.58500 354.000
23.60000 310.000
23.61500 317.000
23.63000 293.000
23.64500 301.000
23.66000 314.000
23.67500 291.000
23.69000 312.000
23.70500 333.000
23.72000 319.000
23.73500 314.000
23.75000 305.000
23.76500 312.000
23.78000 296.000
23.79500 315.000
23.81000 331.000
23.82500 327.000
23.84000 316.000
23.85500 340.000
23.87000 333.000
23.88500 341.000
23.90000 349.000
23.91500 338.000
23.93000 350.000
23.94500 354.000
23.96000 328.000
23.97500 354.000
23.99000 392.000
24.00500 381.000
24.02000 378.000
24.03500 404.000
24.05000 426.000
24.06500 421.000
24.08000 413.000
24.09500 433.000
24.11000 459.000
24.12500 501.000
24.14000 489.000
24.15500 529.000
24.17000 527.000
24.18500 562.000
24.20000 576.000
24.21500 638.000
24.23000 603.000
24.24500 612.000
24.26000 639.000
24.27500 663.000
24.29000 591.000
24.30500 614.000
24.32000 602.000
24.33500 565.000
24.35000 557.000
24.36500 520.000
24.38000 501.000
24.39500 489.000
24.41000 476.000
24.42500 440.000
24.44000 441.000
24.45500 456.000
24.47000 450.000
24.48500 445.000
24.50000 416.000
24.51500 412.000
24.53000 392.000
24.54500 383.000
24.56000 418.000
24.57500 402.000
24.59000 395.000
24.60500 404.000
24.62000 402.000
24.63500 418.000
24.65000 428.000
24.66500 458.000
24.68000 437.000
24.69500 455.000
24.71000 468.000
24.72500 462.000
24.74000 449.000
24.75500 485.000
24.77000 489.000
24.78500 487.000
24.80000 490.000
24.81500 469.000
24.83000 481.000
24.84500 496.000
24.86000 485.000
24.87500 476.000
24.89000 486.000
24.90500 497.000
24.92000 459.000
24.93500 482.000
24.95000 464.000
24.96500 456.000
24.98000 427.000
24.99500 420.000
25.01000 391.000
25.02500 396.000
25.04000 404.000
25.05500 382.000
25.07000 394.000
25.08500 400.000
25.10000 394.000
25.11500 384.000
25.13000 347.000
25.14500 345.000
25.16000 357.000
25.17500 362.000
25.19000 328.000
25.20500 333.000
25.22000 337.000
25.23500 331.000
25.25000 353.000
25.26500 354.000
25.28000 332.000
25.29500 355.000
25.31000 347.000
25.32500 360.000
25.34000 325.000
25.35500 341.000
25.37000 333.000
25.38500 336.000
25.40000 315.000
25.41500 349.000
25.43000 335.000
25.44500 329.000
25.46000 332.000
25.47500 360.000
25.49000 328.000
25.50500 320.000
25.52000 338.000
25.53500 345.000
25.55000 345.000
25.56500 322.000
25.58000 343.000
25.59500 356.000
25.61000 337.000
25.62500 322.000
25.64000 325.000
25.65500 346.000
25.67000 335.000
25.68500 351.000
25.70000 350.000
25.71500 321.000
25.73000 345.000
25.74500 345.000
25.76000 316.000
25.77500 365.000
25.79000 340.000
25.80500 336.000
25.82000 353.000
25.83500 365.000
25.85000 352.000
25.86500 340.000
25.88000 367.000
25.89500 343.000
25.91000 363.000
25.92500 360.000
25.94000 386.000
25.95500 387.000
25.97000 375.000
25.98500 373.000
26.00000 369.000
26.01500 382.000
26.03000 423.000
26.04500 408.000
26.06000 399.000
26.07500 413.000
26.09000 411.000
26.10500 443.000
26.12000 417.000
26.13500 456.000
26.15000 440.000
26.16500 464.000
26.18000 490.000
26.19500 497.000
26.21000 552.000
26.22500 592.000
26.24000 584.000
26.25500 636.000
26.27000 650.000
26.28500 676.000
26.30000 727.000
26.31500 821.000
26.33000 868.000
26.34500 900.000
26.36000 930.000
26.37500 1047.000
26.39000 1156.000
26.40500 1243.000
26.42000 1327.000
26.43500 1478.000
26.45000 1508.000
26.46500 1649.000
26.48000 1798.000
26.49500 1890.000
26.51000 2002.000
26.52500 2119.000
26.54000 2211.000
26.55500 2262.000
26.57000 2207.000
26.58500 2169.000
26.60000 2037.000
26.61500 1898.000
26.63000 1688.000
26.64500 1582.000
26.66000 1497.000
26.67500 1358.000
26.69000 1209.000
26.70500 1103.000
26.72000 1023.000
26.73500 970.000
26.75000 851.000
26.76500 834.000
26.78000 765.000
26.79500 705.000
26.81000 667.000
26.82500 675.000
26.84000 677.000
26.85500 614.000
26.87000 578.000
26.88500 601.000
26.90000 564.000
26.91500 518.000
26.93000 486.000
26.94500 469.000
26.96000 472.000
26.97500 481.000
26.99000 490.000
27.00500 445.000
27.02000 446.000
27.03500 462.000
27.05000 399.000
27.06500 402.000
27.08000 440.000
27.09500 426.000
27.11000 412.000
27.12500 374.000
27.14000 389.000
27.15500 390.000
27.17000 420.000
27.18500 366.000
27.20000 394.000
27.21500 398.000
27.23000 385.000
27.24500 366.000
27.26000 358.000
27.27500 415.000
27.29000 363.000
27.30500 374.000
27.32000 355.000
27.33500 354.000
27.35000 366.000
27.36500 334.000
27.38000 347.000
27.39500 367.000
27.41000 361.000
27.42500 361.000
27.44000 354.000
27.45500 368.000
27.47000 351.000
27.48500 355.000
27.50000 345.000
27.51500 306.000
27.53000 339.000
27.54500 335.000
27.56000 347.000
27.57500 349.000
27.59000 341.000
27.60500 327.000
27.62000 329.000
27.63500 361.000
27.65000 345.000
27.66500 317.000
27.68000 334.000
27.69500 339.000
27.71000 334.000
27.72500 345.000
27.74000 344.000
27.75500 340.000
27.77000 355.000
27.78500 342.000
27.80000 333.000
27.81500 327.000
27.83000 355.000
27.84500 334.000
27.86000 333.000
27.87500 326.000
27.89000 339.000
27.90500 313.000
27.92000 319.000
27.93500 290.000
27.95000 332.000
27.96500 322.000
27.98000 336.000
27.99500 330.000
28.01000 316.000
28.02500 297.000
28.04000 314.000
28.05500 325.000
28.07000 320.000
28.08500 334.000
28.10000 336.000
28.11500 318.000
28.13000 332.000
28.14500 298.000
28.16000 318.000
28.17500 315.000
28.19000 322.000
28.20500 355.000
28.22000 333.000
28.23500 329.000
28.25000 336.000
28.26500 339.000
28.28000 335.000
28.29500 342.000
28.31000 340.000
28.32500 346.000
28.34000 367.000
28.35500 309.000
28.37000 313.000
28.38500 339.000
28.40000 355.000
28.41500 336.000
28.43000 332.000
28.44500 349.000
28.46000 333.000
28.47500 360.000
28.49000 357.000
28.50500 363.000
28.52000 360.000
28.53500 368.000
28.55000 347.000
28.56500 347.000
28.58000 357.000
28.59500 367.000
28.61000 387.000
28.62500 374.000
28.64000 381.000
28.65500 369.000
28.67000 367.000
28.68500 424.000
28.70000 373.000
28.71500 410.000
28.73000 443.000
28.74500 426.000
28.76000 429.000
28.77500 482.000
28.79000 483.000
28.80500 460.000
28.82000 509.000
28.83500 489.000
28.85000 487.000
28.86500 526.000
28.88000 539.000
28.89500 556.000
28.91000 599.000
28.92500 650.000
28.94000 667.000
28.95500 679.000
28.97000 713.000
28.98500 752.000
29.00000 752.000
29.01500 836.000
29.03000 849.000
29.04500 932.000
29.06000 1046.000
29.07500 1028.000
29.09000 1122.000
29.10500 1182.000
29.12000 1234.000
29.13500 1380.000
29.15000 1402.000
29.16500 1509.000
29.18000 1592.000
29.19500 1672.000
29.21000 1716.000
29.22500 1729.000
29.24000 1849.000
29.25500 1800.000
29.27000 1809.000
29.28500 1765.000
29.30000 1714.000
29.31500 1621.000
29.33000 1534.000
29.34500 1486.000
29.36000 1407.000
29.37500 1239.000
29.39000 1146.000
29.40500 1081.000
29.42000 959.000
29.43500 922.000
29.45000 848.000
29.46500 776.000
29.48000 777.000
29.49500 778.000
29.51000 697.000
29.52500 669.000
29.54000 617.000
29.55500 607.000
29.57000 570.000
29.58500 544.000
29.60000 546.000
29.61500 522.000
29.63000 492.000
29.64500 484.000
29.66000 451.000
29.67500 455.000
29.69000 432.000
29.70500 434.000
29.72000 442.000
29.73500 447.000
29.75000 421.000
29.76500 389.000
29.78000 386.000
29.79500 379.000
29.81000 375.000
29.82500 369.000
29.84000 373.000
29.85500 331.000
29.87000 329.000
29.88500 363.000
29.90000 342.000
29.91500 320.000
29.93000 329.000
29.94500 337.000
29.96000 318.000
29.97500 318.000
29.99000 322.000
30.00500 341.000
30.02000 317.000
30.03500 328.000
30.05000 329.000
30.06500 312.000
30.08000 312.000
30.09500 302.000
30.11000 294.000
30.12500 308.000
30.14000 290.000
30.15500 300.000
30.17000 279.000
30.18500 314.000
30.20000 306.000
30.21500 301.000
30.23000 289.000
30.24500 301.000
30.26000 324.000
30.27500 292.000
30.29000 265.000
30.30500 272.000
30.32000 268.000
30.33500 290.000
30.35000 294.000
30.36500 282.000
30.38000 280.000
30.39500 288.000
30.41000 293.000
30.42500 286.000
30.44000 314.000
30.45500 329.000
30.47000 276.000
30.48500 272.000
30.50000 267.000
30.51500 284.000
30.53000 263.000
30.54500 260.000
30.56000 290.000
30.57500 289.000
30.59000 278.000
30.60500 257.000
30.62000 282.000
30.63500 278.000
30.65000 278.000
30.66500 264.000
30.68000 237.000
30.69500 263.000
30.71000 256.000
30.72500 266.000
30.74000 267.000
30.75500 270.000
30.77000 250.000
30.78500 260.000
30.80000 258.000
30.81500 267.000
30.83000 269.000
30.84500 273.000
30.86000 250.000
30.87500 262.000
30.89000 287.000
30.90500 279.000
30.92000 255.000
30.93500 255.000
30.95000 265.000
30.96500 259.000
30.98000 248.000
30.99500 272.000
31.01000 258.000
31.02500 238.000
31.04000 268.000
31.05500 297.000
31.07000 273.000
31.08500 259.000
31.10000 267.000
31.11500 262.000
31.13000 269.000
31.14500 260.000
31.16000 256.000
31.17500 241.000
31.19000 247.000
31.20500 245.000
31.22000 266.000
31.23500 261.000
31.25000 261.000
31.26500 253.000
31.28000 260.000
31.29500 274.000
31.31000 253.000
31.32500 245.000
31.34000 236.000
31.35500 256.000
31.37000 262.000
31.38500 281.000
31.40000 263.000
31.41500 244.000
31.43000 268.000
31.44500 251.000
31.46000 246.000
31.47500 252.000
31.49000 267.000
31.50500 265.000
31.52000 268.000
31.53500 249.000
31.55000 247.000
31.56500 260.000
31.58000 269.000
31.59500 275.000
31.61000 270.000
31.62500 264.000
31.64000 257.000
31.65500 270.000
31.67000 248.000
31.68500 267.000
31.70000 283.000
31.71500 272.000
31.73000 285.000
31.74500 270.000
31.76000 261.000
31.77500 258.000
31.79000 263.000
31.80500 231.000
31.82000 270.000
31.83500 265.000
31.85000 269.000
31.86500 300.000
31.88000 270.000
31.89500 286.000
31.91000 313.000
31.92500 289.000
31.94000 263.000
31.95500 300.000
31.97000 326.000
31.98500 312.000
32.00000 331.000
32.01500 330.000
32.03000 343.000
32.04500 379.000
32.06000 397.000
32.07500 414.000
32.09000 459.000
32.10500 459.000
32.12000 471.000
32.13500 496.000
32.15000 562.000
32.16500 557.000
32.18000 627.000
32.19500 669.000
32.21000 715.000
32.22500 718.000
32.24000 705.000
32.25500 746.000
32.27000 745.000
32.28500 693.000
32.30000 709.000
32.31500 729.000
32.33000 675.000
32.34500 663.000
32.36000 624.000
32.37500 578.000
32.39000 551.000
32.40500 535.000
32.42000 491.000
32.43500 457.000
32.45000 424.000
32.46500 421.000
32.48000 410.000
32.49500 391.000
32.51000 381.000
32.52500 380.000
32.54000 351.000
32.55500 330.000
32.57000 298.000
32.58500 290.000
32.60000 298.000
32.61500 318.000
32.63000 283.000
32.64500 300.000
32.66000 293.000
32.67500 273.000
32.69000 275.000
32.70500 264.000
32.72000 287.000
32.73500 268.000
32.75000 274.000
32.76500 259.000
32.78000 241.000
32.79500 248.000
32.81000 265.000
32.82500 280.000
32.84000 267.000
32.85500 236.000
32.87000 236.000
32.88500 248.000
32.90000 233.000
32.91500 265.000
32.93000 256.000
32.94500 264.000
32.96000 242.000
32.97500 236.000
32.99000 238.000
33.00500 225.000
33.02000 245.000
33.03500 256.000
33.05000 254.000
33.06500 237.000
33.08000 241.000
33.09500 259.000
33.11000 257.000
33.12500 251.000
33.14000 224.000
33.15500 228.000
33.17000 259.000
33.18500 247.000
33.20000 214.000
33.21500 252.000
33.23000 229.000
33.24500 208.000
33.26000 211.000
33.27500 222.000
33.29000 234.000
33.30500 227.000
33.32000 237.000
33.33500 244.000
33.35000 225.000
33.36500 219.000
33.38000 254.000
33.39500 234.000
33.41000 238.000
33.42500 227.000
33.44000 224.000
33.45500 223.000
33.47000 222.000
33.48500 213.000
33.50000 220.000
33.51500 242.000
33.53000 219.000
33.54500 224.000
33.56000 240.000
33.57500 243.000
33.59000 226.000
33.60500 208.000
33.62000 221.000
33.63500 222.000
33.65000 227.000
33.66500 247.000
33.68000 248.000
33.69500 243.000
33.71000 237.000
33.72500 239.000
33.74000 250.000
33.75500 244.000
33.77000 234.000
33.78500 247.000
33.80000 253.000
33.81500 231.000
33.83000 234.000
33.84500 236.000
33.86000 232.000
33.87500 251.000
33.89000 279.000
33.90500 270.000
33.92000 250.000
33.93500 258.000
33.95000 235.000
33.96500 266.000
33.98000 264.000
33.99500 252.000
34.01000 273.000
34.02500 297.000
34.04000 289.000
34.05500 257.000
34.07000 288.000
34.08500 282.000
34.10000 266.000
34.11500 254.000
34.13000 245.000
34.14500 248.000
34.16000 254.000
34.17500 264.000
34.19000 272.000
34.20500 268.000
34.22000 269.000
34.23500 250.000
34.25000 247.000
34.26500 254.000
34.28000 241.000
34.29500 227.000
34.31000 230.000
34.32500 240.000
34.34000 228.000
34.35500 223.000
34.37000 222.000
34.38500 250.000
34.40000 219.000
34.41500 202.000
34.43000 233.000
34.44500 233.000
34.46000 203.000
34.47500 220.000
34.49000 221.000
34.50500 204.000
34.52000 233.000
34.53500 221.000
34.55000 209.000
34.56500 215.000
34.58000 229.000
34.59500 233.000
34.61000 213.000
34.62500 198.000
34.64000 216.000
34.65500 220.000
34.67000 248.000
34.68500 232.000
34.70000 217.000
34.71500 219.000
34.73000 218.000
34.74500 228.000
34.76000 223.000
34.77500 223.000
34.79000 239.000
34.80500 259.000
34.82000 249.000
34.83500 232.000
34.85000 232.000
34.86500 244.000
34.88000 252.000
34.89500 244.000
34.91000 265.000
34.92500 260.000
34.94000 260.000
34.95500 255.000
34.97000 265.000
34.98500 276.000
35.00000 243.000
35.01500 237.000
35.03000 243.000
35.04500 273.000
35.06000 250.000
35.07500 252.000
35.09000 230.000
35.10500 223.000
35.12000 219.000
35.13500 230.000
35.15000 233.000
35.16500 242.000
35.18000 239.000
35.19500 232.000
35.21000 207.000
35.22500 226.000
35.24000 209.000
35.25500 224.000
35.27000 237.000
35.28500 207.000
35.30000 197.000
35.31500 213.000
35.33000 228.000
35.34500 207.000
35.36000 204.000
35.37500 187.000
35.39000 194.000
35.40500 213.000
35.42000 186.000
35.43500 194.000
35.45000 188.000
35.46500 196.000
35.48000 200.000
35.49500 207.000
35.51000 194.000
35.52500 209.000
35.54000 218.000
35.55500 195.000
35.57000 207.000
35.58500 215.000
35.60000 207.000
35.61500 194.000
35.63000 215.000
35.64500 205.000
35.66000 196.000
35.67500 187.000
35.69000 196.000
35.70500 202.000
35.72000 174.000
35.73500 204.000
35.75000 211.000
35.76500 217.000
35.78000 206.000
35.79500 210.000
35.81000 201.000
35.82500 201.000
35.84000 208.000
35.85500 203.000
35.87000 205.000
35.88500 221.000
35.90000 192.000
35.91500 194.000
35.93000 213.000
35.94500 203.000
35.96000 218.000
35.97500 208.000
35.99000 208.000
36.00500 216.000
36.02000 217.000
36.03500 227.000
36.05000 224.000
36.06500 247.000
36.08000 240.000
36.09500 242.000
36.11000 234.000
36.12500 227.000
36.14000 220.000
36.15500 254.000
36.17000 247.000
36.18500 254.000
36.20000 272.000
36.21500 238.000
36.23000 243.000
36.24500 265.000
36.26000 253.000
36.27500 233.000
36.29000 243.000
36.30500 245.000
36.32000 234.000
36.33500 242.000
36.35000 241.000
36.36500 243.000
36.38000 235.000
36.39500 234.000
36.41000 235.000
36.42500 226.000
36.44000 232.000
36.45500 232.000
36.47000 222.000
36.48500 199.000
36.50000 215.000
36.51500 207.000
36.53000 223.000
36.54500 208.000
36.56000 213.000
36.57500 212.000
36.59000 212.000
36.60500 221.000
36.62000 218.000
36.63500 197.000
36.65000 198.000
36.66500 210.000
36.68000 236.000
36.69500 228.000
36.71000 207.000
36.72500 198.000
36.74000 208.000
36.75500 204.000
36.77000 189.000
36.78500 222.000
36.80000 208.000
36.81500 210.000
36.83000 197.000
36.84500 208.000
36.86000 194.000
36.87500 187.000
36.89000 177.000
36.90500 185.000
36.92000 190.000
36.93500 180.000
36.95000 185.000
36.96500 191.000
36.98000 212.000
36.99500 208.000
37.01000 179.000
37.02500 186.000
37.04000 159.000
37.05500 154.000
37.07000 179.000
37.08500 199.000
37.10000 186.000
37.11500 185.000
37.13000 191.000
37.14500 172.000
37.16000 172.000
37.17500 174.000
37.19000 163.000
37.20500 166.000
37.22000 172.000
37.23500 154.000
37.25000 175.000
37.26500 159.000
37.28000 178.000
37.29500 175.000
37.31000 170.000
37.32500 165.000
37.34000 171.000
37.35500 173.000
37.37000 170.000
37.38500 156.000
37.40000 158.000
37.41500 151.000
37.43000 182.000
37.44500 174.000
37.46000 175.000
37.47500 185.000
37.49000 187.000
37.50500 164.000
37.52000 158.000
37.53500 167.000
37.55000 166.000
37.56500 173.000
37.58000 171.000
37.59500 173.000
37.61000 173.000
37.62500 160.000
37.64000 164.000
37.65500 158.000
37.67000 158.000
37.68500 166.000
37.70000 177.000
37.71500 187.000
37.73000 189.000
37.74500 176.000
37.76000 168.000
37.77500 170.000
37.79000 141.000
37.80500 157.000
37.82000 151.000
37.83500 147.000
37.85000 152.000
37.86500 144.000
37.88000 158.000
37.89500 154.000
37.91000 169.000
37.92500 154.000
37.94000 156.000
37.95500 177.000
37.97000 175.000
37.98500 162.000
38.00000 168.000
38.01500 153.000
38.03000 167.000
38.04500 177.000
38.06000 174.000
38.07500 145.000
38.09000 145.000
38.10500 153.000
38.12000 156.000
38.13500 170.000
38.15000 166.000
38.16500 182.000
38.18000 164.000
38.19500 170.000
38.21000 156.000
38.22500 144.000
38.24000 170.000
38.25500 172.000
38.27000 148.000
38.28500 151.000
38.30000 174.000
38.31500 167.000
38.33000 179.000
38.34500 170.000
38.36000 171.000
38.37500 164.000
38.39000 176.000
38.40500 159.000
38.42000 176.000
38.43500 168.000
38.45000 157.000
38.46500 138.000
38.48000 140.000
38.49500 160.000
38.51000 159.000
38.52500 162.000
38.54000 155.000
38.55500 150.000
38.57000 165.000
38.58500 150.000
38.60000 167.000
38.61500 174.000
38.63000 150.000
38.64500 156.000
38.66000 158.000
38.67500 193.000
38.69000 172.000
38.70500 162.000
38.72000 166.000
38.73500 160.000
38.75000 161.000
38.76500 177.000
38.78000 157.000
38.79500 157.000
38.81000 173.000
38.82500 158.000
38.84000 158.000
38.85500 153.000
38.87000 157.000
38.88500 131.000
38.90000 156.000
38.91500 160.000
38.93000 140.000
38.94500 162.000
38.96000 157.000
38.97500 168.000
38.99000 148.000
39.00500 136.000
39.02000 136.000
39.03500 165.000
39.05000 155.000
39.06500 164.000
39.08000 162.000
39.09500 157.000
39.11000 160.000
39.12500 161.000
39.14000 142.000
39.15500 142.000
39.17000 137.000
39.18500 149.000
39.20000 138.000
39.21500 152.000
39.23000 155.000
39.24500 139.000
39.26000 137.000
39.27500 136.000
39.29000 141.000
39.30500 151.000
39.32000 134.000
39.33500 156.000
39.35000 159.000
39.36500 138.000
39.38000 146.000
39.39500 179.000
39.41000 154.000
39.42500 167.000
39.44000 151.000
39.45500 137.000
39.47000 141.000
39.48500 141.000
39.50000 159.000
39.51500 160.000
39.53000 150.000
39.54500 160.000
39.56000 153.000
39.57500 146.000
39.59000 151.000
39.60500 152.000
39.62000 162.000
39.63500 157.000
39.65000 161.000
39.66500 155.000
39.68000 151.000
39.69500 154.000
39.71000 172.000
39.72500 156.000
39.74000 140.000
39.75500 138.000
39.77000 140.000
39.78500 145.000
39.80000 149.000
39.81500 150.000
39.83000 142.000
39.84500 146.000
39.86000 146.000
39.87500 148.000
39.89000 149.000
39.90500 155.000
39.92000 152.000
39.93500 170.000
39.95000 161.000
39.96500 165.000
39.98000 163.000
39.99500 151.000
40.01000 147.000
40.02500 148.000
40.04000 161.000
40.05500 146.000
40.07000 154.000
40.08500 145.000
40.10000 136.000
40.11500 152.000
40.13000 152.000
40.14500 144.000
40.16000 148.000
40.17500 161.000
40.19000 146.000
40.20500 155.000
40.22000 149.000
40.23500 149.000
40.25000 161.000
40.26500 154.000
40.28000 146.000
40.29500 160.000
40.31000 151.000
40.32500 156.000
40.34000 156.000
40.35500 170.000
40.37000 150.000
40.38500 157.000
40.40000 144.000
40.41500 148.000
40.43000 168.000
40.44500 173.000
40.46000 161.000
40.47500 162.000
40.49000 167.000
40.50500 154.000
40.52000 143.000
40.53500 143.000
40.55000 156.000
40.56500 140.000
40.58000 144.000
40.59500 147.000
40.61000 158.000
40.62500 160.000
40.64000 163.000
40.65500 148.000
40.67000 152.000
40.68500 136.000
40.70000 162.000
40.71500 133.000
40.73000 144.000
40.74500 160.000
40.76000 151.000
40.77500 165.000
40.79000 150.000
40.80500 134.000
40.82000 139.000
40.83500 154.000
40.85000 146.000
40.86500 159.000
40.88000 153.000
40.89500 153.000
40.91000 163.000
40.92500 147.000
40.94000 151.000
40.95500 156.000
40.97000 164.000
40.98500 156.000
41.00000 134.000
41.01500 142.000
41.03000 150.000
41.04500 154.000
41.06000 157.000
41.07500 166.000
41.09000 154.000
41.10500 158.000
41.12000 164.000
41.13500 129.000
41.15000 138.000
41.16500 150.000
41.18000 128.000
41.19500 149.000
41.21000 137.000
41.22500 132.000
41.24000 154.000
41.25500 169.000
41.27000 167.000
41.28500 153.000
41.30000 147.000
41.31500 138.000
41.33000 150.000
41.34500 162.000
41.36000 159.000
41.37500 142.000
41.39000 142.000
41.40500 143.000
41.42000 162.000
41.43500 148.000
41.45000 161.000
41.46500 152.000
41.48000 147.000
41.49500 149.000
41.51000 155.000
41.52500 154.000
41.54000 151.000
41.55500 135.000
41.57000 151.000
41.58500 138.000
41.60000 140.000
41.61500 173.000
41.63000 143.000
41.64500 158.000
41.66000 157.000
41.67500 127.000
41.69000 156.000
41.70500 145.000
41.72000 158.000
41.73500 183.000
41.75000 173.000
41.76500 162.000
41.78000 175.000
41.79500 144.000
41.81000 147.000
41.82500 149.000
41.84000 152.000
41.85500 172.000
41.87000 157.000
41.88500 149.000
41.90000 149.000
41.91500 147.000
41.93000 147.000
41.94500 154.000
41.96000 153.000
41.97500 154.000
41.99000 163.000
42.00500 162.000
42.02000 166.000
42.03500 179.000
42.05000 157.000
42.06500 153.000
42.08000 179.000
42.09500 169.000
42.11000 163.000
42.12500 171.000
42.14000 178.000
42.15500 176.000
42.17000 175.000
42.18500 179.000
42.20000 174.000
42.21500 182.000
42.23000 155.000
42.24500 162.000
42.26000 175.000
42.27500 178.000
42.29000 182.000
42.30500 191.000
42.32000 181.000
42.33500 184.000
42.35000 177.000
42.36500 172.000
42.38000 178.000
42.39500 196.000
42.41000 211.000
42.42500 200.000
42.44000 195.000
42.45500 193.000
42.47000 180.000
42.48500 181.000
42.50000 176.000
42.51500 185.000
42.53000 212.000
42.54500 225.000
42.56000 235.000
42.57500 240.000
42.59000 225.000
42.60500 252.000
42.62000 245.000
42.63500 237.000
42.65000 243.000
42.66500 279.000
42.68000 285.000
42.69500 250.000
42.71000 247.000
42.72500 252.000
42.74000 228.000
42.75500 216.000
42.77000 238.000
42.78500 246.000
42.80000 225.000
42.81500 202.000
42.83000 194.000
42.84500 204.000
42.86000 178.000
42.87500 154.000
42.89000 162.000
42.90500 183.000
42.92000 186.000
42.93500 175.000
42.95000 164.000
42.96500 179.000
42.98000 185.000
42.99500 190.000
43.01000 179.000
43.02500 166.000
43.04000 166.000
43.05500 168.000
43.07000 169.000
43.08500 175.000
43.10000 165.000
43.11500 147.000
43.13000 170.000
43.14500 144.000
43.16000 171.000
43.17500 172.000
43.19000 163.000
43.20500 157.000
43.22000 155.000
43.23500 154.000
43.25000 148.000
43.26500 165.000
43.28000 156.000
43.29500 160.000
43.31000 157.000
43.32500 158.000
43.34000 155.000
43.35500 163.000
43.37000 163.000
43.38500 159.000
43.40000 175.000
43.41500 159.000
43.43000 175.000
43.44500 168.000
43.46000 152.000
43.47500 167.000
43.49000 156.000
43.50500 164.000
43.52000 157.000
43.53500 133.000
43.55000 142.000
43.56500 163.000
43.58000 143.000
43.59500 158.000
43.61000 151.000
43.62500 164.000
43.64000 142.000
43.65500 167.000
43.67000 160.000
43.68500 156.000
43.70000 157.000
43.71500 154.000
43.73000 156.000
43.74500 144.000
43.76000 152.000
43.77500 164.000
43.79000 154.000
43.80500 159.000
43.82000 159.000
43.83500 161.000
43.85000 158.000
43.86500 155.000
43.88000 149.000
43.89500 150.000
43.91000 153.000
43.92500 149.000
43.94000 161.000
43.95500 159.000
43.97000 158.000
43.98500 166.000
44.00000 172.000
44.01500 156.000
44.03000 168.000
44.04500 154.000
44.06000 151.000
44.07500 141.000
44.09000 152.000
44.10500 161.000
44.12000 192.000
44.13500 160.000
44.15000 188.000
44.16500 191.000
44.18000 179.000
44.19500 185.000
44.21000 168.000
44.22500 175.000
44.24000 182.000
44.25500 187.000
44.27000 189.000
44.28500 208.000
44.30000 188.000
44.31500 197.000
44.33000 200.000
44.34500 224.000
44.36000 233.000
44.37500 225.000
44.39000 232.000
44.40500 234.000
44.42000 254.000
44.43500 260.000
44.45000 254.000
44.46500 287.000
44.48000 296.000
44.49500 277.000
44.51000 280.000
44.52500 295.000
44.54000 277.000
44.55500 295.000
44.57000 269.000
44.58500 271.000
44.60000 282.000
44.61500 281.000
44.63000 267.000
44.64500 256.000
44.66000 278.000
44.67500 269.000
44.69000 289.000
44.70500 257.000
44.72000 280.000
44.73500 290.000
44.75000 258.000
44.76500 260.000
44.78000 267.000
44.79500 266.000
44.81000 275.000
44.82500 248.000
44.84000 251.000
44.85500 254.000
44.87000 253.000
44.88500 253.000
44.90000 237.000
44.91500 233.000
44.93000 243.000
44.94500 250.000
44.96000 238.000
44.97500 230.000
44.99000 232.000
45.00500 230.000
45.02000 221.000
45.03500 190.000
45.05000 197.000
45.06500 206.000
45.08000 194.000
45.09500 187.000
45.11000 179.000
45.12500 168.000
45.14000 163.000
45.15500 176.000
45.17000 191.000
45.18500 168.000
45.20000 183.000
45.21500 169.000
45.23000 165.000
45.24500 176.000
45.26000 168.000
45.27500 158.000
45.29000 168.000
45.30500 177.000
45.32000 184.000
45.33500 195.000
45.35000 180.000
45.36500 169.000
45.38000 188.000
45.39500 172.000
45.41000 165.000
45.42500 157.000
45.44000 167.000
45.45500 172.000
45.47000 173.000
45.48500 195.000
45.50000 172.000
45.51500 193.000
45.53000 191.000
45.54500 171.000
45.56000 184.000
45.57500 188.000
45.59000 183.000
45.60500 190.000
45.62000 208.000
45.63500 209.000
45.65000 179.000
45.66500 185.000
45.68000 210.000
45.69500 209.000
45.71000 204.000
45.72500 187.000
45.74000 196.000
45.75500 193.000
45.77000 207.000
45.78500 223.000
45.80000 232.000
45.81500 221.000
45.83000 238.000
45.84500 229.000
45.86000 245.000
45.87500 204.000
45.89000 228.000
45.90500 260.000
45.92000 220.000
45.93500 205.000
45.95000 222.000
45.96500 232.000
45.98000 196.000
45.99500 201.000
46.01000 236.000
46.02500 217.000
46.04000 217.000
46.05500 211.000
46.07000 181.000
46.08500 198.000
46.10000 173.000
46.11500 198.000
46.13000 200.000
46.14500 190.000
46.16000 189.000
46.17500 183.000
46.19000 179.000
46.20500 191.000
46.22000 203.000
46.23500 173.000
46.25000 177.000
46.26500 191.000
46.28000 192.000
46.29500 177.000
46.31000 177.000
46.32500 170.000
46.34000 173.000
46.35500 208.000
46.37000 211.000
46.38500 209.000
46.40000 180.000
46.41500 189.000
46.43000 223.000
46.44500 220.000
46.46000 201.000
46.47500 207.000
46.49000 206.000
46.50500 222.000
46.52000 220.000
46.53500 223.000
46.55000 217.000
46.56500 236.000
46.58000 239.000
46.59500 236.000
46.61000 229.000
46.62500 226.000
46.64000 224.000
46.65500 227.000
46.67000 201.000
46.68500 212.000
46.70000 214.000
46.71500 203.000
46.73000 184.000
46.74500 187.000
46.76000 203.000
46.77500 184.000
46.79000 197.000
46.80500 182.000
46.82000 174.000
46.83500 189.000
46.85000 169.000
46.86500 166.000
46.88000 167.000
46.89500 163.000
46.91000 151.000
46.92500 150.000
46.94000 153.000
46.95500 175.000
46.97000 150.000
46.98500 155.000
47.00000 138.000
47.01500 163.000
47.03000 178.000
47.04500 166.000
47.06000 157.000
47.07500 152.000
47.09000 156.000
47.10500 147.000
47.12000 151.000
47.13500 151.000
47.15000 150.000
47.16500 156.000
47.18000 138.000
47.19500 131.000
47.21000 142.000
47.22500 150.000
47.24000 136.000
47.25500 153.000
47.27000 138.000
47.28500 136.000
47.30000 146.000
47.31500 144.000
47.33000 134.000
47.34500 135.000
47.36000 143.000
47.37500 125.000
47.39000 144.000
47.40500 142.000
47.42000 135.000
47.43500 130.000
47.45000 137.000
47.46500 131.000
47.48000 121.000
47.49500 133.000
47.51000 142.000
47.52500 127.000
47.54000 134.000
47.55500 129.000
47.57000 134.000
47.58500 152.000
47.60000 132.000
47.61500 146.000
47.63000 126.000
47.64500 127.000
47.66000 132.000
47.67500 145.000
47.69000 134.000
47.70500 142.000
47.72000 143.000
47.73500 134.000
47.75000 132.000
47.76500 137.000
47.78000 132.000
47.79500 141.000
47.81000 127.000
47.82500 150.000
47.84000 154.000
47.85500 138.000
47.87000 137.000
47.88500 137.000
47.90000 139.000
47.91500 128.000
47.93000 128.000
47.94500 144.000
47.96000 120.000
47.97500 116.000
47.99000 126.000
48.00500 120.000
48.02000 136.000
48.03500 128.000
48.05000 137.000
48.06500 142.000
48.08000 136.000
48.09500 119.000
48.11000 130.000
48.12500 147.000
48.14000 136.000
48.15500 139.000
48.17000 139.000
48.18500 126.000
48.20000 112.000
48.21500 124.000
48.23000 135.000
48.24500 126.000
48.26000 129.000
48.27500 116.000
48.29000 133.000
48.30500 130.000
48.32000 132.000
48.33500 117.000
48.35000 136.000
48.36500 145.000
48.38000 140.000
48.39500 143.000
48.41000 134.000
48.42500 124.000
48.44000 129.000
48.45500 132.000
48.47000 128.000
48.48500 139.000
48.50000 160.000
48.51500 125.000
48.53000 136.000
48.54500 124.000
48.56000 132.000
48.57500 129.000
48.59000 136.000
48.60500 143.000
48.62000 135.000
48.63500 120.000
48.65000 120.000
48.66500 123.000
48.68000 121.000
48.69500 142.000
48.71000 135.000
48.72500 141.000
48.74000 135.000
48.75500 129.000
48.77000 124.000
48.78500 131.000
48.80000 136.000
48.81500 134.000
48.83000 147.000
48.84500 138.000
48.86000 136.000
48.87500 137.000
48.89000 138.000
48.90500 144.000
48.92000 142.000
48.93500 142.000
48.95000 140.000
48.96500 123.000
48.98000 135.000
48.99500 141.000
49.01000 139.000
49.02500 140.000
49.04000 140.000
49.05500 130.000
49.07000 130.000
49.08500 130.000
49.10000 135.000
49.11500 119.000
49.13000 124.000
49.14500 136.000
49.16000 122.000
49.17500 124.000
49.19000 118.000
49.20500 139.000
49.22000 144.000
49.23500 140.000
49.25000 136.000
49.26500 135.000
49.28000 132.000
49.29500 126.000
49.31000 144.000
49.32500 133.000
49.34000 133.000
49.35500 123.000
49.37000 126.000
49.38500 138.000
49.40000 138.000
49.41500 146.000
49.43000 159.000
49.44500 157.000
49.46000 147.000
49.47500 159.000
49.49000 130.000
49.50500 146.000
49.52000 144.000
49.53500 151.000
49.55000 161.000
49.56500 159.000
49.58000 146.000
49.59500 159.000
49.61000 170.000
49.62500 178.000
49.64000 176.000
49.65500 167.000
49.67000 159.000
49.68500 166.000
49.70000 161.000
49.71500 177.000
49.73000 179.000
49.74500 174.000
49.76000 169.000
49.77500 153.000
49.79000 154.000
49.80500 168.000
49.82000 162.000
49.83500 161.000
49.85000 165.000
49.86500 144.000
49.88000 150.000
49.89500 159.000
49.91000 159.000
49.92500 151.000
49.94000 163.000
49.95500 150.000
49.97000 149.000
49.98500 154.000
50.00000 144.000
50.01500 128.000
50.03000 139.000
50.04500 152.000
50.06000 141.000
50.07500 139.000
50.09000 149.000
50.10500 140.000
50.12000 150.000
50.13500 151.000
50.15000 138.000
50.16500 136.000
50.18000 134.000
50.19500 137.000
50.21000 170.000
50.22500 153.000
50.24000 147.000
50.25500 152.000
50.27000 174.000
50.28500 163.000
50.30000 146.000
50.31500 168.000
50.33000 176.000
50.34500 169.000
50.36000 164.000
50.37500 151.000
50.39000 161.000
50.40500 147.000
50.42000 176.000
50.43500 193.000
50.45000 186.000
50.46500 177.000
50.48000 191.000
50.49500 199.000
50.51000 191.000
50.52500 201.000
50.54000 209.000
50.55500 209.000
50.57000 217.000
50.58500 220.000
50.60000 223.000
50.61500 226.000
50.63000 224.000
50.64500 248.000
50.66000 234.000
50.67500 234.000
50.69000 262.000
50.70500 240.000
50.72000 238.000
50.73500 278.000
50.75000 256.000
50.76500 256.000
50.78000 254.000
50.79500 312.000
50.81000 309.000
50.82500 282.000
50.84000 318.000
50.85500 324.000
50.87000 344.000
50.88500 349.000
50.90000 322.000
50.91500 336.000
50.93000 332.000
50.94500 349.000
50.96000 342.000
50.97500 339.000
50.99000 360.000
51.00500 327.000
51.02000 326.000
51.03500 327.000
51.05000 321.000
51.06500 326.000
51.08000 322.000
51.09500 280.000
51.11000 290.000
51.12500 287.000
51.14000 254.000
51.15500 261.000
51.17000 264.000
51.18500 270.000
51.20000 257.000
51.21500 225.000
51.23000 229.000
51.24500 219.000
51.26000 209.000
51.27500 215.000
51.29000 200.000
51.30500 209.000
51.32000 217.000
51.33500 209.000
51.35000 199.000
51.36500 187.000
51.38000 179.000
51.39500 196.000
51.41000 213.000
51.42500 212.000
51.44000 183.000
51.45500 177.000
51.47000 176.000
51.48500 189.000
51.50000 162.000
51.51500 155.000
51.53000 167.000
51.54500 165.000
51.56000 150.000
51.57500 145.000
51.59000 152.000
51.60500 151.000
51.62000 139.000
51.63500 157.000
51.65000 161.000
51.66500 152.000
51.68000 157.000
51.69500 156.000
51.71000 144.000
51.72500 144.000
51.74000 143.000
51.75500 151.000
51.77000 160.000
51.78500 139.000
51.80000 143.000
51.81500 142.000
51.83000 130.000
51.84500 145.000
51.86000 135.000
51.87500 141.000
51.89000 143.000
51.90500 126.000
51.92000 134.000
51.93500 146.000
51.95000 123.000
51.96500 141.000
51.98000 146.000
51.99500 154.000
52.01000 161.000
52.02500 137.000
52.04000 131.000
52.05500 129.000
52.07000 151.000
52.08500 128.000
52.10000 137.000
52.11500 130.000
52.13000 132.000
52.14500 144.000
52.16000 142.000
52.17500 129.000
52.19000 123.000
52.20500 145.000
52.22000 139.000
52.23500 143.000
52.25000 134.000
52.26500 137.000
52.28000 134.000
52.29500 145.000
52.31000 138.000
52.32500 131.000
52.34000 142.000
52.35500 163.000
52.37000 131.000
52.38500 140.000
52.40000 147.000
52.41500 149.000
52.43000 148.000
52.44500 136.000
52.46000 130.000
52.47500 140.000
52.49000 153.000
52.50500 161.000
52.52000 156.000
52.53500 143.000
52.55000 151.000
52.56500 153.000
52.58000 152.000
52.59500 160.000
52.61000 155.000
52.62500 160.000
52.64000 142.000
52.65500 153.000
52.67000 143.000
52.68500 141.000
52.70000 140.000
52.71500 137.000
52.73000 142.000
52.74500 138.000
52.76000 134.000
52.77500 143.000
52.79000 139.000
52.80500 124.000
52.82000 135.000
52.83500 130.000
52.85000 144.000
52.86500 141.000
52.88000 152.000
52.89500 145.000
52.91000 152.000
52.92500 120.000
52.94000 123.000
52.95500 141.000
52.97000 121.000
52.98500 132.000
53.00000 119.000
53.01500 139.000
53.03000 141.000
53.04500 135.000
53.06000 139.000
53.07500 117.000
53.09000 138.000
53.10500 128.000
53.12000 139.000
53.13500 139.000
53.15000 116.000
53.16500 103.000
53.18000 119.000
53.19500 120.000
53.21000 108.000
53.22500 125.000
53.24000 132.000
53.25500 113.000
53.27000 123.000
53.28500 127.000
53.30000 107.000
53.31500 134.000
53.33000 142.000
53.34500 114.000
53.36000 108.000
53.37500 112.000
53.39000 125.000
53.40500 136.000
53.42000 126.000
53.43500 137.000
53.45000 121.000
53.46500 136.000
53.48000 118.000
53.49500 130.000
53.51000 137.000
53.52500 141.000
53.54000 125.000
53.55500 129.000
53.57000 125.000
53.58500 139.000
53.60000 133.000
53.61500 143.000
53.63000 132.000
53.64500 119.000
53.66000 131.000
53.67500 146.000
53.69000 131.000
53.70500 125.000
53.72000 137.000
53.73500 155.000
53.75000 143.000
53.76500 136.000
53.78000 132.000
53.79500 136.000
53.81000 120.000
53.82500 131.000
53.84000 128.000
53.85500 128.000
53.87000 121.000
53.88500 135.000
53.90000 138.000
53.91500 144.000
53.93000 148.000
53.94500 134.000
53.96000 126.000
53.97500 132.000
53.99000 152.000
54.00500 139.000
54.02000 140.000
54.03500 136.000
54.05000 142.000
54.06500 159.000
54.08000 149.000
54.09500 144.000
54.11000 165.000
54.12500 153.000
54.14000 157.000
54.15500 168.000
54.17000 158.000
54.18500 160.000
54.20000 168.000
54.21500 176.000
54.23000 183.000
54.24500 191.000
54.26000 194.000
54.27500 200.000
54.29000 207.000
54.30500 225.000
54.32000 210.000
54.33500 223.000
54.35000 242.000
54.36500 235.000
54.38000 257.000
54.39500 274.000
54.41000 267.000
54.42500 289.000
54.44000 297.000
54.45500 277.000
54.47000 269.000
54.48500 307.000
54.50000 276.000
54.51500 311.000
54.53000 300.000
54.54500 305.000
54.56000 297.000
54.57500 308.000
54.59000 301.000
54.60500 292.000
54.62000 312.000
54.63500 318.000
54.65000 308.000
54.66500 286.000
54.68000 279.000
54.69500 304.000
54.71000 295.000
54.72500 295.000
54.74000 262.000
54.75500 272.000
54.77000 264.000
54.78500 240.000
54.80000 259.000
54.81500 230.000
54.83000 221.000
54.84500 191.000
54.86000 200.000
54.87500 211.000
54.89000 184.000
54.90500 186.000
54.92000 187.000
54.93500 209.000
54.95000 174.000
54.96500 173.000
54.98000 183.000
54.99500 163.000
55.01000 149.000
55.02500 156.000
55.04000 162.000
55.05500 154.000
55.07000 143.000
55.08500 143.000
55.10000 160.000
55.11500 152.000
55.13000 139.000
55.14500 138.000
55.16000 152.000
55.17500 145.000
55.19000 130.000
55.20500 160.000
55.22000 152.000
55.23500 138.000
55.25000 145.000
55.26500 131.000
55.28000 133.000
55.29500 136.000
55.31000 133.000
55.32500 148.000
55.34000 132.000
55.35500 141.000
55.37000 132.000
55.38500 128.000
55.40000 123.000
55.41500 137.000
55.43000 138.000
55.44500 146.000
55.46000 149.000
55.47500 128.000
55.49000 127.000
55.50500 123.000
55.52000 126.000
55.53500 125.000
55.55000 113.000
55.56500 126.000
55.58000 141.000
55.59500 137.000
55.61000 131.000
55.62500 114.000
55.64000 116.000
55.65500 118.000
55.67000 124.000
55.68500 120.000
55.70000 132.000
55.71500 110.000
55.73000 128.000
55.74500 129.000
55.76000 122.000
55.77500 125.000
55.79000 118.000
55.80500 124.000
55.82000 126.000
55.83500 138.000
55.85000 138.000
55.86500 131.000
55.88000 139.000
55.89500 143.000
55.91000 115.000
55.92500 115.000
55.94000 127.000
55.95500 142.000
55.97000 121.000
55.98500 120.000
56.00000 138.000
56.01500 130.000
56.03000 130.000
56.04500 131.000
56.06000 119.000
56.07500 125.000
56.09000 123.000
56.10500 125.000
56.12000 126.000
56.13500 126.000
56.15000 121.000
56.16500 126.000
56.18000 125.000
56.19500 122.000
56.21000 112.000
56.22500 133.000
56.24000 121.000
56.25500 127.000
56.27000 113.000
56.28500 118.000
56.30000 114.000
56.31500 127.000
56.33000 120.000
56.34500 114.000
56.36000 110.000
56.37500 119.000
56.39000 119.000
56.40500 132.000
56.42000 129.000
56.43500 126.000
56.45000 123.000
56.46500 117.000
56.48000 114.000
56.49500 118.000
56.51000 133.000
56.52500 122.000
56.54000 111.000
56.55500 110.000
56.57000 126.000
56.58500 139.000
56.60000 121.000
56.61500 106.000
56.63000 107.000
56.64500 126.000
56.66000 120.000
56.67500 114.000
56.69000 100.000
56.70500 107.000
56.72000 118.000
56.73500 99.000
56.75000 104.000
56.76500 112.000
56.78000 132.000
56.79500 132.000
56.81000 116.000
56.82500 110.000
56.84000 125.000
56.85500 112.000
56.87000 126.000
56.88500 133.000
56.90000 120.000
56.91500 118.000
56.93000 121.000
56.94500 123.000
56.96000 105.000
56.97500 118.000
56.99000 115.000
57.00500 132.000
57.02000 121.000
57.03500 108.000
57.05000 127.000
57.06500 132.000
57.08000 128.000
57.09500 117.000
57.11000 124.000
57.12500 129.000
57.14000 125.000
57.15500 123.000
57.17000 118.000
57.18500 117.000
57.20000 129.000
57.21500 125.000
57.23000 126.000
57.24500 133.000
57.26000 122.000
57.27500 110.000
57.29000 104.000
57.30500 121.000
57.32000 134.000
57.33500 129.000
57.35000 102.000
57.36500 128.000
57.38000 129.000
57.39500 117.000
57.41000 117.000
57.42500 141.000
57.44000 135.000
57.45500 128.000
57.47000 131.000
57.48500 139.000
57.50000 142.000
57.51500 126.000
57.53000 122.000
57.54500 118.000
57.56000 138.000
57.57500 138.000
57.59000 114.000
57.60500 126.000
57.62000 129.000
57.63500 134.000
57.65000 129.000
57.66500 137.000
57.68000 119.000
57.69500 122.000
57.71000 118.000
57.72500 112.000
57.74000 139.000
57.75500 124.000
57.77000 120.000
57.78500 114.000
57.80000 127.000
57.81500 136.000
57.83000 129.000
57.84500 135.000
57.86000 126.000
57.87500 123.000
57.89000 127.000
57.90500 112.000
57.92000 116.000
57.93500 116.000
57.95000 109.000
57.96500 112.000
57.98000 112.000
57.99500 126.000
58.01000 122.000
58.02500 120.000
58.04000 108.000
58.05500 110.000
58.07000 109.000
58.08500 128.000
58.10000 123.000
58.11500 110.000
58.13000 108.000
58.14500 128.000
58.16000 113.000
58.17500 115.000
58.19000 118.000
58.20500 119.000
58.22000 124.000
58.23500 117.000
58.25000 126.000
58.26500 113.000
58.28000 124.000
58.29500 138.000
58.31000 103.000
58.32500 118.000
58.34000 123.000
58.35500 116.000
58.37000 112.000
58.38500 111.000
58.40000 120.000
58.41500 118.000
58.43000 117.000
58.44500 111.000
58.46000 125.000
58.47500 129.000
58.49000 126.000
58.50500 102.000
58.52000 114.000
58.53500 120.000
58.55000 136.000
58.56500 139.000
58.58000 127.000
58.59500 118.000
58.61000 128.000
58.62500 135.000
58.64000 130.000
58.65500 137.000
58.67000 113.000
58.68500 126.000
58.70000 118.000
58.71500 117.000
58.73000 127.000
58.74500 121.000
58.76000 121.000
58.77500 128.000
58.79000 121.000
58.80500 114.000
58.82000 129.000
58.83500 111.000
58.85000 111.000
58.86500 124.000
58.88000 136.000
58.89500 128.000
58.91000 127.000
58.92500 119.000
58.94000 121.000
58.95500 122.000
58.97000 136.000
58.98500 132.000
59.00000 143.000
59.01500 151.000
59.03000 131.000
59.04500 132.000
59.06000 133.000
59.07500 135.000
59.09000 145.000
59.10500 132.000
59.12000 128.000
59.13500 144.000
59.15000 140.000
59.16500 155.000
59.18000 140.000
59.19500 140.000
59.21000 140.000
59.22500 141.000
59.24000 140.000
59.25500 159.000
59.27000 136.000
59.28500 150.000
59.30000 137.000
59.31500 132.000
59.33000 142.000
59.34500 136.000
59.36000 148.000
59.37500 115.000
59.39000 130.000
59.40500 144.000
59.42000 131.000
59.43500 129.000
59.45000 127.000
59.46500 134.000
59.48000 151.000
59.49500 136.000
59.51000 143.000
59.52500 132.000
59.54000 117.000
59.55500 130.000
59.57000 139.000
59.58500 138.000
59.60000 138.000
59.61500 135.000
59.63000 125.000
59.64500 114.000
59.66000 133.000
59.67500 128.000
59.69000 117.000
59.70500 123.000
59.72000 120.000
59.73500 125.000
59.75000 136.000
59.76500 144.000
59.78000 141.000
59.79500 130.000
59.81000 118.000
59.82500 125.000
59.84000 128.000
59.85500 142.000
59.87000 120.000
59.88500 140.000
59.90000 138.000
59.91500 138.000
59.93000 145.000
59.94500 148.000
59.96000 140.000
59.97500 141.000
59.99000 136.000
60.00500 118.000
60.02000 128.000
60.03500 115.000
60.05000 131.000
60.06500 140.000
60.08000 129.000
60.09500 142.000
60.11000 141.000
60.12500 130.000
60.14000 138.000
60.15500 150.000
60.17000 129.000
60.18500 128.000
60.20000 144.000
60.21500 142.000
60.23000 133.000
60.24500 127.000
60.26000 122.000
60.27500 141.000
60.29000 118.000
60.30500 112.000
60.32000 129.000
60.33500 124.000
60.35000 126.000
60.36500 119.000
60.38000 132.000
60.39500 116.000
60.41000 129.000
60.42500 134.000
60.44000 114.000
60.45500 108.000
60.47000 138.000
60.48500 139.000
60.50000 125.000
60.51500 133.000
60.53000 135.000
60.54500 126.000
60.56000 112.000
60.57500 128.000
60.59000 130.000
60.60500 128.000
60.62000 115.000
60.63500 138.000
60.65000 135.000
60.66500 132.000
60.68000 134.000
60.69500 123.000
60.71000 112.000
60.72500 125.000
60.74000 130.000
60.75500 115.000
60.77000 115.000
60.78500 119.000
60.80000 114.000
60.81500 116.000
60.83000 127.000
60.84500 132.000
60.86000 146.000
60.87500 142.000
60.89000 131.000
60.90500 125.000
60.92000 124.000
60.93500 133.000
60.95000 124.000
60.96500 126.000
60.98000 116.000
60.99500 122.000
61.01000 122.000
61.02500 119.000
61.04000 119.000
61.05500 130.000
61.07000 118.000
61.08500 124.000
61.10000 105.000
61.11500 106.000
61.13000 136.000
61.14500 136.000
61.16000 108.000
61.17500 116.000
61.19000 116.000
61.20500 125.000
61.22000 120.000
61.23500 130.000
61.25000 121.000
61.26500 127.000
61.28000 118.000
61.29500 108.000
61.31000 115.000
61.32500 123.000
61.34000 134.000
61.35500 136.000
61.37000 122.000
61.38500 120.000
61.40000 120.000
61.41500 135.000
61.43000 142.000
61.44500 132.000
61.46000 126.000
61.47500 138.000
61.49000 135.000
61.50500 136.000
61.52000 131.000
61.53500 120.000
61.55000 129.000
61.56500 114.000
61.58000 122.000
61.59500 130.000
61.61000 116.000
61.62500 106.000
61.64000 108.000
61.65500 123.000
61.67000 138.000
61.68500 140.000
61.70000 118.000
61.71500 128.000
61.73000 128.000
61.74500 125.000
61.76000 110.000
61.77500 102.000
61.79000 118.000
61.80500 114.000
61.82000 128.000
61.83500 116.000
61.85000 130.000
61.86500 113.000
61.88000 128.000
61.89500 127.000
61.91000 121.000
61.92500 105.000
61.94000 118.000
61.95500 119.000
61.97000 110.000
61.98500 111.000
