2.0 9.0
2.015 10.0
2.03 9.0
2.045 6.0
2.06 8.0
2.075 4.0
2.09 5.0
2.105 3.0
2.12 9.0
2.135 6.0
2.15 5.0
2.165 4.0
2.18 6.0
2.195 7.0
2.21 3.0
2.225 9.0
2.24 9.0
2.255 8.0
2.27 11.0
2.285 7.0
2.3 5.0
2.315 9.0
2.33 7.0
2.345 9.0
2.36 7.0
2.375 4.0
2.39 7.0
2.405 8.0
2.42 10.0
2.435 8.0
2.45 6.0
2.465 9.0
2.48 12.0
2.495 4.0
2.51 6.0
2.525 7.0
2.54 7.0
2.555 7.0
2.57 5.0
2.585 7.0
2.6 3.0
2.615 2.0
2.63 3.0
2.645 7.0
2.66 8.0
2.675 4.0
2.69 4.0
2.705 5.0
2.72 7.0
2.735 6.0
2.75 4.0
2.765 5.0
2.78 5.0
2.795 5.0
2.81 7.0
2.825 7.0
2.84 10.0
2.855 7.0
2.87 9.0
2.885 10.0
2.9 8.0
2.915 8.0
2.93 10.0
2.945 5.0
2.96 4.0
2.975 9.0
2.99 8.0
3.005 7.0
3.02 12.0
3.035 10.0
3.05 10.0
3.065 8.0
3.08 7.0
3.095 6.0
3.11 5.0
3.125 8.0
3.14 12.0
3.155 20.0
3.17 29.0
3.185 34.0
3.2 41.0
3.215 56.0
3.23 69.0
3.245 105.0
3.26 118.0
3.275 166.0
3.29 220.0
3.305 240.0
3.32 309.0
3.335 341.0
3.35 385.0
3.365 395.0
3.38 402.0
3.395 402.0
3.41 432.0
3.425 421.0
3.44 386.0
3.455 390.0
3.47 432.0
3.485 422.0
3.5 425.0
3.515 446.0
3.53 439.0
3.545 453.0
3.56 431.0
3.575 443.0
3.59 428.0
3.605 424.0
3.62 431.0
3.635 439.0
3.65 449.0
3.665 455.0
3.68 433.0
3.695 411.0
3.71 439.0
3.725 421.0
3.74 432.0
3.755 447.0
3.77 431.0
3.785 437.0
3.8 450.0
3.815 457.0
3.83 466.0
3.845 468.0
3.86 455.0
3.875 486.0
3.89 460.0
3.905 452.0
3.92 468.0
3.935 460.0
3.95 454.0
3.965 490.0
3.98 477.0
3.995 499.0
4.01 518.0
4.025 513.0
4.04 494.0
4.055 502.0
4.07 496.0
4.085 505.0
4.1 527.0
4.115 507.0
4.13 498.0
4.145 495.0
4.16 499.0
4.175 515.0
4.19 530.0
4.205 502.0
4.22 519.0
4.235 532.0
4.25 520.0
4.265 552.0
4.28 543.0
4.295 521.0
4.31 520.0
4.325 503.0
4.34 551.0
4.355 542.0
4.37 527.0
4.385 536.0
4.4 544.0
4.415 547.0
4.43 555.0
4.445 528.0
4.46 561.0
4.475 546.0
4.49 522.0
4.505 509.0
4.52 525.0
4.535 527.0
4.55 521.0
4.565 544.0
4.58 533.0
4.595 536.0
4.61 558.0
4.625 567.0
4.64 592.0
4.655 579.0
4.67 597.0
4.685 573.0
4.7 582.0
4.715 581.0
4.73 562.0
4.745 581.0
4.76 611.0
4.775 545.0
4.79 551.0
4.805 599.0
4.82 567.0
4.835 572.0
4.85 576.0
4.865 585.0
4.88 606.0
4.895 570.0
4.91 571.0
4.925 576.0
4.94 586.0
4.955 609.0
4.97 618.0
4.985 593.0
5.0 618.0
5.015 636.0
5.03 611.0
5.045 610.0
5.06 645.0
5.075 569.0
5.09 605.0
5.105 609.0
5.12 603.0
5.135 597.0
5.15 645.0
5.165 660.0
5.18 628.0
5.195 637.0
5.21 644.0
5.225 651.0
5.24 592.0
5.255 633.0
5.27 634.0
5.285 605.0
5.3 649.0
5.315 627.0
5.33 667.0
5.345 642.0
5.36 619.0
5.375 618.0
5.39 656.0
5.405 641.0
5.42 642.0
5.435 666.0
5.45 670.0
5.465 659.0
5.48 664.0
5.495 667.0
5.51 652.0
5.525 629.0
5.54 659.0
5.555 661.0
5.57 692.0
5.585 692.0
5.6 634.0
5.615 646.0
5.63 650.0
5.645 646.0
5.66 649.0
5.675 737.0
5.69 665.0
5.705 642.0
5.72 657.0
5.735 689.0
5.75 650.0
5.765 673.0
5.78 641.0
5.795 660.0
5.81 705.0
5.825 686.0
5.84 664.0
5.855 659.0
5.87 686.0
5.885 672.0
5.9 685.0
5.915 647.0
5.93 683.0
5.945 674.0
5.96 672.0
5.975 709.0
5.99 704.0
6.005 649.0
6.02 655.0
6.035 684.0
6.05 691.0
6.065 709.0
6.08 681.0
6.095 699.0
6.11 702.0
6.125 692.0
6.14 695.0
6.155 687.0
6.17 714.0
6.185 711.0
6.2 693.0
6.215 721.0
6.23 744.0
6.245 685.0
6.26 662.0
6.275 704.0
6.29 722.0
6.305 734.0
6.32 719.0
6.335 722.0
6.35 744.0
6.365 738.0
6.38 731.0
6.395 736.0
6.41 719.0
6.425 704.0
6.44 750.0
6.455 736.0
6.47 738.0
6.485 740.0
6.5 726.0
6.515 769.0
6.53 735.0
6.545 755.0
6.56 748.0
6.575 732.0
6.59 739.0
6.605 747.0
6.62 772.0
6.635 759.0
6.65 765.0
6.665 755.0
6.68 718.0
6.695 717.0
6.71 760.0
6.725 711.0
6.74 716.0
6.755 758.0
6.77 747.0
6.785 750.0
6.8 765.0
6.815 766.0
6.83 780.0
6.845 776.0
6.86 719.0
6.875 733.0
6.89 768.0
6.905 766.0
6.92 734.0
6.935 764.0
6.95 730.0
6.965 773.0
6.98 731.0
6.995 728.0
7.01 745.0
7.025 796.0
7.04 792.0
7.055 773.0
7.07 746.0
7.085 718.0
7.1 741.0
7.115 767.0
7.13 763.0
7.145 748.0
7.16 758.0
7.175 770.0
7.19 757.0
7.205 759.0
7.22 780.0
7.235 747.0
7.25 736.0
7.265 749.0
7.28 768.0
7.295 782.0
7.31 755.0
7.325 785.0
7.34 797.0
7.355 745.0
7.37 729.0
7.385 800.0
7.4 745.0
7.415 748.0
7.43 780.0
7.445 767.0
7.46 779.0
7.475 776.0
7.49 782.0
7.505 778.0
7.52 778.0
7.535 745.0
7.55 788.0
7.565 788.0
7.58 747.0
7.595 745.0
7.61 796.0
7.625 770.0
7.64 782.0
7.655 773.0
7.67 745.0
7.685 771.0
7.7 813.0
7.715 767.0
7.73 811.0
7.745 776.0
7.76 768.0
7.775 795.0
7.79 776.0
7.805 784.0
7.82 766.0
7.835 787.0
7.85 798.0
7.865 798.0
7.88 787.0
7.895 791.0
7.91 778.0
7.925 783.0
7.94 791.0
7.955 817.0
7.97 772.0
7.985 769.0
8.0 812.0
8.015 815.0
8.03 797.0
8.045 777.0
8.06 823.0
8.075 837.0
8.09 776.0
8.105 784.0
8.12 770.0
8.135 815.0
8.15 792.0
8.165 803.0
8.18 845.0
8.195 784.0
8.21 789.0
8.225 822.0
8.24 777.0
8.255 804.0
8.27 776.0
8.285 798.0
8.3 809.0
8.315 816.0
8.33 813.0
8.345 801.0
8.36 821.0
8.375 808.0
8.39 835.0
8.405 860.0
8.42 829.0
8.435 832.0
8.45 793.0
8.465 822.0
8.48 818.0
8.495 826.0
8.51 859.0
8.525 796.0
8.54 772.0
8.555 825.0
8.57 799.0
8.585 842.0
8.6 821.0
8.615 798.0
8.63 807.0
8.645 820.0
8.66 808.0
8.675 835.0
8.69 813.0
8.705 787.0
8.72 792.0
8.735 785.0
8.75 791.0
8.765 841.0
8.78 840.0
8.795 788.0
8.81 813.0
8.825 826.0
8.84 820.0
8.855 825.0
8.87 814.0
8.885 802.0
8.9 785.0
8.915 825.0
8.93 815.0
8.945 801.0
8.96 818.0
8.975 823.0
8.99 819.0
9.005 800.0
9.02 806.0
9.035 828.0
9.05 817.0
9.065 795.0
9.08 780.0
9.095 794.0
9.11 786.0
9.125 798.0
9.14 816.0
9.155 849.0
9.17 826.0
9.185 819.0
9.2 810.0
9.215 800.0
9.23 728.0
9.245 791.0
9.26 819.0
9.275 806.0
9.29 798.0
9.305 863.0
9.32 817.0
9.335 850.0
9.35 837.0
9.365 801.0
9.38 844.0
9.395 838.0
9.41 836.0
9.425 767.0
9.44 854.0
9.455 806.0
9.47 780.0
9.485 798.0
9.5 860.0
9.515 857.0
9.53 834.0
9.545 808.0
9.56 847.0
9.575 799.0
9.59 794.0
9.605 806.0
9.62 827.0
9.635 883.0
9.65 860.0
9.665 847.0
9.68 834.0
9.695 832.0
9.71 816.0
9.725 854.0
9.74 859.0
9.755 828.0
9.77 792.0
9.785 792.0
9.8 816.0
9.815 835.0
9.83 823.0
9.845 838.0
9.86 814.0
9.875 802.0
9.89 819.0
9.905 860.0
9.92 830.0
9.935 807.0
9.95 802.0
9.965 810.0
9.98 846.0
9.995 858.0
10.01 829.0
10.025 834.0
10.04 846.0
10.055 808.0
10.07 878.0
10.085 870.0
10.1 838.0
10.115 830.0
10.13 824.0
10.145 799.0
10.16 825.0
10.175 793.0
10.19 843.0
10.205 860.0
10.22 888.0
10.235 894.0
10.25 860.0
10.265 812.0
10.28 828.0
10.295 833.0
10.31 829.0
10.325 795.0
10.34 842.0
10.355 890.0
10.37 836.0
10.385 849.0
10.4 840.0
10.415 840.0
10.43 855.0
10.445 887.0
10.46 852.0
10.475 830.0
10.49 839.0
10.505 880.0
10.52 842.0
10.535 841.0
10.55 824.0
10.565 855.0
10.58 844.0
10.595 825.0
10.61 839.0
10.625 861.0
10.64 835.0
10.655 842.0
10.67 810.0
10.685 803.0
10.7 833.0
10.715 835.0
10.73 837.0
10.745 871.0
10.76 847.0
10.775 878.0
10.79 877.0
10.805 855.0
10.82 836.0
10.835 880.0
10.85 884.0
10.865 860.0
10.88 845.0
10.895 813.0
10.91 850.0
10.925 868.0
10.94 871.0
10.955 895.0
10.97 803.0
10.985 853.0
11.0 889.0
11.015 886.0
11.03 831.0
11.045 808.0
11.06 883.0
11.075 873.0
11.09 876.0
11.105 855.0
11.12 837.0
11.135 881.0
11.15 844.0
11.165 884.0
11.18 925.0
11.195 851.0
11.21 893.0
11.225 876.0
11.24 897.0
11.255 878.0
11.27 836.0
11.285 837.0
11.3 874.0
11.315 885.0
11.33 912.0
11.345 856.0
11.36 907.0
11.375 838.0
11.39 836.0
11.405 881.0
11.42 884.0
11.435 853.0
11.45 877.0
11.465 894.0
11.48 847.0
11.495 866.0
11.51 884.0
11.525 883.0
11.54 854.0
11.555 860.0
11.57 918.0
11.585 898.0
11.6 863.0
11.615 855.0
11.63 898.0
11.645 922.0
11.66 880.0
11.675 864.0
11.69 882.0
11.705 874.0
11.72 849.0
11.735 904.0
11.75 861.0
11.765 846.0
11.78 833.0
11.795 889.0
11.81 920.0
11.825 917.0
11.84 887.0
11.855 873.0
11.87 869.0
11.885 899.0
11.9 888.0
11.915 888.0
11.93 925.0
11.945 904.0
11.96 897.0
11.975 901.0
11.99 881.0
12.005 839.0
12.02 860.0
12.035 878.0
12.05 828.0
12.065 871.0
12.08 904.0
12.095 865.0
12.11 865.0
12.125 852.0
12.14 862.0
12.155 863.0
12.17 860.0
12.185 868.0
12.2 844.0
12.215 860.0
12.23 897.0
12.245 892.0
12.26 925.0
12.275 885.0
12.29 871.0
12.305 881.0
12.32 902.0
12.335 879.0
12.35 892.0
12.365 884.0
12.38 884.0
12.395 902.0
12.41 902.0
12.425 876.0
12.44 853.0
12.455 858.0
12.47 898.0
12.485 931.0
12.5 896.0
12.515 882.0
12.53 887.0
12.545 880.0
12.56 883.0
12.575 895.0
12.59 904.0
12.605 907.0
12.62 908.0
12.635 916.0
12.65 944.0
12.665 908.0
12.68 940.0
12.695 912.0
12.71 868.0
12.725 898.0
12.74 941.0
12.755 903.0
12.77 898.0
12.785 909.0
12.8 929.0
12.815 926.0
12.83 908.0
12.845 893.0
12.86 924.0
12.875 859.0
12.89 881.0
12.905 907.0
12.92 916.0
12.935 875.0
12.95 860.0
12.965 875.0
12.98 870.0
12.995 929.0
13.01 905.0
13.025 937.0
13.04 921.0
13.055 941.0
13.07 936.0
13.085 946.0
13.1 935.0
13.115 901.0
13.13 863.0
13.145 877.0
13.16 937.0
13.175 952.0
13.19 914.0
13.205 907.0
13.22 973.0
13.235 945.0
13.25 906.0
13.265 886.0
13.28 857.0
13.295 916.0
13.31 935.0
13.325 922.0
13.34 932.0
13.355 926.0
13.37 915.0
13.385 938.0
13.4 945.0
13.415 939.0
13.43 975.0
13.445 920.0
13.46 911.0
13.475 926.0
13.49 900.0
13.505 897.0
13.52 902.0
13.535 911.0
13.55 925.0
13.565 910.0
13.58 919.0
13.595 892.0
13.61 970.0
13.625 946.0
13.64 882.0
13.655 904.0
13.67 930.0
13.685 909.0
13.7 959.0
13.715 936.0
13.73 921.0
13.745 909.0
13.76 943.0
13.775 930.0
13.79 923.0
13.805 917.0
13.82 951.0
13.835 941.0
13.85 945.0
13.865 919.0
13.88 892.0
13.895 900.0
13.91 880.0
13.925 909.0
13.94 939.0
13.955 958.0
13.97 925.0
13.985 910.0
14.0 902.0
14.015 955.0
14.03 963.0
14.045 986.0
14.06 972.0
14.075 983.0
14.09 947.0
14.105 973.0
14.12 980.0
14.135 982.0
14.15 923.0
14.165 938.0
14.18 982.0
14.195 955.0
14.21 920.0
14.225 922.0
14.24 910.0
14.255 947.0
14.27 932.0
14.285 957.0
14.3 946.0
14.315 955.0
14.33 970.0
14.345 912.0
14.36 953.0
14.375 935.0
14.39 1012.0
14.405 942.0
14.42 946.0
14.435 877.0
14.45 895.0
14.465 916.0
14.48 933.0
14.495 997.0
14.51 962.0
14.525 950.0
14.54 982.0
14.555 957.0
14.57 967.0
14.585 954.0
14.6 939.0
14.615 913.0
14.63 933.0
14.645 925.0
14.66 950.0
14.675 966.0
14.69 954.0
14.705 988.0
14.72 950.0
14.735 934.0
14.75 928.0
14.765 936.0
14.78 956.0
14.795 973.0
14.81 947.0
14.825 951.0
14.84 980.0
14.855 956.0
14.87 921.0
14.885 949.0
14.9 916.0
14.915 954.0
14.93 921.0
14.945 937.0
14.96 931.0
14.975 938.0
14.99 1016.0
15.005 980.0
15.02 947.0
15.035 935.0
15.05 943.0
15.065 967.0
15.08 953.0
15.095 947.0
15.11 951.0
15.125 935.0
15.14 932.0
15.155 942.0
15.17 967.0
15.185 969.0
15.2 941.0
15.215 942.0
15.23 966.0
15.245 972.0
15.26 921.0
15.275 974.0
15.29 977.0
15.305 983.0
15.32 967.0
15.335 969.0
15.35 911.0
15.365 960.0
15.38 965.0
15.395 1002.0
15.41 993.0
15.425 940.0
15.44 932.0
15.455 943.0
15.47 956.0
15.485 914.0
15.5 957.0
15.515 924.0
15.53 981.0
15.545 908.0
15.56 983.0
15.575 966.0
15.59 960.0
15.605 995.0
15.62 979.0
15.635 976.0
15.65 1020.0
15.665 968.0
15.68 964.0
15.695 993.0
15.71 1026.0
15.725 971.0
15.74 932.0
15.755 929.0
15.77 897.0
15.785 966.0
15.8 986.0
15.815 970.0
15.83 942.0
15.845 956.0
15.86 920.0
15.875 952.0
15.89 929.0
15.905 957.0
15.92 1008.0
15.935 993.0
15.95 984.0
15.965 979.0
15.98 954.0
15.995 967.0
16.01 991.0
16.025 989.0
16.04 1032.0
16.055 1019.0
16.07 970.0
16.085 953.0
16.1 991.0
16.115 985.0
16.13 905.0
16.145 932.0
16.16 956.0
16.175 970.0
16.19 937.0
16.205 977.0
16.22 979.0
16.235 993.0
16.25 982.0
16.265 1001.0
16.28 937.0
16.295 942.0
16.31 967.0
16.325 1009.0
16.34 1037.0
16.355 982.0
16.37 1011.0
16.385 997.0
16.4 1003.0
16.415 952.0
16.43 963.0
16.445 940.0
16.46 1007.0
16.475 980.0
16.49 1005.0
16.505 1021.0
16.52 972.0
16.535 968.0
16.55 934.0
16.565 934.0
16.58 912.0
16.595 988.0
16.61 1006.0
16.625 961.0
16.64 950.0
16.655 995.0
16.67 979.0
16.685 941.0
16.7 950.0
16.715 990.0
16.73 1040.0
16.745 967.0
16.76 1012.0
16.775 969.0
16.79 930.0
16.805 987.0
16.82 990.0
16.835 1002.0
16.85 1023.0
16.865 987.0
16.88 927.0
16.895 997.0
16.91 987.0
16.925 990.0
16.94 978.0
16.955 976.0
16.97 1016.0
16.985 1017.0
17.0 992.0
17.015 978.0
17.03 1009.0
17.045 952.0
17.06 982.0
17.075 972.0
17.09 1008.0
17.105 985.0
17.12 980.0
17.135 1016.0
17.15 1003.0
17.165 935.0
17.18 970.0
17.195 974.0
17.21 1006.0
17.225 976.0
17.24 947.0
17.255 1001.0
17.27 985.0
17.285 1000.0
17.3 955.0
17.315 993.0
17.33 1010.0
17.345 1016.0
17.36 980.0
17.375 948.0
17.39 941.0
17.405 977.0
17.42 987.0
17.435 1004.0
17.45 1006.0
17.465 977.0
17.48 988.0
17.495 1027.0
17.51 1049.0
17.525 1049.0
17.54 988.0
17.555 1019.0
17.57 999.0
17.585 967.0
17.6 1000.0
17.615 973.0
17.63 1033.0
17.645 1012.0
17.66 1015.0
17.675 1021.0
17.69 1021.0
17.705 1023.0
17.72 966.0
17.735 988.0
17.75 1032.0
17.765 996.0
17.78 1008.0
17.795 1015.0
17.81 1033.0
17.825 1027.0
17.84 1041.0
17.855 1027.0
17.87 1025.0
17.885 974.0
17.9 1006.0
17.915 1005.0
17.93 974.0
17.945 977.0
17.96 987.0
17.975 999.0
17.99 999.0
18.005 1008.0
18.02 998.0
18.035 1014.0
18.05 1047.0
18.065 1032.0
18.08 999.0
18.095 1040.0
18.11 1022.0
18.125 1045.0
18.14 994.0
18.155 1039.0
18.17 1045.0
18.185 965.0
18.2 960.0
18.215 1018.0
18.23 1051.0
18.245 1036.0
18.26 1016.0
18.275 1023.0
18.29 1008.0
18.305 987.0
18.32 1026.0
18.335 1017.0
18.35 1016.0
18.365 1014.0
18.38 1015.0
18.395 1026.0
18.41 993.0
18.425 1011.0
18.44 1023.0
18.455 1049.0
18.47 1050.0
18.485 1057.0
18.5 999.0
18.515 1064.0
18.53 1058.0
18.545 1042.0
18.56 1038.0
18.575 1035.0
18.59 1029.0
18.605 1016.0
18.62 1033.0
18.635 1084.0
18.65 1051.0
18.665 1032.0
18.68 1022.0
18.695 982.0
18.71 997.0
18.725 1046.0
18.74 1038.0
18.755 1013.0
18.77 1014.0
18.785 1047.0
18.8 1060.0
18.815 1081.0
18.83 1062.0
18.845 1036.0
18.86 1030.0
18.875 1046.0
18.89 1023.0
18.905 1039.0
18.92 1014.0
18.935 972.0
18.95 1006.0
18.965 1006.0
18.98 1049.0
18.995 1010.0
19.01 1058.0
19.025 1059.0
19.04 1004.0
19.055 1056.0
19.07 1072.0
19.085 1079.0
19.1 1057.0
19.115 1051.0
19.13 996.0
19.145 982.0
19.16 1028.0
19.175 1043.0
19.19 1053.0
19.205 1019.0
19.22 1031.0
19.235 1090.0
19.25 1056.0
19.265 1044.0
19.28 1012.0
19.295 1027.0
19.31 1034.0
19.325 1054.0
19.34 1057.0
19.355 1088.0
19.37 1023.0
19.385 1025.0
19.4 983.0
19.415 1086.0
19.43 1057.0
19.445 1021.0
19.46 1067.0
19.475 1043.0
19.49 999.0
19.505 1017.0
19.52 1039.0
19.535 1078.0
19.55 1015.0
19.565 1037.0
19.58 1056.0
19.595 1055.0
19.61 1045.0
19.625 1069.0
19.64 1017.0
19.655 1035.0
19.67 1108.0
19.685 1049.0
19.7 1041.0
19.715 1063.0
19.73 1072.0
19.745 1041.0
19.76 997.0
19.775 1012.0
19.79 1081.0
19.805 1076.0
19.82 990.0
19.835 1043.0
19.85 981.0
19.865 1005.0
19.88 1040.0
19.895 1040.0
19.91 1059.0
19.925 1038.0
19.94 1067.0
19.955 1035.0
19.97 1023.0
19.985 1055.0
20.0 1036.0
20.015 1059.0
20.03 1045.0
20.045 1029.0
20.06 1071.0
20.075 1019.0
20.09 1059.0
20.105 1007.0
20.12 1048.0
20.135 1130.0
20.15 1088.0
20.165 1035.0
20.18 1048.0
20.195 1120.0
20.21 1070.0
20.225 1066.0
20.24 1095.0
20.255 1049.0
20.27 1086.0
20.285 1083.0
20.3 1008.0
20.315 1046.0
20.33 1047.0
20.345 1086.0
20.36 1050.0
20.375 1041.0
20.39 1026.0
20.405 1100.0
20.42 1075.0
20.435 1036.0
20.45 1009.0
20.465 1094.0
20.48 1040.0
20.495 1036.0
20.51 1045.0
20.525 1059.0
20.54 1041.0
20.555 1105.0
20.57 1070.0
20.585 1090.0
20.6 1108.0
20.615 1043.0
20.63 1077.0
20.645 1107.0
20.66 1058.0
20.675 1061.0
20.69 1038.0
20.705 1034.0
20.72 1030.0
20.735 1080.0
20.75 1078.0
20.765 1081.0
20.78 1061.0
20.795 1081.0
20.81 1054.0
20.825 1061.0
20.84 1095.0
20.855 1044.0
20.87 1038.0
20.885 1094.0
20.9 1049.0
20.915 1060.0
20.93 1081.0
20.945 1077.0
20.96 1066.0
20.975 1099.0
20.99 1145.0
21.005 1103.0
21.02 1099.0
21.035 1064.0
21.05 1035.0
21.065 1016.0
21.08 1058.0
21.095 1039.0
21.11 1022.0
21.125 1101.0
21.14 1058.0
21.155 1059.0
21.17 1062.0
21.185 1013.0
21.2 1095.0
21.215 1024.0
21.23 1053.0
21.245 1003.0
21.26 1074.0
21.275 1082.0
21.29 1058.0
21.305 1058.0
21.32 1106.0
21.335 1072.0
21.35 1104.0
21.365 1083.0
21.38 1055.0
21.395 1082.0
21.41 1113.0
21.425 1086.0
21.44 1065.0
21.455 1067.0
21.47 1044.0
21.485 1090.0
21.5 1067.0
21.515 1045.0
21.53 1003.0
21.545 1009.0
21.56 1091.0
21.575 1021.0
21.59 1083.0
21.605 1068.0
21.62 1066.0
21.635 1107.0
21.65 1054.0
21.665 1051.0
21.68 1064.0
21.695 1048.0
21.71 1101.0
21.725 1018.0
21.74 1090.0
21.755 1069.0
21.77 1051.0
21.785 1059.0
21.8 1056.0
21.815 1064.0
21.83 1077.0
21.845 1067.0
21.86 1013.0
21.875 1057.0
21.89 1085.0
21.905 1046.0
21.92 1040.0
21.935 1039.0
21.95 1081.0
21.965 1081.0
21.98 1039.0
21.995 1062.0
22.01 1117.0
22.025 1035.0
22.04 1056.0
22.055 1067.0
22.07 1093.0
22.085 1063.0
22.1 1063.0
22.115 1045.0
22.13 1049.0
22.145 1071.0
22.16 1072.0
22.175 1059.0
22.19 1059.0
22.205 1065.0
22.22 1101.0
22.235 1083.0
22.25 1069.0
22.265 1060.0
22.28 1078.0
22.295 1036.0
22.31 1039.0
22.325 1046.0
22.34 1058.0
22.355 1043.0
22.37 1055.0
22.385 1101.0
22.4 1126.0
22.415 1095.0
22.43 1076.0
22.445 1092.0
22.46 1066.0
22.475 1025.0
22.49 1039.0
22.505 1045.0
22.52 1084.0
22.535 1043.0
22.55 1041.0
22.565 1051.0
22.58 1078.0
22.595 1072.0
22.61 1080.0
22.625 1086.0
22.64 1084.0
22.655 1110.0
22.67 1046.0
22.685 1032.0
22.7 1026.0
22.715 1085.0
22.73 1057.0
22.745 1070.0
22.76 1038.0
22.775 1066.0
22.79 1064.0
22.805 1068.0
22.82 1039.0
22.835 1028.0
22.85 1040.0
22.865 1029.0
22.88 1057.0
22.895 1009.0
22.91 1074.0
22.925 1082.0
22.94 1081.0
22.955 1056.0
22.97 1068.0
22.985 1082.0
23.0 1032.0
23.015 1101.0
23.03 1050.0
23.045 1076.0
23.06 1024.0
23.075 1008.0
23.09 1030.0
23.105 1028.0
23.12 1062.0
23.135 1071.0
23.15 1049.0
23.165 1041.0
23.18 1046.0
23.195 1047.0
23.21 1038.0
23.225 1057.0
23.24 1021.0
23.255 989.0
23.27 1043.0
23.285 984.0
23.3 1071.0
23.315 1069.0
23.33 1019.0
23.345 989.0
23.36 1022.0
23.375 1014.0
23.39 1036.0
23.405 1063.0
23.42 1050.0
23.435 1054.0
23.45 1024.0
23.465 1061.0
23.48 1077.0
23.495 1078.0
23.51 1105.0
23.525 1082.0
23.54 1134.0
23.555 1063.0
23.57 1048.0
23.585 1053.0
23.6 1063.0
23.615 991.0
23.63 1018.0
23.645 1066.0
23.66 1084.0
23.675 1050.0
23.69 1058.0
23.705 1031.0
23.72 1031.0
23.735 1027.0
23.75 1074.0
23.765 1057.0
23.78 1048.0
23.795 1033.0
23.81 993.0
23.825 1021.0
23.84 1026.0
23.855 1030.0
23.87 1015.0
23.885 1057.0
23.9 1029.0
23.915 1024.0
23.93 1064.0
23.945 1005.0
23.96 1027.0
23.975 1011.0
23.99 1026.0
24.005 1035.0
24.02 1029.0
24.035 1055.0
24.05 1018.0
24.065 1006.0
24.08 1036.0
24.095 1067.0
24.11 1010.0
24.125 1034.0
24.14 959.0
24.155 1008.0
24.17 1022.0
24.185 992.0
24.2 1008.0
24.215 1028.0
24.23 1033.0
24.245 1033.0
24.26 1028.0
24.275 1047.0
24.29 1011.0
24.305 1013.0
24.32 1020.0
24.335 1044.0
24.35 1014.0
24.365 992.0
24.38 979.0
24.395 1014.0
24.41 1036.0
24.425 1044.0
24.44 1041.0
24.455 1012.0
24.47 966.0
24.485 1007.0
24.5 1000.0
24.515 1045.0
24.53 1032.0
24.545 1013.0
24.56 1037.0
24.575 1026.0
24.59 1023.0
24.605 991.0
24.62 952.0
24.635 994.0
24.65 1036.0
24.665 967.0
24.68 1005.0
24.695 993.0
24.71 980.0
24.725 1048.0
24.74 1013.0
24.755 983.0
24.77 1012.0
24.785 972.0
24.8 995.0
24.815 954.0
24.83 978.0
24.845 978.0
24.86 990.0
24.875 974.0
24.89 951.0
24.905 995.0
24.92 977.0
24.935 1013.0
24.95 999.0
24.965 957.0
24.98 986.0
24.995 997.0
25.01 978.0
25.025 1004.0
25.04 944.0
25.055 959.0
25.07 979.0
25.085 990.0
25.1 974.0
25.115 989.0
25.13 948.0
25.145 961.0
25.16 974.0
25.175 989.0
25.19 992.0
25.205 981.0
25.22 958.0
25.235 1021.0
25.25 976.0
25.265 937.0
25.28 967.0
25.295 1049.0
25.31 1016.0
25.325 1003.0
25.34 966.0
25.355 1031.0
25.37 1029.0
25.385 1000.0
25.4 990.0
25.415 946.0
25.43 966.0
25.445 975.0
25.46 972.0
25.475 1014.0
25.49 967.0
25.505 938.0
25.52 993.0
25.535 966.0
25.55 954.0
25.565 942.0
25.58 955.0
25.595 954.0
25.61 976.0
25.625 942.0
25.64 932.0
25.655 990.0
25.67 975.0
25.685 967.0
25.7 963.0
25.715 983.0
25.73 974.0
25.745 978.0
25.76 967.0
25.775 939.0
25.79 909.0
25.805 920.0
25.82 922.0
25.835 937.0
25.85 971.0
25.865 948.0
25.88 924.0
25.895 907.0
25.91 927.0
25.925 909.0
25.94 1009.0
25.955 966.0
25.97 978.0
25.985 913.0
26.0 934.0
26.015 967.0
26.03 944.0
26.045 952.0
26.06 940.0
26.075 952.0
26.09 918.0
26.105 955.0
26.12 936.0
26.135 931.0
26.15 918.0
26.165 954.0
26.18 944.0
26.195 920.0
26.21 909.0
26.225 929.0
26.24 967.0
26.255 907.0
26.27 946.0
26.285 916.0
26.3 928.0
26.315 905.0
26.33 946.0
26.345 951.0
26.36 936.0
26.375 934.0
26.39 954.0
26.405 896.0
26.42 913.0
26.435 902.0
26.45 922.0
26.465 903.0
26.48 944.0
26.495 960.0
26.51 908.0
26.525 931.0
26.54 977.0
26.555 906.0
26.57 907.0
26.585 935.0
26.6 954.0
26.615 954.0
26.63 909.0
26.645 896.0
26.66 890.0
26.675 880.0
26.69 895.0
26.705 880.0
26.72 921.0
26.735 964.0
26.75 932.0
26.765 885.0
26.78 895.0
26.795 906.0
26.81 888.0
26.825 920.0
26.84 917.0
26.855 882.0
26.87 877.0
26.885 915.0
26.9 903.0
26.915 879.0
26.93 915.0
26.945 921.0
26.96 936.0
26.975 908.0
26.99 873.0
27.005 908.0
27.02 866.0
27.035 885.0
27.05 849.0
27.065 830.0
27.08 857.0
27.095 858.0
27.11 831.0
27.125 861.0
27.14 857.0
27.155 886.0
27.17 888.0
27.185 881.0
27.2 899.0
27.215 925.0
27.23 879.0
27.245 897.0
27.26 875.0
27.275 880.0
27.29 898.0
27.305 904.0
27.32 864.0
27.335 844.0
27.35 860.0
27.365 848.0
27.38 835.0
27.395 843.0
27.41 817.0
27.425 861.0
27.44 890.0
27.455 837.0
27.47 844.0
27.485 840.0
27.5 873.0
27.515 868.0
27.53 889.0
27.545 856.0
27.56 846.0
27.575 831.0
27.59 842.0
27.605 846.0
27.62 824.0
27.635 842.0
27.65 864.0
27.665 928.0
27.68 880.0
27.695 834.0
27.71 851.0
27.725 871.0
27.74 832.0
27.755 844.0
27.77 815.0
27.785 864.0
27.8 876.0
27.815 828.0
27.83 780.0
27.845 849.0
27.86 864.0
27.875 839.0
27.89 834.0
27.905 870.0
27.92 885.0
27.935 865.0
27.95 821.0
27.965 852.0
27.98 839.0
27.995 844.0
28.01 854.0
28.025 849.0
28.04 814.0
28.055 857.0
28.07 851.0
28.085 804.0
28.1 807.0
28.115 819.0
28.13 807.0
28.145 790.0
28.16 791.0
28.175 854.0
28.19 808.0
28.205 830.0
28.22 837.0
28.235 817.0
28.25 801.0
28.265 837.0
28.28 822.0
28.295 832.0
28.31 816.0
28.325 844.0
28.34 857.0
28.355 859.0
28.37 814.0
28.385 802.0
28.4 856.0
28.415 844.0
28.43 827.0
28.445 782.0
28.46 793.0
28.475 802.0
28.49 822.0
28.505 811.0
28.52 840.0
28.535 806.0
28.55 804.0
28.565 784.0
28.58 820.0
28.595 814.0
28.61 808.0
28.625 780.0
28.64 773.0
28.655 812.0
28.67 812.0
28.685 836.0
28.7 807.0
28.715 795.0
28.73 824.0
28.745 784.0
28.76 748.0
28.775 808.0
28.79 773.0
28.805 791.0
28.82 771.0
28.835 810.0
28.85 827.0
28.865 774.0
28.88 782.0
28.895 792.0
28.91 797.0
28.925 781.0
28.94 771.0
28.955 771.0
28.97 767.0
28.985 796.0
29.0 792.0
29.015 818.0
29.03 816.0
29.045 806.0
29.06 793.0
29.075 796.0
29.09 802.0
29.105 806.0
29.12 814.0
29.135 816.0
29.15 822.0
29.165 779.0
29.18 802.0
29.195 826.0
29.21 770.0
29.225 788.0
29.24 764.0
29.255 771.0
29.27 757.0
29.285 780.0
29.3 820.0
29.315 771.0
29.33 763.0
29.345 782.0
29.36 787.0
29.375 798.0
29.39 808.0
29.405 809.0
29.42 804.0
29.435 790.0
29.45 745.0
29.465 773.0
29.48 789.0
29.495 827.0
29.51 808.0
29.525 800.0
29.54 798.0
29.555 748.0
29.57 757.0
29.585 777.0
29.6 791.0
29.615 780.0
29.63 749.0
29.645 760.0
29.66 783.0
29.675 823.0
29.69 788.0
29.705 798.0
29.72 809.0
29.735 763.0
29.75 766.0
29.765 782.0
29.78 769.0
29.795 753.0
29.81 746.0
29.825 788.0
29.84 766.0
29.855 767.0
29.87 773.0
29.885 755.0
29.9 725.0
29.915 758.0
29.93 760.0
29.945 699.0
29.96 695.0
29.975 743.0
29.99 733.0
30.005 745.0
30.02 725.0
30.035 732.0
30.05 751.0
30.065 738.0
30.08 707.0
30.095 756.0
30.11 758.0
30.125 756.0
30.14 741.0
30.155 740.0
30.17 768.0
30.185 757.0
30.2 725.0
30.215 722.0
30.23 780.0
30.245 758.0
30.26 754.0
30.275 738.0
30.29 729.0
30.305 769.0
30.32 743.0
30.335 700.0
30.35 735.0
30.365 717.0
30.38 740.0
30.395 747.0
30.41 718.0
30.425 723.0
30.44 713.0
30.455 747.0
30.47 730.0
30.485 701.0
30.5 704.0
30.515 728.0
30.53 766.0
30.545 750.0
30.56 717.0
30.575 725.0
30.59 719.0
30.605 702.0
30.62 708.0
30.635 747.0
30.65 737.0
30.665 677.0
30.68 711.0
30.695 750.0
30.71 758.0
30.725 709.0
30.74 724.0
30.755 725.0
30.77 717.0
30.785 724.0
30.8 677.0
30.815 695.0
30.83 700.0
30.845 694.0
30.86 725.0
30.875 710.0
30.89 691.0
30.905 745.0
30.92 720.0
30.935 709.0
30.95 757.0
30.965 719.0
30.98 712.0
30.995 711.0
31.01 724.0
31.025 702.0
31.04 710.0
31.055 715.0
31.07 707.0
31.085 757.0
31.1 738.0
31.115 701.0
31.13 651.0
31.145 677.0
31.16 706.0
31.175 667.0
31.19 699.0
31.205 712.0
31.22 696.0
31.235 719.0
31.25 680.0
31.265 690.0
31.28 703.0
31.295 681.0
31.31 674.0
31.325 682.0
31.34 690.0
31.355 669.0
31.37 727.0
31.385 688.0
31.4 675.0
31.415 656.0
31.43 695.0
31.445 699.0
31.46 707.0
31.475 715.0
31.49 671.0
31.505 655.0
31.52 648.0
31.535 687.0
31.55 677.0
31.565 660.0
31.58 683.0
31.595 661.0
31.61 696.0
31.625 676.0
31.64 632.0
31.655 663.0
31.67 690.0
31.685 668.0
31.7 655.0
31.715 658.0
31.73 645.0
31.745 670.0
31.76 658.0
31.775 671.0
31.79 640.0
31.805 638.0
31.82 681.0
31.835 686.0
31.85 703.0
31.865 649.0
31.88 638.0
31.895 662.0
31.91 619.0
31.925 633.0
31.94 664.0
31.955 640.0
31.97 666.0
31.985 670.0
32.0 678.0
32.015 653.0
32.03 644.0
32.045 670.0
32.06 636.0
32.075 654.0
32.09 672.0
32.105 672.0
32.12 643.0
32.135 592.0
32.15 685.0
32.165 657.0
32.18 619.0
32.195 634.0
32.21 654.0
32.225 647.0
32.24 654.0
32.255 651.0
32.27 656.0
32.285 656.0
32.3 612.0
32.315 650.0
32.33 599.0
32.345 593.0
32.36 613.0
32.375 633.0
32.39 632.0
32.405 589.0
32.42 656.0
32.435 647.0
32.45 604.0
32.465 633.0
32.48 608.0
32.495 638.0
32.51 665.0
32.525 620.0
32.54 635.0
32.555 639.0
32.57 606.0
32.585 661.0
32.6 628.0
32.615 609.0
32.63 607.0
32.645 628.0
32.66 583.0
32.675 589.0
32.69 617.0
32.705 599.0
32.72 605.0
32.735 609.0
32.75 621.0
32.765 651.0
32.78 606.0
32.795 592.0
32.81 612.0
32.825 609.0
32.84 589.0
32.855 625.0
32.87 590.0
32.885 601.0
32.9 603.0
32.915 602.0
32.93 623.0
32.945 597.0
32.96 609.0
32.975 618.0
32.99 650.0
33.005 622.0
33.02 598.0
33.035 615.0
33.05 595.0
33.065 581.0
33.08 563.0
33.095 602.0
33.11 608.0
33.125 591.0
33.14 616.0
33.155 629.0
33.17 624.0
33.185 609.0
33.2 591.0
33.215 569.0
33.23 602.0
33.245 596.0
33.26 607.0
33.275 608.0
33.29 536.0
33.305 567.0
33.32 622.0
33.335 616.0
33.35 587.0
33.365 597.0
33.38 619.0
33.395 621.0
33.41 600.0
33.425 543.0
33.44 583.0
33.455 593.0
33.47 589.0
33.485 579.0
33.5 567.0
33.515 539.0
33.53 573.0
33.545 569.0
33.56 564.0
33.575 585.0
33.59 565.0
33.605 595.0
33.62 589.0
33.635 546.0
33.65 550.0
33.665 592.0
33.68 571.0
33.695 543.0
33.71 586.0
33.725 591.0
33.74 552.0
33.755 568.0
33.77 520.0
33.785 535.0
33.8 547.0
33.815 577.0
33.83 577.0
33.845 568.0
33.86 550.0
33.875 555.0
33.89 566.0
33.905 561.0
33.92 543.0
33.935 551.0
33.95 542.0
33.965 617.0
33.98 552.0
33.995 567.0
34.01 592.0
34.025 569.0
34.04 579.0
34.055 553.0
34.07 569.0
34.085 575.0
34.1 558.0
34.115 551.0
34.13 539.0
34.145 522.0
34.16 525.0
34.175 544.0
34.19 572.0
34.205 543.0
34.22 539.0
34.235 546.0
34.25 544.0
34.265 538.0
34.28 551.0
34.295 531.0
34.31 533.0
34.325 545.0
34.34 570.0
34.355 557.0
34.37 520.0
34.385 537.0
34.4 535.0
34.415 509.0
34.43 495.0
34.445 524.0
34.46 534.0
34.475 521.0
34.49 515.0
34.505 529.0
34.52 527.0
34.535 535.0
34.55 513.0
34.565 539.0
34.58 557.0
34.595 562.0
34.61 542.0
34.625 529.0
34.64 509.0
34.655 527.0
34.67 550.0
34.685 511.0
34.7 515.0
34.715 513.0
34.73 510.0
34.745 534.0
34.76 530.0
34.775 529.0
34.79 534.0
34.805 496.0
34.82 509.0
34.835 497.0
34.85 539.0
34.865 508.0
34.88 504.0
34.895 490.0
34.91 515.0
34.925 500.0
34.94 530.0
34.955 509.0
34.97 501.0
34.985 509.0
35.0 515.0
35.015 508.0
35.03 538.0
35.045 514.0
35.06 540.0
35.075 503.0
35.09 490.0
35.105 513.0
35.12 493.0
35.135 511.0
35.15 486.0
35.165 502.0
35.18 487.0
35.195 494.0
35.21 481.0
35.225 509.0
35.24 495.0
35.255 495.0
35.27 472.0
35.285 493.0
35.3 509.0
35.315 495.0
35.33 468.0
35.345 458.0
35.36 493.0
35.375 512.0
35.39 508.0
35.405 479.0
35.42 501.0
35.435 499.0
35.45 490.0
35.465 487.0
35.48 459.0
35.495 511.0
35.51 513.0
35.525 501.0
35.54 506.0
35.555 501.0
35.57 469.0
35.585 467.0
35.6 504.0
35.615 482.0
35.63 468.0
35.645 472.0
35.66 465.0
35.675 484.0
35.69 493.0
35.705 509.0
35.72 484.0
35.735 519.0
35.75 484.0
35.765 469.0
35.78 479.0
35.795 471.0
35.81 485.0
35.825 484.0
35.84 487.0
35.855 444.0
35.87 446.0
35.885 451.0
35.9 444.0
35.915 455.0
35.93 478.0
35.945 466.0
35.96 500.0
35.975 488.0
35.99 455.0
36.005 470.0
36.02 483.0
36.035 456.0
36.05 441.0
36.065 475.0
36.08 461.0
36.095 466.0
36.11 474.0
36.125 473.0
36.14 460.0
36.155 469.0
36.17 421.0
36.185 429.0
36.2 449.0
36.215 455.0
36.23 471.0
36.245 451.0
36.26 444.0
36.275 459.0
36.29 480.0
36.305 465.0
36.32 435.0
36.335 447.0
36.35 452.0
36.365 450.0
36.38 443.0
36.395 423.0
36.41 445.0
36.425 460.0
36.44 451.0
36.455 476.0
36.47 457.0
36.485 437.0
36.5 452.0
36.515 464.0
36.53 426.0
36.545 447.0
36.56 471.0
36.575 460.0
36.59 444.0
36.605 471.0
36.62 468.0
36.635 455.0
36.65 463.0
36.665 465.0
36.68 448.0
36.695 452.0
36.71 445.0
36.725 458.0
36.74 457.0
36.755 456.0
36.77 455.0
36.785 434.0
36.8 460.0
36.815 458.0
36.83 449.0
36.845 418.0
36.86 438.0
36.875 453.0
36.89 443.0
36.905 426.0
36.92 447.0
36.935 439.0
36.95 428.0
36.965 427.0
36.98 429.0
36.995 484.0
37.01 456.0
37.025 463.0
37.04 441.0
37.055 451.0
37.07 416.0
37.085 438.0
37.1 450.0
37.115 426.0
37.13 398.0
37.145 408.0
37.16 421.0
37.175 427.0
37.19 444.0
37.205 450.0
37.22 436.0
37.235 430.0
37.25 412.0
37.265 420.0
37.28 409.0
37.295 434.0
37.31 437.0
37.325 451.0
37.34 448.0
37.355 423.0
37.37 394.0
37.385 440.0
37.4 436.0
37.415 417.0
37.43 440.0
37.445 423.0
37.46 430.0
37.475 409.0
37.49 400.0
37.505 426.0
37.52 411.0
37.535 442.0
37.55 409.0
37.565 404.0
37.58 396.0
37.595 422.0
37.61 402.0
37.625 416.0
37.64 396.0
37.655 407.0
37.67 422.0
37.685 438.0
37.7 419.0
37.715 401.0
37.73 425.0
37.745 434.0
37.76 412.0
37.775 418.0
37.79 396.0
37.805 394.0
37.82 403.0
37.835 427.0
37.85 439.0
37.865 411.0
37.88 415.0
37.895 418.0
37.91 390.0
37.925 417.0
37.94 425.0
37.955 432.0
37.97 429.0
37.985 397.0
38.0 428.0
38.015 420.0
38.03 423.0
38.045 430.0
38.06 450.0
38.075 391.0
38.09 417.0
38.105 388.0
38.12 405.0
38.135 407.0
38.15 420.0
38.165 407.0
38.18 409.0
38.195 406.0
38.21 419.0
38.225 423.0
38.24 427.0
38.255 403.0
38.27 390.0
38.285 403.0
38.3 405.0
38.315 396.0
38.33 375.0
38.345 396.0
38.36 409.0
38.375 413.0
38.39 455.0
38.405 418.0
38.42 374.0
38.435 408.0
38.45 420.0
38.465 418.0
38.48 393.0
38.495 385.0
38.51 409.0
38.525 416.0
38.54 403.0
38.555 386.0
38.57 415.0
38.585 427.0
38.6 407.0
38.615 402.0
38.63 396.0
38.645 416.0
38.66 391.0
38.675 405.0
38.69 419.0
38.705 420.0
38.72 403.0
38.735 430.0
38.75 428.0
38.765 417.0
38.78 412.0
38.795 403.0
38.81 403.0
38.825 409.0
38.84 410.0
38.855 441.0
38.87 379.0
38.885 375.0
38.9 408.0
38.915 378.0
38.93 398.0
38.945 405.0
38.96 408.0
38.975 390.0
38.99 400.0
39.005 381.0
39.02 390.0
39.035 398.0
39.05 363.0
39.065 379.0
39.08 374.0
39.095 364.0
39.11 379.0
39.125 381.0
39.14 421.0
39.155 417.0
39.17 415.0
39.185 428.0
39.2 398.0
39.215 398.0
39.23 376.0
39.245 364.0
39.26 388.0
39.275 409.0
39.29 417.0
39.305 417.0
39.32 403.0
39.335 404.0
39.35 386.0
39.365 394.0
39.38 402.0
39.395 406.0
39.41 413.0
39.425 382.0
39.44 391.0
39.455 404.0
39.47 415.0
39.485 406.0
39.5 369.0
39.515 396.0
39.53 387.0
39.545 393.0
39.56 389.0
39.575 372.0
39.59 387.0
39.605 380.0
39.62 396.0
39.635 430.0
39.65 397.0
39.665 382.0
39.68 428.0
39.695 386.0
39.71 411.0
39.725 388.0
39.74 377.0
39.755 372.0
39.77 372.0
39.785 389.0
39.8 364.0
39.815 386.0
39.83 395.0
39.845 400.0
39.86 416.0
39.875 372.0
39.89 371.0
39.905 381.0
39.92 372.0
39.935 378.0
39.95 384.0
39.965 385.0
39.98 383.0
39.995 364.0
40.01 373.0
40.025 396.0
40.04 392.0
40.055 361.0
40.07 378.0
40.085 386.0
40.1 371.0
40.115 390.0
40.13 380.0
40.145 362.0
40.16 363.0
40.175 409.0
40.19 398.0
40.205 395.0
40.22 411.0
40.235 381.0
40.25 385.0
40.265 364.0
40.28 400.0
40.295 361.0
40.31 345.0
40.325 384.0
40.34 391.0
40.355 392.0
40.37 358.0
40.385 392.0
40.4 387.0
40.415 390.0
40.43 392.0
40.445 382.0
40.46 398.0
40.475 390.0
40.49 396.0
40.505 384.0
40.52 396.0
40.535 384.0
40.55 361.0
40.565 394.0
40.58 352.0
40.595 361.0
40.61 412.0
40.625 382.0
40.64 390.0
40.655 362.0
40.67 362.0
40.685 368.0
40.7 366.0
40.715 411.0
40.73 363.0
40.745 354.0
40.76 357.0
40.775 369.0
40.79 400.0
40.805 385.0
40.82 393.0
40.835 371.0
40.85 357.0
40.865 382.0
40.88 349.0
40.895 382.0
40.91 382.0
40.925 373.0
40.94 350.0
40.955 360.0
40.97 396.0
40.985 401.0
41.0 396.0
41.015 396.0
41.03 380.0
41.045 356.0
41.06 375.0
41.075 363.0
41.09 360.0
41.105 339.0
41.12 360.0
41.135 364.0
41.15 395.0
41.165 355.0
41.18 366.0
41.195 409.0
41.21 366.0
41.225 395.0
41.24 377.0
41.255 376.0
41.27 348.0
41.285 351.0
41.3 355.0
41.315 364.0
41.33 362.0
41.345 362.0
41.36 362.0
41.375 354.0
41.39 366.0
41.405 376.0
41.42 362.0
41.435 358.0
41.45 380.0
41.465 377.0
41.48 359.0
41.495 353.0
41.51 364.0
41.525 382.0
41.54 412.0
41.555 364.0
41.57 371.0
41.585 377.0
41.6 368.0
41.615 349.0
41.63 380.0
41.645 383.0
41.66 378.0
41.675 391.0
41.69 390.0
41.705 358.0
41.72 379.0
41.735 404.0
41.75 361.0
41.765 356.0
41.78 359.0
41.795 370.0
41.81 384.0
41.825 398.0
41.84 354.0
41.855 372.0
41.87 360.0
41.885 374.0
41.9 364.0
41.915 370.0
41.93 402.0
41.945 359.0
41.96 357.0
41.975 354.0
41.99 384.0
42.005 370.0
42.02 375.0
42.035 356.0
42.05 341.0
42.065 343.0
42.08 378.0
42.095 374.0
42.11 347.0
42.125 368.0
42.14 377.0
42.155 384.0
42.17 353.0
42.185 354.0
42.2 373.0
42.215 374.0
42.23 381.0
42.245 394.0
42.26 387.0
42.275 352.0
42.29 366.0
42.305 373.0
42.32 375.0
42.335 381.0
42.35 366.0
42.365 327.0
42.38 343.0
42.395 318.0
42.41 339.0
42.425 360.0
42.44 393.0
42.455 341.0
42.47 310.0
42.485 373.0
42.5 359.0
42.515 354.0
42.53 330.0
42.545 326.0
42.56 345.0
42.575 351.0
42.59 332.0
42.605 347.0
42.62 382.0
42.635 341.0
42.65 350.0
42.665 366.0
42.68 378.0
42.695 365.0
42.71 370.0
42.725 335.0
42.74 368.0
42.755 378.0
42.77 354.0
42.785 357.0
42.8 350.0
42.815 381.0
42.83 334.0
42.845 341.0
42.86 332.0
42.875 353.0
42.89 373.0
42.905 355.0
42.92 360.0
42.935 357.0
42.95 346.0
42.965 360.0
42.98 361.0
42.995 400.0
43.01 362.0
43.025 374.0
43.04 369.0
43.055 360.0
43.07 357.0
43.085 351.0
43.1 349.0
43.115 355.0
43.13 357.0
43.145 354.0
43.16 332.0
43.175 320.0
43.19 358.0
43.205 341.0
43.22 348.0
43.235 353.0
43.25 349.0
43.265 350.0
43.28 373.0
43.295 361.0
43.31 361.0
43.325 375.0
43.34 365.0
43.355 360.0
43.37 357.0
43.385 374.0
43.4 364.0
43.415 367.0
43.43 384.0
43.445 382.0
43.46 352.0
43.475 341.0
43.49 340.0
43.505 326.0
43.52 348.0
43.535 360.0
43.55 348.0
43.565 331.0
43.58 369.0
43.595 373.0
43.61 367.0
43.625 361.0
43.64 333.0
43.655 327.0
43.67 333.0
43.685 367.0
43.7 356.0
43.715 357.0
43.73 349.0
43.745 354.0
43.76 344.0
43.775 356.0
43.79 343.0
43.805 315.0
43.82 353.0
43.835 353.0
43.85 370.0
43.865 350.0
43.88 327.0
43.895 376.0
43.91 352.0
43.925 351.0
43.94 353.0
43.955 345.0
43.97 328.0
43.985 365.0
44.0 341.0
44.015 360.0
44.03 366.0
44.045 357.0
44.06 350.0
44.075 363.0
44.09 327.0
44.105 343.0
44.12 362.0
44.135 386.0
44.15 350.0
44.165 344.0
44.18 370.0
44.195 336.0
44.21 352.0
44.225 354.0
44.24 347.0
44.255 360.0
44.27 382.0
44.285 365.0
44.3 339.0
44.315 343.0
44.33 348.0
44.345 361.0
44.36 336.0
44.375 347.0
44.39 357.0
44.405 332.0
44.42 339.0
44.435 331.0
44.45 336.0
44.465 314.0
44.48 310.0
44.495 366.0
44.51 353.0
44.525 339.0
44.54 351.0
44.555 353.0
44.57 372.0
44.585 347.0
44.6 352.0
44.615 326.0
44.63 348.0
44.645 361.0
44.66 383.0
44.675 355.0
44.69 330.0
44.705 351.0
44.72 342.0
44.735 362.0
44.75 344.0
44.765 346.0
44.78 347.0
44.795 338.0
44.81 358.0
44.825 354.0
44.84 323.0
44.855 343.0
44.87 354.0
44.885 337.0
44.9 346.0
44.915 329.0
44.93 332.0
44.945 354.0
44.96 343.0
44.975 339.0
44.99 340.0
45.005 343.0
45.02 340.0
45.035 343.0
45.05 318.0
45.065 345.0
45.08 338.0
45.095 322.0
45.11 335.0
45.125 329.0
45.14 352.0
45.155 373.0
45.17 363.0
45.185 353.0
45.2 330.0
45.215 328.0
45.23 327.0
45.245 314.0
45.26 337.0
45.275 342.0
45.29 339.0
45.305 347.0
45.32 350.0
45.335 303.0
45.35 348.0
45.365 335.0
45.38 328.0
45.395 349.0
45.41 315.0
45.425 333.0
45.44 343.0
45.455 334.0
45.47 345.0
45.485 341.0
45.5 351.0
45.515 336.0
45.53 355.0
45.545 340.0
45.56 333.0
45.575 324.0
45.59 356.0
45.605 346.0
45.62 335.0
45.635 334.0
45.65 337.0
45.665 353.0
45.68 337.0
45.695 334.0
45.71 339.0
45.725 349.0
45.74 338.0
45.755 330.0
45.77 348.0
45.785 346.0
45.8 320.0
45.815 324.0
45.83 317.0
45.845 323.0
45.86 321.0
45.875 335.0
45.89 330.0
45.905 319.0
45.92 320.0
45.935 341.0
45.95 346.0
45.965 341.0
45.98 320.0
45.995 312.0
46.01 358.0
46.025 335.0
46.04 320.0
46.055 322.0
46.07 327.0
46.085 347.0
46.1 327.0
46.115 328.0
46.13 354.0
46.145 329.0
46.16 334.0
46.175 345.0
46.19 347.0
46.205 310.0
46.22 327.0
46.235 332.0
46.25 336.0
46.265 355.0
46.28 357.0
46.295 328.0
46.31 315.0
46.325 330.0
46.34 351.0
46.355 344.0
46.37 320.0
46.385 321.0
46.4 343.0
46.415 313.0
46.43 333.0
46.445 324.0
46.46 317.0
46.475 312.0
46.49 332.0
46.505 353.0
46.52 325.0
46.535 324.0
46.55 323.0
46.565 316.0
46.58 319.0
46.595 327.0
46.61 332.0
46.625 328.0
46.64 326.0
46.655 336.0
46.67 305.0
46.685 320.0
46.7 329.0
46.715 324.0
46.73 324.0
46.745 334.0
46.76 331.0
46.775 330.0
46.79 319.0
46.805 307.0
46.82 291.0
46.835 296.0
46.85 327.0
46.865 328.0
46.88 297.0
46.895 324.0
46.91 318.0
46.925 303.0
46.94 326.0
46.955 318.0
46.97 316.0
46.985 314.0
47.0 335.0
47.015 337.0
47.03 294.0
47.045 311.0
47.06 317.0
47.075 346.0
47.09 326.0
47.105 321.0
47.12 346.0
47.135 328.0
47.15 295.0
47.165 306.0
47.18 331.0
47.195 326.0
47.21 321.0
47.225 343.0
47.24 315.0
47.255 308.0
47.27 317.0
47.285 307.0
47.3 316.0
47.315 331.0
47.33 318.0
47.345 308.0
47.36 309.0
47.375 328.0
47.39 335.0
47.405 327.0
47.42 326.0
47.435 299.0
47.45 303.0
47.465 316.0
47.48 327.0
47.495 318.0
47.51 336.0
47.525 331.0
47.54 329.0
47.555 314.0
47.57 321.0
47.585 312.0
47.6 297.0
47.615 313.0
47.63 315.0
47.645 314.0
47.66 333.0
47.675 333.0
47.69 329.0
47.705 336.0
47.72 317.0
47.735 328.0
47.75 283.0
47.765 311.0
47.78 329.0
47.795 333.0
47.81 348.0
47.825 326.0
47.84 301.0
47.855 320.0
47.87 320.0
47.885 298.0
47.9 288.0
47.915 309.0
47.93 315.0
47.945 294.0
47.96 290.0
47.975 301.0
47.99 309.0
48.005 312.0
48.02 291.0
48.035 299.0
48.05 282.0
48.065 304.0
48.08 318.0
48.095 309.0
48.11 308.0
48.125 307.0
48.14 317.0
48.155 323.0
48.17 319.0
48.185 320.0
48.2 291.0
48.215 329.0
48.23 319.0
48.245 329.0
48.26 305.0
48.275 290.0
48.29 301.0
48.305 315.0
48.32 309.0
48.335 276.0
48.35 303.0
48.365 318.0
48.38 310.0
48.395 295.0
48.41 321.0
48.425 341.0
48.44 297.0
48.455 300.0
48.47 308.0
48.485 324.0
48.5 302.0
48.515 302.0
48.53 322.0
48.545 326.0
48.56 307.0
48.575 310.0
48.59 307.0
48.605 304.0
48.62 298.0
48.635 324.0
48.65 293.0
48.665 291.0
48.68 297.0
48.695 298.0
48.71 298.0
48.725 300.0
48.74 321.0
48.755 304.0
48.77 284.0
48.785 298.0
48.8 305.0
48.815 307.0
48.83 312.0
48.845 284.0
48.86 294.0
48.875 313.0
48.89 302.0
48.905 292.0
48.92 296.0
48.935 323.0
48.95 320.0
48.965 293.0
48.98 298.0
48.995 343.0
49.01 321.0
49.025 304.0
49.04 315.0
49.055 309.0
49.07 291.0
49.085 295.0
49.1 291.0
49.115 265.0
49.13 308.0
49.145 287.0
49.16 276.0
49.175 310.0
49.19 308.0
49.205 296.0
49.22 317.0
49.235 324.0
49.25 314.0
49.265 293.0
49.28 300.0
49.295 302.0
49.31 308.0
49.325 296.0
49.34 294.0
49.355 307.0
49.37 286.0
49.385 301.0
49.4 303.0
49.415 280.0
49.43 304.0
49.445 319.0
49.46 303.0
49.475 312.0
49.49 287.0
49.505 298.0
49.52 298.0
49.535 312.0
49.55 290.0
49.565 287.0
49.58 287.0
49.595 288.0
49.61 292.0
49.625 300.0
49.64 297.0
49.655 274.0
49.67 278.0
49.685 280.0
49.7 268.0
49.715 290.0
49.73 305.0
49.745 295.0
49.76 312.0
49.775 282.0
49.79 291.0
49.805 307.0
49.82 325.0
49.835 300.0
49.85 285.0
49.865 278.0
49.88 308.0
49.895 299.0
49.91 292.0
49.925 293.0
49.94 276.0
49.955 278.0
49.97 300.0
49.985 275.0
50.0 302.0
50.015 297.0
50.03 260.0
50.045 286.0
50.06 293.0
50.075 299.0
50.09 299.0
50.105 271.0
50.12 253.0
50.135 272.0
50.15 278.0
50.165 299.0
50.18 312.0
50.195 303.0
50.21 250.0
50.225 280.0
50.24 310.0
50.255 304.0
50.27 284.0
50.285 266.0
50.3 286.0
50.315 285.0
50.33 284.0
50.345 284.0
50.36 276.0
50.375 260.0
50.39 286.0
50.405 290.0
50.42 277.0
50.435 310.0
50.45 284.0
50.465 295.0
50.48 275.0
50.495 295.0
50.51 275.0
50.525 292.0
50.54 259.0
50.555 314.0
50.57 278.0
50.585 278.0
50.6 292.0
50.615 268.0
50.63 290.0
50.645 279.0
50.66 292.0
50.675 295.0
50.69 291.0
50.705 292.0
50.72 279.0
50.735 267.0
50.75 261.0
50.765 298.0
50.78 299.0
50.795 300.0
50.81 292.0
50.825 294.0
50.84 293.0
50.855 293.0
50.87 267.0
50.885 277.0
50.9 277.0
50.915 281.0
50.93 294.0
50.945 271.0
50.96 294.0
50.975 277.0
50.99 270.0
51.005 283.0
51.02 274.0
51.035 278.0
51.05 266.0
51.065 271.0
51.08 263.0
51.095 266.0
51.11 261.0
51.125 267.0
51.14 264.0
51.155 276.0
51.17 284.0
51.185 280.0
51.2 292.0
51.215 277.0
51.23 286.0
51.245 277.0
51.26 305.0
51.275 298.0
51.29 262.0
51.305 270.0
51.32 279.0
51.335 263.0
51.35 287.0
51.365 288.0
51.38 274.0
51.395 287.0
51.41 256.0
51.425 281.0
51.44 262.0
51.455 255.0
51.47 261.0
51.485 279.0
51.5 278.0
51.515 272.0
51.53 262.0
51.545 249.0
51.56 276.0
51.575 280.0
51.59 266.0
51.605 257.0
51.62 270.0
51.635 300.0
51.65 281.0
51.665 273.0
51.68 286.0
51.695 283.0
51.71 282.0
51.725 294.0
51.74 271.0
51.755 296.0
51.77 296.0
51.785 274.0
51.8 268.0
51.815 266.0
51.83 306.0
51.845 293.0
51.86 263.0
51.875 245.0
51.89 267.0
51.905 279.0
51.92 291.0
51.935 271.0
51.95 280.0
51.965 255.0
51.98 274.0
51.995 294.0
52.01 269.0
52.025 263.0
52.04 256.0
52.055 282.0
52.07 282.0
52.085 279.0
52.1 277.0
52.115 278.0
52.13 263.0
52.145 272.0
52.16 267.0
52.175 265.0
52.19 258.0
52.205 277.0
52.22 281.0
52.235 256.0
52.25 257.0
52.265 251.0
52.28 288.0
52.295 264.0
52.31 273.0
52.325 268.0
52.34 265.0
52.355 263.0
52.37 288.0
52.385 289.0
52.4 271.0
52.415 286.0
52.43 253.0
52.445 280.0
52.46 285.0
52.475 278.0
52.49 276.0
52.505 259.0
52.52 276.0
52.535 297.0
52.55 289.0
52.565 270.0
52.58 285.0
52.595 259.0
52.61 266.0
52.625 283.0
52.64 303.0
52.655 267.0
52.67 279.0
52.685 240.0
52.7 258.0
52.715 276.0
52.73 255.0
52.745 286.0
52.76 258.0
52.775 272.0
52.79 295.0
52.805 262.0
52.82 275.0
52.835 291.0
52.85 249.0
52.865 246.0
52.88 244.0
52.895 249.0
52.91 273.0
52.925 257.0
52.94 263.0
52.955 293.0
52.97 256.0
52.985 264.0
53.0 267.0
53.015 275.0
53.03 301.0
53.045 288.0
53.06 297.0
53.075 257.0
53.09 274.0
53.105 269.0
53.12 236.0
53.135 292.0
53.15 262.0
53.165 264.0
53.18 282.0
53.195 295.0
53.21 295.0
53.225 289.0
53.24 267.0
53.255 255.0
53.27 268.0
53.285 282.0
53.3 266.0
53.315 270.0
53.33 247.0
53.345 255.0
53.36 266.0
53.375 244.0
53.39 259.0
53.405 278.0
53.42 283.0
53.435 260.0
53.45 264.0
53.465 279.0
53.48 275.0
53.495 280.0
53.51 269.0
53.525 256.0
53.54 274.0
53.555 283.0
53.57 283.0
53.585 269.0
53.6 251.0
53.615 273.0
53.63 265.0
53.645 265.0
53.66 280.0
53.675 252.0
53.69 262.0
53.705 247.0
53.72 271.0
53.735 287.0
53.75 273.0
53.765 261.0
53.78 278.0
53.795 276.0
53.81 272.0
53.825 260.0
53.84 277.0
53.855 284.0
53.87 245.0
53.885 249.0
53.9 262.0
53.915 257.0
53.93 272.0
53.945 257.0
53.96 269.0
53.975 274.0
53.99 261.0
54.005 263.0
54.02 269.0
54.035 270.0
54.05 271.0
54.065 262.0
54.08 248.0
54.095 263.0
54.11 280.0
54.125 249.0
54.14 246.0
54.155 283.0
54.17 264.0
54.185 252.0
54.2 270.0
54.215 281.0
54.23 259.0
54.245 244.0
54.26 270.0
54.275 267.0
54.29 257.0
54.305 269.0
54.32 249.0
54.335 247.0
54.35 246.0
54.365 245.0
54.38 269.0
54.395 258.0
54.41 258.0
54.425 256.0
54.44 258.0
54.455 256.0
54.47 257.0
54.485 246.0
54.5 249.0
54.515 242.0
54.53 259.0
54.545 262.0
54.56 261.0
54.575 234.0
54.59 250.0
54.605 268.0
54.62 273.0
54.635 273.0
54.65 261.0
54.665 277.0
54.68 278.0
54.695 249.0
54.71 272.0
54.725 261.0
54.74 260.0
54.755 247.0
54.77 257.0
54.785 272.0
54.8 251.0
54.815 252.0
54.83 245.0
54.845 243.0
54.86 238.0
54.875 266.0
54.89 270.0
54.905 265.0
54.92 243.0
54.935 262.0
54.95 248.0
54.965 274.0
54.98 259.0
54.995 234.0
55.01 246.0
55.025 281.0
55.04 284.0
55.055 234.0
55.07 249.0
55.085 245.0
55.1 269.0
55.115 258.0
55.13 259.0
55.145 257.0
55.16 249.0
55.175 260.0
55.19 235.0
55.205 257.0
55.22 257.0
55.235 252.0
55.25 251.0
55.265 267.0
55.28 257.0
55.295 280.0
55.31 280.0
55.325 280.0
55.34 281.0
55.355 273.0
55.37 240.0
55.385 228.0
55.4 252.0
55.415 263.0
55.43 267.0
55.445 285.0
55.46 246.0
55.475 250.0
55.49 246.0
55.505 271.0
55.52 253.0
55.535 262.0
55.55 275.0
55.565 259.0
55.58 258.0
55.595 273.0
55.61 263.0
55.625 265.0
55.64 243.0
55.655 254.0
55.67 246.0
55.685 242.0
55.7 242.0
55.715 260.0
55.73 275.0
55.745 269.0
55.76 263.0
55.775 262.0
55.79 277.0
55.805 281.0
55.82 240.0
55.835 242.0
55.85 251.0
55.865 238.0
55.88 233.0
55.895 254.0
55.91 242.0
55.925 274.0
55.94 269.0
55.955 267.0
55.97 251.0
55.985 268.0
56.0 251.0
56.015 264.0
56.03 276.0
56.045 261.0
56.06 251.0
56.075 250.0
56.09 256.0
56.105 261.0
56.12 241.0
56.135 274.0
56.15 255.0
56.165 281.0
56.18 245.0
56.195 275.0
56.21 258.0
56.225 266.0
56.24 235.0
56.255 248.0
56.27 241.0
56.285 273.0
56.3 267.0
56.315 245.0
56.33 261.0
56.345 261.0
56.36 258.0
56.375 254.0
56.39 288.0
56.405 275.0
56.42 263.0
56.435 233.0
56.45 227.0
56.465 245.0
56.48 264.0
56.495 286.0
56.51 246.0
56.525 238.0
56.54 252.0
56.555 275.0
56.57 263.0
56.585 242.0
56.6 272.0
56.615 271.0
56.63 275.0
56.645 274.0
56.66 279.0
56.675 242.0
56.69 256.0
56.705 267.0
56.72 257.0
56.735 264.0
56.75 277.0
56.765 261.0
56.78 237.0
56.795 271.0
56.81 272.0
56.825 243.0
56.84 240.0
56.855 251.0
56.87 271.0
56.885 269.0
56.9 246.0
56.915 240.0
56.93 241.0
56.945 253.0
56.96 241.0
56.975 218.0
56.99 249.0
57.005 256.0
57.02 268.0
57.035 252.0
57.05 258.0
57.065 232.0
57.08 255.0
57.095 246.0
57.11 250.0
57.125 243.0
57.14 250.0
57.155 259.0
57.17 256.0
57.185 248.0
57.2 266.0
57.215 248.0
57.23 252.0
57.245 259.0
57.26 265.0
57.275 276.0
57.29 255.0
57.305 241.0
57.32 258.0
57.335 251.0
57.35 240.0
57.365 256.0
57.38 261.0
57.395 267.0
57.41 239.0
57.425 259.0
57.44 257.0
57.455 247.0
57.47 279.0
57.485 266.0
57.5 255.0
57.515 260.0
57.53 269.0
57.545 234.0
57.56 252.0
57.575 256.0
57.59 253.0
57.605 243.0
57.62 252.0
57.635 248.0
57.65 261.0
57.665 269.0
57.68 227.0
57.695 248.0
57.71 253.0
57.725 238.0
57.74 249.0
57.755 250.0
57.77 223.0
57.785 228.0
57.8 256.0
57.815 252.0
57.83 243.0
57.845 250.0
57.86 246.0
57.875 227.0
57.89 263.0
57.905 246.0
57.92 263.0
57.935 277.0
57.95 257.0
57.965 211.0
57.98 243.0
57.995 250.0
58.01 259.0
58.025 257.0
58.04 238.0
58.055 220.0
58.07 260.0
58.085 269.0
58.1 251.0
58.115 251.0
58.13 233.0
58.145 244.0
58.16 261.0
58.175 250.0
58.19 252.0
58.205 231.0
58.22 245.0
58.235 252.0
58.25 241.0
58.265 232.0
58.28 242.0
58.295 245.0
58.31 241.0
58.325 234.0
58.34 258.0
58.355 257.0
58.37 245.0
58.385 254.0
58.4 245.0
58.415 247.0
58.43 231.0
58.445 252.0
58.46 263.0
58.475 255.0
58.49 240.0
58.505 227.0
58.52 259.0
58.535 265.0
58.55 257.0
58.565 241.0
58.58 246.0
58.595 257.0
58.61 258.0
58.625 275.0
58.64 238.0
58.655 230.0
58.67 249.0
58.685 231.0
58.7 245.0
58.715 253.0
58.73 255.0
58.745 224.0
58.76 227.0
58.775 251.0
58.79 246.0
58.805 251.0
58.82 255.0
58.835 269.0
58.85 283.0
58.865 227.0
58.88 229.0
58.895 230.0
58.91 246.0
58.925 252.0
58.94 262.0
58.955 242.0
58.97 256.0
58.985 240.0
59.0 244.0
59.015 253.0
59.03 251.0
59.045 235.0
59.06 231.0
59.075 251.0
59.09 242.0
59.105 241.0
59.12 237.0
59.135 262.0
59.15 243.0
59.165 251.0
59.18 240.0
59.195 227.0
59.21 242.0
59.225 252.0
59.24 251.0
59.255 223.0
59.27 234.0
59.285 239.0
59.3 230.0
59.315 229.0
59.33 220.0
59.345 237.0
59.36 252.0
59.375 249.0
59.39 251.0
59.405 267.0
59.42 258.0
59.435 252.0
59.45 252.0
59.465 243.0
59.48 243.0
59.495 242.0
59.51 246.0
59.525 238.0
59.54 243.0
59.555 228.0
59.57 248.0
59.585 243.0
59.6 222.0
59.615 242.0
59.63 259.0
59.645 238.0
59.66 229.0
59.675 218.0
59.69 245.0
59.705 249.0
59.72 244.0
59.735 246.0
59.75 230.0
59.765 242.0
59.78 272.0
59.795 250.0
59.81 234.0
59.825 233.0
59.84 247.0
59.855 238.0
59.87 265.0
59.885 232.0
59.9 218.0
59.915 219.0
59.93 247.0
59.945 226.0
59.96 258.0
59.975 249.0
59.99 224.0
60.005 249.0
60.02 223.0
60.035 249.0
60.05 245.0
60.065 240.0
60.08 219.0
60.095 232.0
60.11 255.0
60.125 234.0
60.14 222.0
60.155 227.0
60.17 224.0
60.185 244.0
60.2 263.0
60.215 253.0
60.23 258.0
60.245 247.0
60.26 233.0
60.275 240.0
60.29 239.0
60.305 250.0
60.32 231.0
60.335 238.0
60.35 258.0
60.365 230.0
60.38 260.0
60.395 256.0
60.41 250.0
60.425 247.0
60.44 258.0
60.455 254.0
60.47 244.0
60.485 231.0
60.5 250.0
60.515 233.0
60.53 242.0
60.545 234.0
60.56 234.0
60.575 241.0
60.59 221.0
60.605 219.0
60.62 247.0
60.635 231.0
60.65 227.0
60.665 243.0
60.68 226.0
60.695 259.0
60.71 244.0
60.725 263.0
60.74 256.0
60.755 245.0
60.77 229.0
60.785 230.0
60.8 250.0
60.815 269.0
60.83 246.0
60.845 231.0
60.86 236.0
60.875 234.0
60.89 241.0
60.905 243.0
60.92 232.0
60.935 225.0
60.95 238.0
60.965 217.0
60.98 226.0
60.995 239.0
61.01 244.0
61.025 240.0
61.04 227.0
61.055 238.0
61.07 253.0
61.085 240.0
61.1 219.0
61.115 215.0
61.13 277.0
61.145 218.0
61.16 218.0
61.175 195.0
61.19 232.0
61.205 228.0
61.22 227.0
61.235 256.0
61.25 229.0
61.265 223.0
61.28 236.0
61.295 238.0
61.31 261.0
61.325 236.0
61.34 232.0
61.355 237.0
61.37 237.0
61.385 224.0
61.4 232.0
61.415 221.0
61.43 243.0
61.445 248.0
61.46 247.0
61.475 243.0
61.49 203.0
61.505 232.0
61.52 251.0
61.535 245.0
61.55 234.0
61.565 232.0
61.58 248.0
61.595 238.0
61.61 250.0
61.625 245.0
61.64 236.0
61.655 235.0
61.67 240.0
61.685 241.0
61.7 229.0
61.715 217.0
61.73 203.0
61.745 232.0
61.76 230.0
61.775 241.0
61.79 216.0
61.805 254.0
61.82 249.0
61.835 242.0
61.85 229.0
61.865 215.0
61.88 239.0
61.895 229.0
61.91 228.0
61.925 227.0
61.94 233.0
61.955 221.0
61.97 224.0
61.985 224.0
