2.00000 738.000
2.01500 753.000
2.03000 714.000
2.04500 751.000
2.06000 724.000
2.07500 711.000
2.09000 725.000
2.10500 650.000
2.12000 658.000
2.13500 696.000
2.15000 638.000
2.16500 621.000
2.18000 639.000
2.19500 603.000
2.21000 561.000
2.22500 622.000
2.24000 596.000
2.25500 565.000
2.27000 542.000
2.28500 554.000
2.30000 594.000
2.31500 541.000
2.33000 540.000
2.34500 490.000
2.36000 525.000
2.37500 528.000
2.39000 495.000
2.40500 534.000
2.42000 530.000
2.43500 501.000
2.45000 501.000
2.46500 479.000
2.48000 477.000
2.49500 484.000
2.51000 481.000
2.52500 477.000
2.54000 455.000
2.55500 461.000
2.57000 491.000
2.58500 457.000
2.60000 459.000
2.61500 453.000
2.63000 459.000
2.64500 454.000
2.66000 425.000
2.67500 425.000
2.69000 415.000
2.70500 426.000
2.72000 437.000
2.73500 417.000
2.75000 395.000
2.76500 411.000
2.78000 390.000
2.79500 415.000
2.81000 418.000
2.82500 400.000
2.84000 408.000
2.85500 412.000
2.87000 407.000
2.88500 454.000
2.90000 441.000
2.91500 384.000
2.93000 391.000
2.94500 398.000
2.96000 369.000
2.97500 386.000
2.99000 409.000
3.00500 381.000
3.02000 434.000
3.03500 402.000
3.05000 379.000
3.06500 381.000
3.08000 375.000
3.09500 382.000
3.11000 396.000
3.12500 372.000
3.14000 354.000
3.15500 377.000
3.17000 374.000
3.18500 364.000
3.20000 385.000
3.21500 376.000
3.23000 372.000
3.24500 386.000
3.26000 383.000
3.27500 386.000
3.29000 366.000
3.30500 385.000
3.32000 375.000
3.33500 342.000
3.35000 374.000
3.36500 362.000
3.38000 374.000
3.39500 347.000
3.41000 334.000
3.42500 360.000
3.44000 365.000
3.45500 342.000
3.47000 360.000
3.48500 366.000
3.50000 358.000
3.51500 345.000
3.53000 338.000
3.54500 378.000
3.56000 375.000
3.57500 382.000
3.59000 376.000
3.60500 372.000
3.62000 345.000
3.63500 343.000
3.65000 378.000
3.66500 358.000
3.68000 381.000
3.69500 333.000
3.71000 378.000
3.72500 366.000
3.74000 348.000
3.75500 349.000
3.77000 349.000
3.78500 358.000
3.80000 350.000
3.81500 342.000
3.83000 345.000
3.84500 370.000
3.86000 356.000
3.87500 335.000
3.89000 351.000
3.90500 382.000
3.92000 338.000
3.93500 346.000
3.95000 321.000
3.96500 351.000
3.98000 363.000
3.99500 355.000
4.01000 384.000
4.02500 370.000
4.04000 349.000
4.05500 327.000
4.07000 313.000
4.08500 364.000
4.10000 356.000
4.11500 354.000
4.13000 352.000
4.14500 353.000
4.16000 337.000
4.17500 333.000
4.19000 346.000
4.20500 344.000
4.22000 360.000
4.23500 348.000
4.25000 347.000
4.26500 332.000
4.28000 346.000
4.29500 357.000
4.31000 343.000
4.32500 364.000
4.34000 366.000
4.35500 328.000
4.37000 347.000
4.38500 366.000
4.40000 358.000
4.41500 380.000
4.43000 383.000
4.44500 349.000
4.46000 366.000
4.47500 371.000
4.49000 362.000
4.50500 355.000
4.52000 338.000
4.53500 353.000
4.55000 342.000
4.56500 368.000
4.58000 362.000
4.59500 355.000
4.61000 368.000
4.62500 342.000
4.64000 343.000
4.65500 357.000
4.67000 364.000
4.68500 364.000
4.70000 368.000
4.71500 358.000
4.73000 367.000
4.74500 375.000
4.76000 343.000
4.77500 342.000
4.79000 368.000
4.80500 367.000
4.82000 357.000
4.83500 349.000
4.85000 392.000
4.86500 368.000
4.88000 374.000
4.89500 382.000
4.91000 366.000
4.92500 323.000
4.94000 337.000
4.95500 326.000
4.97000 370.000
4.98500 369.000
5.00000 355.000
5.01500 344.000
5.03000 339.000
5.04500 340.000
5.06000 336.000
5.07500 375.000
5.09000 348.000
5.10500 341.000
5.12000 362.000
5.13500 350.000
5.15000 380.000
5.16500 367.000
5.18000 334.000
5.19500 341.000
5.21000 350.000
5.22500 378.000
5.24000 359.000
5.25500 358.000
5.27000 345.000
5.28500 373.000
5.30000 386.000
5.31500 344.000
5.33000 324.000
5.34500 342.000
5.36000 381.000
5.37500 385.000
5.39000 339.000
5.40500 335.000
5.42000 352.000
5.43500 357.000
5.45000 358.000
5.46500 369.000
5.48000 339.000
5.49500 370.000
5.51000 369.000
5.52500 333.000
5.54000 324.000
5.55500 349.000
5.57000 349.000
5.58500 400.000
5.60000 359.000
5.61500 355.000
5.63000 355.000
5.64500 359.000
5.66000 384.000
5.67500 371.000
5.69000 359.000
5.70500 334.000
5.72000 352.000
5.73500 358.000
5.75000 339.000
5.76500 370.000
5.78000 368.000
5.79500 378.000
5.81000 376.000
5.82500 351.000
5.84000 333.000
5.85500 360.000
5.87000 367.000
5.88500 351.000
5.90000 380.000
5.91500 365.000
5.93000 349.000
5.94500 381.000
5.96000 387.000
5.97500 369.000
5.99000 366.000
6.00500 376.000
6.02000 365.000
6.03500 366.000
6.05000 366.000
6.06500 348.000
6.08000 324.000
6.09500 333.000
6.11000 347.000
6.12500 351.000
6.14000 346.000
6.15500 353.000
6.17000 344.000
6.18500 348.000
6.20000 342.000
6.21500 345.000
6.23000 347.000
6.24500 327.000
6.26000 345.000
6.27500 343.000
6.29000 344.000
6.30500 360.000
6.32000 351.000
6.33500 359.000
6.35000 364.000
6.36500 360.000
6.38000 343.000
6.39500 339.000
6.41000 352.000
6.42500 365.000
6.44000 358.000
6.45500 360.000
6.47000 335.000
6.48500 362.000
6.50000 368.000
6.51500 354.000
6.53000 341.000
6.54500 335.000
6.56000 370.000
6.57500 361.000
6.59000 361.000
6.60500 345.000
6.62000 338.000
6.63500 339.000
6.65000 350.000
6.66500 358.000
6.68000 333.000
6.69500 360.000
6.71000 364.000
6.72500 378.000
6.74000 345.000
6.75500 379.000
6.77000 338.000
6.78500 326.000
6.80000 337.000
6.81500 329.000
6.83000 353.000
6.84500 355.000
6.86000 338.000
6.87500 336.000
6.89000 352.000
6.90500 355.000
6.92000 332.000
6.93500 348.000
6.95000 348.000
6.96500 336.000
6.98000 357.000
6.99500 353.000
7.01000 381.000
7.02500 343.000
7.04000 338.000
7.05500 321.000
7.07000 334.000
7.08500 370.000
7.10000 354.000
7.11500 337.000
7.13000 316.000
7.14500 337.000
7.16000 345.000
7.17500 333.000
7.19000 355.000
7.20500 352.000
7.22000 333.000
7.23500 349.000
7.25000 334.000
7.26500 350.000
7.28000 352.000
7.29500 355.000
7.31000 348.000
7.32500 345.000
7.34000 340.000
7.35500 335.000
7.37000 337.000
7.38500 332.000
7.40000 343.000
7.41500 306.000
7.43000 330.000
7.44500 313.000
7.46000 353.000
7.47500 350.000
7.49000 353.000
7.50500 358.000
7.52000 345.000
7.53500 328.000
7.55000 330.000
7.56500 355.000
7.58000 353.000
7.59500 352.000
7.61000 359.000
7.62500 341.000
7.64000 335.000
7.65500 353.000
7.67000 371.000
7.68500 405.000
7.70000 334.000
7.71500 335.000
7.73000 362.000
7.74500 348.000
7.76000 362.000
7.77500 349.000
7.79000 344.000
7.80500 343.000
7.82000 327.000
7.83500 345.000
7.85000 359.000
7.86500 326.000
7.88000 347.000
7.89500 357.000
7.91000 361.000
7.92500 339.000
7.94000 334.000
7.95500 341.000
7.97000 335.000
7.98500 358.000
8.00000 346.000
8.01500 337.000
8.03000 334.000
8.04500 343.000
8.06000 361.000
8.07500 342.000
8.09000 354.000
8.10500 364.000
8.12000 333.000
8.13500 304.000
8.15000 357.000
8.16500 357.000
8.18000 328.000
8.19500 362.000
8.21000 383.000
8.22500 384.000
8.24000 345.000
8.25500 336.000
8.27000 354.000
8.28500 338.000
8.30000 327.000
8.31500 317.000
8.33000 319.000
8.34500 363.000
8.36000 343.000
8.37500 345.000
8.39000 336.000
8.40500 315.000
8.42000 329.000
8.43500 355.000
8.45000 330.000
8.46500 354.000
8.48000 339.000
8.49500 334.000
8.51000 335.000
8.52500 301.000
8.54000 327.000
8.55500 339.000
8.57000 337.000
8.58500 358.000
8.60000 350.000
8.61500 322.000
8.63000 331.000
8.64500 350.000
8.66000 342.000
8.67500 395.000
8.69000 351.000
8.70500 345.000
8.72000 354.000
8.73500 354.000
8.75000 343.000
8.76500 344.000
8.78000 334.000
8.79500 337.000
8.81000 354.000
8.82500 344.000
8.84000 333.000
8.85500 371.000
8.87000 335.000
8.88500 352.000
8.90000 373.000
8.91500 368.000
8.93000 326.000
8.94500 356.000
8.96000 365.000
8.97500 341.000
8.99000 332.000
9.00500 328.000
9.02000 317.000
9.03500 317.000
9.05000 331.000
9.06500 343.000
9.08000 363.000
9.09500 384.000
9.11000 332.000
9.12500 337.000
9.14000 363.000
9.15500 349.000
9.17000 336.000
9.18500 332.000
9.20000 355.000
9.21500 346.000
9.23000 375.000
9.24500 372.000
9.26000 350.000
9.27500 353.000
9.29000 343.000
9.30500 346.000
9.32000 366.000
9.33500 346.000
9.35000 345.000
9.36500 321.000
9.38000 343.000
9.39500 350.000
9.41000 355.000
9.42500 339.000
9.44000 352.000
9.45500 346.000
9.47000 338.000
9.48500 356.000
9.50000 317.000
9.51500 319.000
9.53000 366.000
9.54500 336.000
9.56000 318.000
9.57500 330.000
9.59000 331.000
9.60500 357.000
9.62000 349.000
9.63500 319.000
9.65000 341.000
9.66500 348.000
9.68000 357.000
9.69500 355.000
9.71000 347.000
9.72500 337.000
9.74000 342.000
9.75500 333.000
9.77000 342.000
9.78500 334.000
9.80000 345.000
9.81500 339.000
9.83000 348.000
9.84500 338.000
9.86000 315.000
9.87500 343.000
9.89000 338.000
9.90500 336.000
9.92000 350.000
9.93500 338.000
9.95000 340.000
9.96500 340.000
9.98000 343.000
9.99500 333.000
10.01000 342.000
10.02500 341.000
10.04000 362.000
10.05500 339.000
10.07000 340.000
10.08500 368.000
10.10000 336.000
10.11500 318.000
10.13000 317.000
10.14500 317.000
10.16000 365.000
10.17500 356.000
10.19000 364.000
10.20500 333.000
10.22000 334.000
10.23500 345.000
10.25000 330.000
10.26500 323.000
10.28000 314.000
10.29500 352.000
10.31000 338.000
10.32500 386.000
10.34000 367.000
10.35500 340.000
10.37000 352.000
10.38500 335.000
10.40000 330.000
10.41500 323.000
10.43000 355.000
10.44500 366.000
10.46000 345.000
10.47500 372.000
10.49000 337.000
10.50500 329.000
10.52000 346.000
10.53500 366.000
10.55000 327.000
10.56500 346.000
10.58000 349.000
10.59500 324.000
10.61000 334.000
10.62500 339.000
10.64000 347.000
10.65500 329.000
10.67000 328.000
10.68500 343.000
10.70000 341.000
10.71500 327.000
10.73000 329.000
10.74500 320.000
10.76000 331.000
10.77500 353.000
10.79000 378.000
10.80500 356.000
10.82000 335.000
10.83500 334.000
10.85000 343.000
10.86500 370.000
10.88000 362.000
10.89500 335.000
10.91000 343.000
10.92500 351.000
10.94000 348.000
10.95500 341.000
10.97000 332.000
10.98500 360.000
11.00000 348.000
11.01500 364.000
11.03000 353.000
11.04500 350.000
11.06000 327.000
11.07500 352.000
11.09000 370.000
11.10500 392.000
11.12000 368.000
11.13500 375.000
11.15000 366.000
11.16500 336.000
11.18000 359.000
11.19500 354.000
11.21000 357.000
11.22500 375.000
11.24000 360.000
11.25500 354.000
11.27000 340.000
11.28500 322.000
11.30000 345.000
11.31500 342.000
11.33000 339.000
11.34500 324.000
11.36000 327.000
11.37500 346.000
11.39000 336.000
11.40500 368.000
11.42000 340.000
11.43500 330.000
11.45000 333.000
11.46500 338.000
11.48000 345.000
11.49500 348.000
11.51000 369.000
11.52500 370.000
11.54000 348.000
11.55500 339.000
11.57000 366.000
11.58500 370.000
11.60000 367.000
11.61500 373.000
11.63000 347.000
11.64500 351.000
11.66000 350.000
11.67500 384.000
11.69000 387.000
11.70500 372.000
11.72000 377.000
11.73500 397.000
11.75000 406.000
11.76500 457.000
11.78000 447.000
11.79500 447.000
11.81000 464.000
11.82500 510.000
11.84000 593.000
11.85500 663.000
11.87000 712.000
11.88500 840.000
11.90000 951.000
11.91500 1099.000
11.93000 1302.000
11.94500 1663.000
11.96000 2058.000
11.97500 2558.000
11.99000 2834.000
12.00500 2866.000
12.02000 2605.000
12.03500 2293.000
12.05000 2020.000
12.06500 1954.000
12.08000 1915.000
12.09500 1773.000
12.11000 1613.000
12.12500 1375.000
12.14000 1041.000
12.15500 793.000
12.17000 687.000
12.18500 597.000
12.20000 543.000
12.21500 512.000
12.23000 483.000
12.24500 505.000
12.26000 459.000
12.27500 468.000
12.29000 464.000
12.30500 468.000
12.32000 461.000
12.33500 442.000
12.35000 452.000
12.36500 467.000
12.38000 463.000
12.39500 418.000
12.41000 413.000
12.42500 445.000
12.44000 468.000
12.45500 423.000
12.47000 423.000
12.48500 414.000
12.50000 431.000
12.51500 425.000
12.53000 420.000
12.54500 427.000
12.56000 411.000
12.57500 417.000
12.59000 431.000
12.60500 427.000
12.62000 396.000
12.63500 404.000
12.65000 410.000
12.66500 400.000
12.68000 408.000
12.69500 399.000
12.71000 394.000
12.72500 380.000
12.74000 433.000
12.75500 414.000
12.77000 359.000
12.78500 399.000
12.80000 417.000
12.81500 400.000
12.83000 369.000
12.84500 376.000
12.86000 391.000
12.87500 394.000
12.89000 392.000
12.90500 405.000
12.92000 403.000
12.93500 391.000
12.95000 388.000
12.96500 354.000
12.98000 371.000
12.99500 375.000
13.01000 370.000
13.02500 371.000
13.04000 383.000
13.05500 393.000
13.07000 390.000
13.08500 373.000
13.10000 399.000
13.11500 398.000
13.13000 368.000
13.14500 374.000
13.16000 370.000
13.17500 391.000
13.19000 379.000
13.20500 364.000
13.22000 385.000
13.23500 384.000
13.25000 354.000
13.26500 352.000
13.28000 405.000
13.29500 374.000
13.31000 377.000
13.32500 395.000
13.34000 367.000
13.35500 385.000
13.37000 389.000
13.38500 379.000
13.40000 372.000
13.41500 347.000
13.43000 374.000
13.44500 369.000
13.46000 353.000
13.47500 393.000
13.49000 367.000
13.50500 361.000
13.52000 363.000
13.53500 357.000
13.55000 346.000
13.56500 350.000
13.58000 347.000
13.59500 361.000
13.61000 350.000
13.62500 408.000
13.64000 384.000
13.65500 365.000
13.67000 364.000
13.68500 368.000
13.70000 378.000
13.71500 367.000
13.73000 386.000
13.74500 360.000
13.76000 389.000
13.77500 358.000
13.79000 371.000
13.80500 374.000
13.82000 374.000
13.83500 371.000
13.85000 387.000
13.86500 353.000
13.88000 365.000
13.89500 376.000
13.91000 375.000
13.92500 359.000
13.94000 364.000
13.95500 380.000
13.97000 360.000
13.98500 357.000
14.00000 351.000
14.01500 348.000
14.03000 356.000
14.04500 365.000
14.06000 337.000
14.07500 341.000
14.09000 372.000
14.10500 346.000
14.12000 361.000
14.13500 372.000
14.15000 397.000
14.16500 378.000
14.18000 354.000
14.19500 349.000
14.21000 396.000
14.22500 377.000
14.24000 378.000
14.25500 357.000
14.27000 374.000
14.28500 357.000
14.30000 332.000
14.31500 360.000
14.33000 388.000
14.34500 364.000
14.36000 343.000
14.37500 343.000
14.39000 363.000
14.40500 374.000
14.42000 369.000
14.43500 366.000
14.45000 372.000
14.46500 346.000
14.48000 378.000
14.49500 379.000
14.51000 378.000
14.52500 368.000
14.54000 357.000
14.55500 348.000
14.57000 347.000
14.58500 390.000
14.60000 398.000
14.61500 376.000
14.63000 400.000
14.64500 354.000
14.66000 342.000
14.67500 356.000
14.69000 377.000
14.70500 366.000
14.72000 356.000
14.73500 353.000
14.75000 369.000
14.76500 372.000
14.78000 388.000
14.79500 366.000
14.81000 366.000
14.82500 372.000
14.84000 372.000
14.85500 401.000
14.87000 344.000
14.88500 353.000
14.90000 364.000
14.91500 379.000
14.93000 370.000
14.94500 360.000
14.96000 342.000
14.97500 332.000
14.99000 379.000
15.00500 351.000
15.02000 351.000
15.03500 364.000
15.05000 353.000
15.06500 359.000
15.08000 356.000
15.09500 364.000
15.11000 389.000
15.12500 376.000
15.14000 359.000
15.15500 355.000
15.17000 349.000
15.18500 379.000
15.20000 365.000
15.21500 391.000
15.23000 414.000
15.24500 374.000
15.26000 338.000
15.27500 366.000
15.29000 375.000
15.30500 346.000
15.32000 371.000
15.33500 383.000
15.35000 371.000
15.36500 373.000
15.38000 379.000
15.39500 373.000
15.41000 368.000
15.42500 361.000
15.44000 379.000
15.45500 394.000
15.47000 389.000
15.48500 355.000
15.50000 372.000
15.51500 385.000
15.53000 390.000
15.54500 380.000
15.56000 381.000
15.57500 391.000
15.59000 367.000
15.60500 384.000
15.62000 366.000
15.63500 366.000
15.65000 378.000
15.66500 384.000
15.68000 348.000
15.69500 387.000
15.71000 411.000
15.72500 411.000
15.74000 398.000
15.75500 378.000
15.77000 361.000
15.78500 364.000
15.80000 372.000
15.81500 378.000
15.83000 356.000
15.84500 352.000
15.86000 386.000
15.87500 362.000
15.89000 370.000
15.90500 401.000
15.92000 370.000
15.93500 374.000
15.95000 384.000
15.96500 382.000
15.98000 394.000
15.99500 380.000
16.01000 398.000
16.02500 385.000
16.04000 377.000
16.05500 376.000
16.07000 385.000
16.08500 404.000
16.10000 376.000
16.11500 379.000
16.13000 366.000
16.14500 382.000
16.16000 406.000
16.17500 395.000
16.19000 378.000
16.20500 403.000
16.22000 412.000
16.23500 382.000
16.25000 382.000
16.26500 370.000
16.28000 361.000
16.29500 377.000
16.31000 384.000
16.32500 391.000
16.34000 385.000
16.35500 402.000
16.37000 385.000
16.38500 406.000
16.40000 419.000
16.41500 380.000
16.43000 395.000
16.44500 382.000
16.46000 406.000
16.47500 409.000
16.49000 397.000
16.50500 376.000
16.52000 379.000
16.53500 386.000
16.55000 416.000
16.56500 388.000
16.58000 383.000
16.59500 377.000
16.61000 409.000
16.62500 405.000
16.64000 380.000
16.65500 411.000
16.67000 378.000
16.68500 396.000
16.70000 412.000
16.71500 399.000
16.73000 354.000
16.74500 386.000
16.76000 409.000
16.77500 398.000
16.79000 390.000
16.80500 397.000
16.82000 387.000
16.83500 414.000
16.85000 383.000
16.86500 383.000
16.88000 426.000
16.89500 410.000
16.91000 415.000
16.92500 404.000
16.94000 434.000
16.95500 444.000
16.97000 392.000
16.98500 381.000
17.00000 368.000
17.01500 395.000
17.03000 423.000
17.04500 420.000
17.06000 431.000
17.07500 404.000
17.09000 400.000
17.10500 408.000
17.12000 416.000
17.13500 370.000
17.15000 395.000
17.16500 431.000
17.18000 439.000
17.19500 429.000
17.21000 398.000
17.22500 404.000
17.24000 421.000
17.25500 429.000
17.27000 439.000
17.28500 412.000
17.30000 425.000
17.31500 421.000
17.33000 446.000
17.34500 445.000
17.36000 407.000
17.37500 432.000
17.39000 413.000
17.40500 419.000
17.42000 442.000
17.43500 472.000
17.45000 416.000
17.46500 436.000
17.48000 428.000
17.49500 451.000
17.51000 441.000
17.52500 417.000
17.54000 442.000
17.55500 455.000
17.57000 436.000
17.58500 438.000
17.60000 480.000
17.61500 438.000
17.63000 435.000
17.64500 441.000
17.66000 477.000
17.67500 468.000
17.69000 467.000
17.70500 483.000
17.72000 485.000
17.73500 476.000
17.75000 495.000
17.76500 566.000
17.78000 527.000
17.79500 554.000
17.81000 578.000
17.82500 539.000
17.84000 567.000
17.85500 605.000
17.87000 630.000
17.88500 623.000
17.90000 658.000
17.91500 666.000
17.93000 641.000
17.94500 660.000
17.96000 696.000
17.97500 646.000
17.99000 670.000
18.00500 686.000
18.02000 657.000
18.03500 671.000
18.05000 685.000
18.06500 664.000
18.08000 619.000
18.09500 640.000
18.11000 621.000
18.12500 633.000
18.14000 611.000
18.15500 553.000
18.17000 568.000
18.18500 555.000
18.20000 540.000
18.21500 559.000
18.23000 548.000
18.24500 499.000
18.26000 535.000
18.27500 541.000
18.29000 532.000
18.30500 558.000
18.32000 522.000
18.33500 520.000
18.35000 503.000
18.36500 489.000
18.38000 501.000
18.39500 489.000
18.41000 465.000
18.42500 465.000
18.44000 470.000
18.45500 459.000
18.47000 470.000
18.48500 494.000
18.50000 446.000
18.51500 474.000
18.53000 465.000
18.54500 418.000
18.56000 452.000
18.57500 421.000
18.59000 482.000
18.60500 444.000
18.62000 466.000
18.63500 455.000
18.65000 451.000
18.66500 441.000
18.68000 462.000
18.69500 433.000
18.71000 458.000
18.72500 419.000
18.74000 441.000
18.75500 434.000
18.77000 462.000
18.78500 454.000
18.80000 443.000
18.81500 430.000
18.83000 437.000
18.84500 430.000
18.86000 454.000
18.87500 478.000
18.89000 468.000
18.90500 435.000
18.92000 460.000
18.93500 455.000
18.95000 434.000
18.96500 453.000
18.98000 451.000
18.99500 498.000
19.01000 463.000
19.02500 446.000
19.04000 445.000
19.05500 416.000
19.07000 417.000
19.08500 417.000
19.10000 436.000
19.11500 466.000
19.13000 439.000
19.14500 438.000
19.16000 466.000
19.17500 455.000
19.19000 434.000
19.20500 420.000
19.22000 458.000
19.23500 437.000
19.25000 419.000
19.26500 443.000
19.28000 465.000
19.29500 429.000
19.31000 418.000
19.32500 406.000
19.34000 451.000
19.35500 431.000
19.37000 427.000
19.38500 448.000
19.40000 442.000
19.41500 422.000
19.43000 448.000
19.44500 438.000
19.46000 448.000
19.47500 462.000
19.49000 432.000
19.50500 487.000
19.52000 454.000
19.53500 459.000
19.55000 465.000
19.56500 434.000
19.58000 442.000
19.59500 454.000
19.61000 423.000
19.62500 414.000
19.64000 444.000
19.65500 458.000
19.67000 428.000
19.68500 436.000
19.70000 463.000
19.71500 445.000
19.73000 457.000
19.74500 461.000
19.76000 452.000
19.77500 448.000
19.79000 467.000
19.80500 434.000
19.82000 454.000
19.83500 454.000
19.85000 458.000
19.86500 458.000
19.88000 460.000
19.89500 480.000
19.91000 490.000
19.92500 495.000
19.94000 467.000
19.95500 480.000
19.97000 461.000
19.98500 474.000
20.00000 459.000
20.01500 461.000
20.03000 485.000
20.04500 478.000
20.06000 458.000
20.07500 508.000
20.09000 489.000
20.10500 488.000
20.12000 498.000
20.13500 474.000
20.15000 488.000
20.16500 491.000
20.18000 446.000
20.19500 495.000
20.21000 509.000
20.22500 464.000
20.24000 479.000
20.25500 487.000
20.27000 469.000
20.28500 457.000
20.30000 497.000
20.31500 478.000
20.33000 490.000
20.34500 465.000
20.36000 478.000
20.37500 511.000
20.39000 503.000
20.40500 504.000
20.42000 523.000
20.43500 509.000
20.45000 501.000
20.46500 503.000
20.48000 505.000
20.49500 492.000
20.51000 494.000
20.52500 496.000
20.54000 518.000
20.55500 514.000
20.57000 541.000
20.58500 545.000
20.60000 509.000
20.61500 483.000
20.63000 519.000
20.64500 547.000
20.66000 620.000
20.67500 597.000
20.69000 614.000
20.70500 631.000
20.72000 727.000
20.73500 753.000
20.75000 866.000
20.76500 962.000
20.78000 956.000
20.79500 1063.000
20.81000 1038.000
20.82500 1022.000
20.84000 1048.000
20.85500 1005.000
20.87000 962.000
20.88500 925.000
20.90000 951.000
20.91500 923.000
20.93000 911.000
20.94500 850.000
20.96000 842.000
20.97500 778.000
20.99000 742.000
21.00500 693.000
21.02000 642.000
21.03500 642.000
21.05000 590.000
21.06500 609.000
21.08000 581.000
21.09500 607.000
21.11000 602.000
21.12500 576.000
21.14000 579.000
21.15500 568.000
21.17000 580.000
21.18500 557.000
21.20000 540.000
21.21500 536.000
21.23000 544.000
21.24500 499.000
21.26000 508.000
21.27500 560.000
21.29000 575.000
21.30500 529.000
21.32000 528.000
21.33500 522.000
21.35000 496.000
21.36500 512.000
21.38000 528.000
21.39500 493.000
21.41000 535.000
21.42500 545.000
21.44000 522.000
21.45500 541.000
21.47000 527.000
21.48500 518.000
21.50000 511.000
21.51500 552.000
21.53000 531.000
21.54500 474.000
21.56000 513.000
21.57500 526.000
21.59000 544.000
21.60500 519.000
21.62000 509.000
21.63500 511.000
21.65000 496.000
21.66500 518.000
21.68000 532.000
21.69500 540.000
21.71000 537.000
21.72500 533.000
21.74000 520.000
21.75500 527.000
21.77000 519.000
21.78500 493.000
21.80000 521.000
21.81500 530.000
21.83000 528.000
21.84500 552.000
21.86000 544.000
21.87500 556.000
21.89000 538.000
21.90500 553.000
21.92000 541.000
21.93500 529.000
21.95000 496.000
21.96500 523.000
21.98000 550.000
21.99500 493.000
22.01000 512.000
22.02500 520.000
22.04000 535.000
22.05500 520.000
22.07000 505.000
22.08500 524.000
22.10000 533.000
22.11500 517.000
22.13000 519.000
22.14500 505.000
22.16000 510.000
22.17500 539.000
22.19000 505.000
22.20500 523.000
22.22000 536.000
22.23500 507.000
22.25000 529.000
22.26500 514.000
22.28000 534.000
22.29500 545.000
22.31000 528.000
22.32500 545.000
22.34000 559.000
22.35500 540.000
22.37000 540.000
22.38500 534.000
22.40000 565.000
22.41500 498.000
22.43000 492.000
22.44500 525.000
22.46000 533.000
22.47500 580.000
22.49000 516.000
22.50500 519.000
22.52000 529.000
22.53500 529.000
22.55000 527.000
22.56500 568.000
22.58000 548.000
22.59500 524.000
22.61000 519.000
22.62500 553.000
22.64000 518.000
22.65500 550.000
22.67000 532.000
22.68500 544.000
22.70000 548.000
22.71500 529.000
22.73000 547.000
22.74500 564.000
22.76000 550.000
22.77500 541.000
22.79000 545.000
22.80500 566.000
22.82000 546.000
22.83500 537.000
22.85000 559.000
22.86500 527.000
22.88000 542.000
22.89500 560.000
22.91000 532.000
22.92500 532.000
22.94000 527.000
22.95500 542.000
22.97000 534.000
22.98500 517.000
23.00000 539.000
23.01500 573.000
23.03000 582.000
23.04500 595.000
23.06000 553.000
23.07500 517.000
23.09000 540.000
23.10500 557.000
23.12000 559.000
23.13500 574.000
23.15000 544.000
23.16500 550.000
23.18000 534.000
23.19500 523.000
23.21000 578.000
23.22500 566.000
23.24000 562.000
23.25500 544.000
23.27000 530.000
23.28500 590.000
23.30000 576.000
23.31500 573.000
23.33000 531.000
23.34500 544.000
23.36000 554.000
23.37500 568.000
23.39000 557.000
23.40500 547.000
23.42000 553.000
23.43500 556.000
23.45000 554.000
23.46500 592.000
23.48000 561.000
23.49500 562.000
23.51000 549.000
23.52500 568.000
23.54000 572.000
23.55500 576.000
23.57000 559.000
23.58500 577.000
23.60000 570.000
23.61500 551.000
23.63000 531.000
23.64500 534.000
23.66000 563.000
23.67500 590.000
23.69000 580.000
23.70500 539.000
23.72000 543.000
23.73500 564.000
23.75000 552.000
23.76500 568.000
23.78000 538.000
23.79500 563.000
23.81000 560.000
23.82500 577.000
23.84000 567.000
23.85500 577.000
23.87000 614.000
23.88500 613.000
23.90000 611.000
23.91500 598.000
23.93000 590.000
23.94500 559.000
23.96000 564.000
23.97500 585.000
23.99000 608.000
24.00500 585.000
24.02000 582.000
24.03500 607.000
24.05000 589.000
24.06500 633.000
24.08000 618.000
24.09500 632.000
24.11000 697.000
24.12500 724.000
24.14000 743.000
24.15500 724.000
24.17000 733.000
24.18500 737.000
24.20000 743.000
24.21500 778.000
24.23000 727.000
24.24500 721.000
24.26000 795.000
24.27500 807.000
24.29000 827.000
24.30500 780.000
24.32000 774.000
24.33500 734.000
24.35000 720.000
24.36500 707.000
24.38000 702.000
24.39500 659.000
24.41000 668.000
24.42500 680.000
24.44000 661.000
24.45500 665.000
24.47000 636.000
24.48500 661.000
24.50000 621.000
24.51500 614.000
24.53000 686.000
24.54500 686.000
24.56000 642.000
24.57500 667.000
24.59000 662.000
24.60500 692.000
24.62000 721.000
24.63500 741.000
24.65000 771.000
24.66500 800.000
24.68000 790.000
24.69500 776.000
24.71000 806.000
24.72500 810.000
24.74000 862.000
24.75500 855.000
24.77000 859.000
24.78500 930.000
24.80000 880.000
24.81500 926.000
24.83000 908.000
24.84500 926.000
24.86000 907.000
24.87500 934.000
24.89000 1002.000
24.90500 961.000
24.92000 992.000
24.93500 1018.000
24.95000 1014.000
24.96500 940.000
24.98000 933.000
24.99500 928.000
25.01000 935.000
25.02500 945.000
25.04000 912.000
25.05500 896.000
25.07000 882.000
25.08500 841.000
25.10000 827.000
25.11500 821.000
25.13000 818.000
25.14500 771.000
25.16000 757.000
25.17500 735.000
25.19000 724.000
25.20500 708.000
25.22000 691.000
25.23500 677.000
25.25000 704.000
25.26500 717.000
25.28000 691.000
25.29500 681.000
25.31000 657.000
25.32500 660.000
25.34000 660.000
25.35500 660.000
25.37000 649.000
25.38500 646.000
25.40000 630.000
25.41500 607.000
25.43000 630.000
25.44500 633.000
25.46000 617.000
25.47500 632.000
25.49000 660.000
25.50500 637.000
25.52000 658.000
25.53500 631.000
25.55000 577.000
25.56500 609.000
25.58000 609.000
25.59500 644.000
25.61000 599.000
25.62500 614.000
25.64000 617.000
25.65500 585.000
25.67000 607.000
25.68500 668.000
25.70000 659.000
25.71500 605.000
25.73000 619.000
25.74500 582.000
25.76000 608.000
25.77500 553.000
25.79000 579.000
25.80500 639.000
25.82000 632.000
25.83500 633.000
25.85000 595.000
25.86500 618.000
25.88000 612.000
25.89500 639.000
25.91000 645.000
25.92500 619.000
25.94000 628.000
25.95500 653.000
25.97000 633.000
25.98500 658.000
26.00000 641.000
26.01500 643.000
26.03000 693.000
26.04500 652.000
26.06000 632.000
26.07500 649.000
26.09000 663.000
26.10500 616.000
26.12000 635.000
26.13500 660.000
26.15000 662.000
26.16500 668.000
26.18000 649.000
26.19500 636.000
26.21000 677.000
26.22500 687.000
26.24000 658.000
26.25500 655.000
26.27000 663.000
26.28500 673.000
26.30000 675.000
26.31500 664.000
26.33000 683.000
26.34500 654.000
26.36000 671.000
26.37500 682.000
26.39000 736.000
26.40500 704.000
26.42000 703.000
26.43500 695.000
26.45000 701.000
26.46500 737.000
26.48000 711.000
26.49500 719.000
26.51000 750.000
26.52500 757.000
26.54000 781.000
26.55500 718.000
26.57000 794.000
26.58500 865.000
26.60000 816.000
26.61500 840.000
26.63000 841.000
26.64500 867.000
26.66000 842.000
26.67500 866.000
26.69000 868.000
26.70500 924.000
26.72000 901.000
26.73500 953.000
26.75000 956.000
26.76500 1045.000
26.78000 1041.000
26.79500 1043.000
26.81000 1119.000
26.82500 1114.000
26.84000 1117.000
26.85500 1298.000
26.87000 1294.000
26.88500 1371.000
26.90000 1405.000
26.91500 1477.000
26.93000 1498.000
26.94500 1579.000
26.96000 1708.000
26.97500 1708.000
26.99000 1767.000
27.00500 1768.000
27.02000 1805.000
27.03500 1929.000
27.05000 1869.000
27.06500 1804.000
27.08000 1742.000
27.09500 1730.000
27.11000 1742.000
27.12500 1635.000
27.14000 1557.000
27.15500 1481.000
27.17000 1482.000
27.18500 1448.000
27.20000 1408.000
27.21500 1370.000
27.23000 1362.000
27.24500 1361.000
27.26000 1358.000
27.27500 1286.000
27.29000 1279.000
27.30500 1293.000
27.32000 1246.000
27.33500 1307.000
27.35000 1301.000
27.36500 1236.000
27.38000 1285.000
27.39500 1311.000
27.41000 1292.000
27.42500 1325.000
27.44000 1360.000
27.45500 1364.000
27.47000 1427.000
27.48500 1465.000
27.50000 1443.000
27.51500 1501.000
27.53000 1586.000
27.54500 1626.000
27.56000 1649.000
27.57500 1686.000
27.59000 1723.000
27.60500 1737.000
27.62000 1769.000
27.63500 1907.000
27.65000 1957.000
27.66500 1928.000
27.68000 2011.000
27.69500 2013.000
27.71000 1978.000
27.72500 1963.000
27.74000 1965.000
27.75500 1915.000
27.77000 1917.000
27.78500 1869.000
27.80000 1872.000
27.81500 1762.000
27.83000 1594.000
27.84500 1625.000
27.86000 1566.000
27.87500 1499.000
27.89000 1480.000
27.90500 1361.000
27.92000 1319.000
27.93500 1274.000
27.95000 1227.000
27.96500 1152.000
27.98000 1143.000
27.99500 1161.000
28.01000 1111.000
28.02500 1066.000
28.04000 1022.000
28.05500 1035.000
28.07000 991.000
28.08500 928.000
28.10000 965.000
28.11500 908.000
28.13000 867.000
28.14500 879.000
28.16000 824.000
28.17500 868.000
28.19000 794.000
28.20500 790.000
28.22000 773.000
28.23500 772.000
28.25000 785.000
28.26500 789.000
28.28000 778.000
28.29500 761.000
28.31000 713.000
28.32500 737.000
28.34000 764.000
28.35500 739.000
28.37000 710.000
28.38500 760.000
28.40000 703.000
28.41500 694.000
28.43000 662.000
28.44500 691.000
28.46000 673.000
28.47500 690.000
28.49000 711.000
28.50500 650.000
28.52000 662.000
28.53500 667.000
28.55000 657.000
28.56500 633.000
28.58000 654.000
28.59500 645.000
28.61000 626.000
28.62500 601.000
28.64000 616.000
28.65500 647.000
28.67000 633.000
28.68500 628.000
28.70000 615.000
28.71500 665.000
28.73000 625.000
28.74500 580.000
28.76000 627.000
28.77500 631.000
28.79000 632.000
28.80500 627.000
28.82000 574.000
28.83500 622.000
28.85000 587.000
28.86500 588.000
28.88000 630.000
28.89500 612.000
28.91000 636.000
28.92500 639.000
28.94000 649.000
28.95500 622.000
28.97000 610.000
28.98500 614.000
29.00000 614.000
29.01500 629.000
29.03000 622.000
29.04500 605.000
29.06000 616.000
29.07500 654.000
29.09000 611.000
29.10500 593.000
29.12000 621.000
29.13500 625.000
29.15000 659.000
29.16500 649.000
29.18000 618.000
29.19500 632.000
29.21000 607.000
29.22500 648.000
29.24000 664.000
29.25500 685.000
29.27000 639.000
29.28500 656.000
29.30000 653.000
29.31500 678.000
29.33000 701.000
29.34500 667.000
29.36000 675.000
29.37500 658.000
29.39000 675.000
29.40500 666.000
29.42000 715.000
29.43500 741.000
29.45000 764.000
29.46500 707.000
29.48000 719.000
29.49500 782.000
29.51000 772.000
29.52500 769.000
29.54000 769.000
29.55500 764.000
29.57000 785.000
29.58500 794.000
29.60000 811.000
29.61500 804.000
29.63000 799.000
29.64500 790.000
29.66000 846.000
29.67500 839.000
29.69000 814.000
29.70500 771.000
29.72000 786.000
29.73500 761.000
29.75000 762.000
29.76500 794.000
29.78000 765.000
29.79500 732.000
29.81000 719.000
29.82500 679.000
29.84000 683.000
29.85500 699.000
29.87000 650.000
29.88500 660.000
29.90000 671.000
29.91500 690.000
29.93000 650.000
29.94500 606.000
29.96000 629.000
29.97500 604.000
29.99000 576.000
30.00500 568.000
30.02000 561.000
30.03500 580.000
30.05000 559.000
30.06500 540.000
30.08000 537.000
30.09500 533.000
30.11000 501.000
30.12500 548.000
30.14000 525.000
30.15500 514.000
30.17000 472.000
30.18500 486.000
30.20000 479.000
30.21500 494.000
30.23000 498.000
30.24500 468.000
30.26000 452.000
30.27500 498.000
30.29000 463.000
30.30500 478.000
30.32000 470.000
30.33500 440.000
30.35000 452.000
30.36500 429.000
30.38000 464.000
30.39500 437.000
30.41000 463.000
30.42500 459.000
30.44000 498.000
30.45500 456.000
30.47000 456.000
30.48500 469.000
30.50000 433.000
30.51500 430.000
30.53000 475.000
30.54500 459.000
30.56000 444.000
30.57500 441.000
30.59000 468.000
30.60500 451.000
30.62000 434.000
30.63500 469.000
30.65000 445.000
30.66500 427.000
30.68000 476.000
30.69500 427.000
30.71000 420.000
30.72500 473.000
30.74000 448.000
30.75500 426.000
30.77000 427.000
30.78500 437.000
30.80000 426.000
30.81500 430.000
30.83000 415.000
30.84500 431.000
30.86000 430.000
30.87500 423.000
30.89000 444.000
30.90500 420.000
30.92000 416.000
30.93500 418.000
30.95000 427.000
30.96500 433.000
30.98000 440.000
30.99500 458.000
31.01000 430.000
31.02500 405.000
31.04000 395.000
31.05500 420.000
31.07000 422.000
31.08500 443.000
31.10000 409.000
31.11500 432.000
31.13000 421.000
31.14500 413.000
31.16000 452.000
31.17500 408.000
31.19000 410.000
31.20500 412.000
31.22000 422.000
31.23500 415.000
31.25000 424.000
31.26500 424.000
31.28000 394.000
31.29500 411.000
31.31000 401.000
31.32500 405.000
31.34000 426.000
31.35500 403.000
31.37000 389.000
31.38500 400.000
31.40000 387.000
31.41500 434.000
31.43000 421.000
31.44500 394.000
31.46000 388.000
31.47500 403.000
31.49000 421.000
31.50500 391.000
31.52000 405.000
31.53500 396.000
31.55000 393.000
31.56500 420.000
31.58000 401.000
31.59500 409.000
31.61000 398.000
31.62500 430.000
31.64000 398.000
31.65500 411.000
31.67000 427.000
31.68500 407.000
31.70000 379.000
31.71500 411.000
31.73000 423.000
31.74500 424.000
31.76000 391.000
31.77500 400.000
31.79000 402.000
31.80500 432.000
31.82000 405.000
31.83500 423.000
31.85000 417.000
31.86500 455.000
31.88000 432.000
31.89500 454.000
31.91000 495.000
31.92500 497.000
31.94000 526.000
31.95500 572.000
31.97000 617.000
31.98500 660.000
32.00000 649.000
32.01500 650.000
32.03000 683.000
32.04500 664.000
32.06000 626.000
32.07500 611.000
32.09000 675.000
32.10500 656.000
32.12000 659.000
32.13500 677.000
32.15000 673.000
32.16500 673.000
32.18000 682.000
32.19500 701.000
32.21000 716.000
32.22500 703.000
32.24000 692.000
32.25500 680.000
32.27000 668.000
32.28500 618.000
32.30000 608.000
32.31500 632.000
32.33000 611.000
32.34500 566.000
32.36000 577.000
32.37500 550.000
32.39000 509.000
32.40500 500.000
32.42000 445.000
32.43500 451.000
32.45000 446.000
32.46500 421.000
32.48000 425.000
32.49500 422.000
32.51000 405.000
32.52500 443.000
32.54000 398.000
32.55500 408.000
32.57000 405.000
32.58500 391.000
32.60000 421.000
32.61500 417.000
32.63000 391.000
32.64500 397.000
32.66000 384.000
32.67500 380.000
32.69000 393.000
32.70500 375.000
32.72000 397.000
32.73500 374.000
32.75000 374.000
32.76500 391.000
32.78000 373.000
32.79500 381.000
32.81000 385.000
32.82500 378.000
32.84000 408.000
32.85500 376.000
32.87000 371.000
32.88500 379.000
32.90000 371.000
32.91500 395.000
32.93000 393.000
32.94500 356.000
32.96000 368.000
32.97500 370.000
32.99000 377.000
33.00500 385.000
33.02000 392.000
33.03500 361.000
33.05000 381.000
33.06500 381.000
33.08000 395.000
33.09500 351.000
33.11000 351.000
33.12500 356.000
33.14000 355.000
33.15500 385.000
33.17000 367.000
33.18500 367.000
33.20000 349.000
33.21500 351.000
33.23000 370.000
33.24500 370.000
33.26000 392.000
33.27500 393.000
33.29000 355.000
33.30500 332.000
33.32000 343.000
33.33500 334.000
33.35000 342.000
33.36500 337.000
33.38000 353.000
33.39500 340.000
33.41000 364.000
33.42500 364.000
33.44000 355.000
33.45500 340.000
33.47000 358.000
33.48500 366.000
33.50000 362.000
33.51500 358.000
33.53000 359.000
33.54500 359.000
33.56000 389.000
33.57500 342.000
33.59000 340.000
33.60500 340.000
33.62000 340.000
33.63500 340.000
33.65000 335.000
33.66500 331.000
33.68000 362.000
33.69500 349.000
33.71000 347.000
33.72500 336.000
33.74000 354.000
33.75500 370.000
33.77000 367.000
33.78500 347.000
33.80000 357.000
33.81500 351.000
33.83000 320.000
33.84500 310.000
33.86000 340.000
33.87500 339.000
33.89000 336.000
33.90500 313.000
33.92000 342.000
33.93500 362.000
33.95000 355.000
33.96500 329.000
33.98000 335.000
33.99500 340.000
34.01000 364.000
34.02500 331.000
34.04000 330.000
34.05500 334.000
34.07000 333.000
34.08500 317.000
34.10000 342.000
34.11500 350.000
34.13000 354.000
34.14500 357.000
34.16000 349.000
34.17500 336.000
34.19000 331.000
34.20500 341.000
34.22000 337.000
34.23500 343.000
34.25000 360.000
34.26500 345.000
34.28000 351.000
34.29500 340.000
34.31000 348.000
34.32500 360.000
34.34000 362.000
34.35500 374.000
34.37000 340.000
34.38500 376.000
34.40000 376.000
34.41500 336.000
34.43000 361.000
34.44500 367.000
34.46000 323.000
34.47500 365.000
34.49000 354.000
34.50500 333.000
34.52000 342.000
34.53500 346.000
34.55000 348.000
34.56500 356.000
34.58000 341.000
34.59500 338.000
34.61000 341.000
34.62500 383.000
34.64000 372.000
34.65500 363.000
34.67000 365.000
34.68500 374.000
34.70000 351.000
34.71500 364.000
34.73000 368.000
34.74500 374.000
34.76000 390.000
34.77500 390.000
34.79000 385.000
34.80500 371.000
34.82000 369.000
34.83500 378.000
34.85000 367.000
34.86500 388.000
34.88000 382.000
34.89500 401.000
34.91000 390.000
34.92500 385.000
34.94000 389.000
34.95500 384.000
34.97000 407.000
34.98500 430.000
35.00000 389.000
35.01500 395.000
35.03000 418.000
35.04500 409.000
35.06000 400.000
35.07500 391.000
35.09000 404.000
35.10500 400.000
35.12000 378.000
35.13500 376.000
35.15000 399.000
35.16500 400.000
35.18000 384.000
35.19500 393.000
35.21000 385.000
35.22500 341.000
35.24000 334.000
35.25500 352.000
35.27000 339.000
35.28500 333.000
35.30000 345.000
35.31500 319.000
35.33000 324.000
35.34500 332.000
35.36000 343.000
35.37500 326.000
35.39000 314.000
35.40500 334.000
35.42000 317.000
35.43500 322.000
35.45000 305.000
35.46500 318.000
35.48000 308.000
35.49500 309.000
35.51000 312.000
35.52500 287.000
35.54000 327.000
35.55500 335.000
35.57000 315.000
35.58500 309.000
35.60000 284.000
35.61500 287.000
35.63000 313.000
35.64500 308.000
35.66000 317.000
35.67500 322.000
35.69000 336.000
35.70500 297.000
35.72000 326.000
35.73500 304.000
35.75000 308.000
35.76500 314.000
35.78000 284.000
35.79500 293.000
35.81000 320.000
35.82500 317.000
35.84000 327.000
35.85500 307.000
35.87000 293.000
35.88500 317.000
35.90000 300.000
35.91500 289.000
35.93000 297.000
35.94500 270.000
35.96000 306.000
35.97500 312.000
35.99000 300.000
36.00500 297.000
36.02000 293.000
36.03500 281.000
36.05000 264.000
36.06500 288.000
36.08000 290.000
36.09500 312.000
36.11000 306.000
36.12500 280.000
36.14000 285.000
36.15500 272.000
36.17000 285.000
36.18500 275.000
36.20000 311.000
36.21500 301.000
36.23000 267.000
36.24500 275.000
36.26000 287.000
36.27500 278.000
36.29000 313.000
36.30500 321.000
36.32000 321.000
36.33500 284.000
36.35000 279.000
36.36500 285.000
36.38000 305.000
36.39500 302.000
36.41000 276.000
36.42500 287.000
36.44000 289.000
36.45500 301.000
36.47000 305.000
36.48500 316.000
36.50000 303.000
36.51500 324.000
36.53000 309.000
36.54500 292.000
36.56000 298.000
36.57500 289.000
36.59000 313.000
36.60500 287.000
36.62000 273.000
36.63500 270.000
36.65000 298.000
36.66500 296.000
36.68000 305.000
36.69500 283.000
36.71000 307.000
36.72500 301.000
36.74000 291.000
36.75500 277.000
36.77000 304.000
36.78500 308.000
36.80000 300.000
36.81500 291.000
36.83000 274.000
36.84500 269.000
36.86000 263.000
36.87500 280.000
36.89000 286.000
36.90500 302.000
36.92000 278.000
36.93500 279.000
36.95000 294.000
36.96500 285.000
36.98000 254.000
36.99500 287.000
37.01000 275.000
37.02500 264.000
37.04000 278.000
37.05500 271.000
37.07000 249.000
37.08500 269.000
37.10000 258.000
37.11500 264.000
37.13000 258.000
37.14500 287.000
37.16000 268.000
37.17500 254.000
37.19000 267.000
37.20500 258.000
37.22000 252.000
37.23500 253.000
37.25000 244.000
37.26500 267.000
37.28000 261.000
37.29500 269.000
37.31000 265.000
37.32500 273.000
37.34000 275.000
37.35500 265.000
37.37000 262.000
37.38500 277.000
37.40000 266.000
37.41500 244.000
37.43000 237.000
37.44500 256.000
37.46000 247.000
37.47500 251.000
37.49000 256.000
37.50500 275.000
37.52000 262.000
37.53500 276.000
37.55000 278.000
37.56500 249.000
37.58000 274.000
37.59500 280.000
37.61000 292.000
37.62500 275.000
37.64000 247.000
37.65500 255.000
37.67000 261.000
37.68500 247.000
37.70000 252.000
37.71500 261.000
37.73000 277.000
37.74500 260.000
37.76000 269.000
37.77500 284.000
37.79000 248.000
37.80500 240.000
37.82000 238.000
37.83500 251.000
37.85000 251.000
37.86500 271.000
37.88000 266.000
37.89500 289.000
37.91000 243.000
37.92500 244.000
37.94000 258.000
37.95500 242.000
37.97000 267.000
37.98500 293.000
38.00000 261.000
38.01500 224.000
38.03000 255.000
38.04500 246.000
38.06000 262.000
38.07500 256.000
38.09000 277.000
38.10500 246.000
38.12000 265.000
38.13500 250.000
38.15000 261.000
38.16500 236.000
38.18000 264.000
38.19500 256.000
38.21000 247.000
38.22500 279.000
38.24000 248.000
38.25500 241.000
38.27000 258.000
38.28500 253.000
38.30000 259.000
38.31500 263.000
38.33000 244.000
38.34500 240.000
38.36000 248.000
38.37500 280.000
38.39000 253.000
38.40500 258.000
38.42000 261.000
38.43500 262.000
38.45000 263.000
38.46500 263.000
38.48000 265.000
38.49500 280.000
38.51000 263.000
38.52500 255.000
38.54000 242.000
38.55500 253.000
38.57000 249.000
38.58500 273.000
38.60000 258.000
38.61500 262.000
38.63000 235.000
38.64500 235.000
38.66000 270.000
38.67500 253.000
38.69000 257.000
38.70500 261.000
38.72000 269.000
38.73500 260.000
38.75000 237.000
38.76500 245.000
38.78000 218.000
38.79500 230.000
38.81000 228.000
38.82500 249.000
38.84000 276.000
38.85500 258.000
38.87000 253.000
38.88500 235.000
38.90000 248.000
38.91500 261.000
38.93000 282.000
38.94500 277.000
38.96000 267.000
38.97500 253.000
38.99000 260.000
39.00500 254.000
39.02000 248.000
39.03500 276.000
39.05000 281.000
39.06500 262.000
39.08000 276.000
39.09500 288.000
39.11000 273.000
39.12500 254.000
39.14000 263.000
39.15500 260.000
39.17000 250.000
39.18500 271.000
39.20000 277.000
39.21500 240.000
39.23000 226.000
39.24500 271.000
39.26000 253.000
39.27500 255.000
39.29000 247.000
39.30500 278.000
39.32000 289.000
39.33500 262.000
39.35000 280.000
39.36500 269.000
39.38000 272.000
39.39500 288.000
39.41000 262.000
39.42500 273.000
39.44000 289.000
39.45500 281.000
39.47000 283.000
39.48500 283.000
39.50000 273.000
39.51500 285.000
39.53000 293.000
39.54500 299.000
39.56000 309.000
39.57500 281.000
39.59000 291.000
39.60500 321.000
39.62000 309.000
39.63500 299.000
39.65000 312.000
39.66500 306.000
39.68000 320.000
39.69500 340.000
39.71000 311.000
39.72500 314.000
39.74000 343.000
39.75500 361.000
39.77000 351.000
39.78500 326.000
39.80000 317.000
39.81500 343.000
39.83000 295.000
39.84500 320.000
39.86000 325.000
39.87500 290.000
39.89000 310.000
39.90500 307.000
39.92000 278.000
39.93500 278.000
39.95000 282.000
39.96500 286.000
39.98000 279.000
39.99500 258.000
40.01000 302.000
40.02500 295.000
40.04000 263.000
40.05500 264.000
40.07000 260.000
40.08500 277.000
40.10000 262.000
40.11500 267.000
40.13000 244.000
40.14500 273.000
40.16000 253.000
40.17500 254.000
40.19000 235.000
40.20500 238.000
40.22000 272.000
40.23500 265.000
40.25000 264.000
40.26500 235.000
40.28000 270.000
40.29500 255.000
40.31000 242.000
40.32500 241.000
40.34000 238.000
40.35500 244.000
40.37000 257.000
40.38500 241.000
40.40000 227.000
40.41500 230.000
40.43000 253.000
40.44500 237.000
40.46000 229.000
40.47500 227.000
40.49000 259.000
40.50500 213.000
40.52000 254.000
40.53500 262.000
40.55000 257.000
40.56500 237.000
40.58000 230.000
40.59500 240.000
40.61000 253.000
40.62500 239.000
40.64000 224.000
40.65500 231.000
40.67000 238.000
40.68500 246.000
40.70000 250.000
40.71500 244.000
40.73000 238.000
40.74500 258.000
40.76000 238.000
40.77500 238.000
40.79000 236.000
40.80500 225.000
40.82000 252.000
40.83500 238.000
40.85000 261.000
40.86500 242.000
40.88000 256.000
40.89500 252.000
40.91000 233.000
40.92500 243.000
40.94000 265.000
40.95500 237.000
40.97000 247.000
40.98500 242.000
41.00000 250.000
41.01500 239.000
41.03000 229.000
41.04500 232.000
41.06000 248.000
41.07500 248.000
41.09000 267.000
41.10500 247.000
41.12000 241.000
41.13500 257.000
41.15000 260.000
41.16500 258.000
41.18000 262.000
41.19500 245.000
41.21000 238.000
41.22500 254.000
41.24000 257.000
41.25500 268.000
41.27000 274.000
41.28500 261.000
41.30000 249.000
41.31500 261.000
41.33000 249.000
41.34500 243.000
41.36000 263.000
41.37500 257.000
41.39000 256.000
41.40500 253.000
41.42000 256.000
41.43500 264.000
41.45000 242.000
41.46500 255.000
41.48000 231.000
41.49500 236.000
41.51000 269.000
41.52500 256.000
41.54000 239.000
41.55500 253.000
41.57000 249.000
41.58500 247.000
41.60000 235.000
41.61500 243.000
41.63000 277.000
41.64500 272.000
41.66000 258.000
41.67500 237.000
41.69000 254.000
41.70500 248.000
41.72000 246.000
41.73500 238.000
41.75000 247.000
41.76500 253.000
41.78000 254.000
41.79500 277.000
41.81000 256.000
41.82500 260.000
41.84000 239.000
41.85500 256.000
41.87000 245.000
41.88500 246.000
41.90000 252.000
41.91500 250.000
41.93000 259.000
41.94500 235.000
41.96000 253.000
41.97500 257.000
41.99000 254.000
42.00500 259.000
42.02000 267.000
42.03500 257.000
42.05000 260.000
42.06500 290.000
42.08000 272.000
42.09500 257.000
42.11000 269.000
42.12500 272.000
42.14000 278.000
42.15500 293.000
42.17000 291.000
42.18500 279.000
42.20000 288.000
42.21500 338.000
42.23000 341.000
42.24500 341.000
42.26000 343.000
42.27500 348.000
42.29000 374.000
42.30500 368.000
42.32000 351.000
42.33500 330.000
42.35000 332.000
42.36500 304.000
42.38000 317.000
42.39500 312.000
42.41000 311.000
42.42500 313.000
42.44000 318.000
42.45500 331.000
42.47000 323.000
42.48500 304.000
42.50000 289.000
42.51500 327.000
42.53000 322.000
42.54500 334.000
42.56000 346.000
42.57500 339.000
42.59000 363.000
42.60500 337.000
42.62000 359.000
42.63500 362.000
42.65000 369.000
42.66500 346.000
42.68000 373.000
42.69500 352.000
42.71000 367.000
42.72500 321.000
42.74000 349.000
42.75500 323.000
42.77000 316.000
42.78500 322.000
42.80000 305.000
42.81500 290.000
42.83000 279.000
42.84500 262.000
42.86000 266.000
42.87500 276.000
42.89000 302.000
42.90500 284.000
42.92000 300.000
42.93500 301.000
42.95000 288.000
42.96500 286.000
42.98000 282.000
42.99500 266.000
43.01000 268.000
43.02500 271.000
43.04000 278.000
43.05500 287.000
43.07000 275.000
43.08500 290.000
43.10000 270.000
43.11500 270.000
43.13000 274.000
43.14500 268.000
43.16000 272.000
43.17500 258.000
43.19000 239.000
43.20500 259.000
43.22000 264.000
43.23500 276.000
43.25000 277.000
43.26500 265.000
43.28000 249.000
43.29500 267.000
43.31000 244.000
43.32500 268.000
43.34000 262.000
43.35500 263.000
43.37000 270.000
43.38500 283.000
43.40000 261.000
43.41500 266.000
43.43000 251.000
43.44500 240.000
43.46000 246.000
43.47500 253.000
43.49000 253.000
43.50500 262.000
43.52000 260.000
43.53500 252.000
43.55000 256.000
43.56500 253.000
43.58000 265.000
43.59500 254.000
43.61000 264.000
43.62500 266.000
43.64000 259.000
43.65500 253.000
43.67000 279.000
43.68500 284.000
43.70000 278.000
43.71500 258.000
43.73000 275.000
43.74500 240.000
43.76000 243.000
43.77500 228.000
43.79000 269.000
43.80500 271.000
43.82000 257.000
43.83500 247.000
43.85000 267.000
43.86500 288.000
43.88000 271.000
43.89500 298.000
43.91000 273.000
43.92500 282.000
43.94000 271.000
43.95500 300.000
43.97000 275.000
43.98500 279.000
44.00000 283.000
44.01500 274.000
44.03000 279.000
44.04500 300.000
44.06000 297.000
44.07500 289.000
44.09000 299.000
44.10500 287.000
44.12000 301.000
44.13500 302.000
44.15000 299.000
44.16500 314.000
44.18000 320.000
44.19500 306.000
44.21000 310.000
44.22500 344.000
44.24000 338.000
44.25500 358.000
44.27000 368.000
44.28500 384.000
44.30000 392.000
44.31500 393.000
44.33000 425.000
44.34500 450.000
44.36000 439.000
44.37500 435.000
44.39000 448.000
44.40500 458.000
44.42000 412.000
44.43500 416.000
44.45000 428.000
44.46500 390.000
44.48000 395.000
44.49500 430.000
44.51000 405.000
44.52500 397.000
44.54000 406.000
44.55500 447.000
44.57000 436.000
44.58500 419.000
44.60000 415.000
44.61500 438.000
44.63000 435.000
44.64500 432.000
44.66000 442.000
44.67500 460.000
44.69000 425.000
44.70500 460.000
44.72000 454.000
44.73500 420.000
44.75000 434.000
44.76500 439.000
44.78000 442.000
44.79500 434.000
44.81000 471.000
44.82500 479.000
44.84000 489.000
44.85500 489.000
44.87000 465.000
44.88500 463.000
44.90000 481.000
44.91500 462.000
44.93000 447.000
44.94500 466.000
44.96000 477.000
44.97500 450.000
44.99000 484.000
45.00500 454.000
45.02000 435.000
45.03500 434.000
45.05000 404.000
45.06500 382.000
45.08000 395.000
45.09500 394.000
45.11000 365.000
45.12500 379.000
45.14000 344.000
45.15500 331.000
45.17000 333.000
45.18500 346.000
45.20000 343.000
45.21500 344.000
45.23000 301.000
45.24500 307.000
45.26000 297.000
45.27500 308.000
45.29000 302.000
45.30500 312.000
45.32000 276.000
45.33500 282.000
45.35000 278.000
45.36500 264.000
45.38000 270.000
45.39500 283.000
45.41000 277.000
45.42500 256.000
45.44000 263.000
45.45500 266.000
45.47000 251.000
45.48500 251.000
45.50000 280.000
45.51500 260.000
45.53000 248.000
45.54500 253.000
45.56000 253.000
45.57500 239.000
45.59000 243.000
45.60500 248.000
45.62000 258.000
45.63500 251.000
45.65000 259.000
45.66500 260.000
45.68000 237.000
45.69500 248.000
45.71000 261.000
45.72500 233.000
45.74000 249.000
45.75500 248.000
45.77000 250.000
45.78500 232.000
45.80000 251.000
45.81500 253.000
45.83000 253.000
45.84500 237.000
45.86000 238.000
45.87500 241.000
45.89000 237.000
45.90500 249.000
45.92000 234.000
45.93500 232.000
45.95000 241.000
45.96500 246.000
45.98000 247.000
45.99500 243.000
46.01000 266.000
46.02500 253.000
46.04000 251.000
46.05500 248.000
46.07000 245.000
46.08500 241.000
46.10000 237.000
46.11500 240.000
46.13000 238.000
46.14500 248.000
46.16000 222.000
46.17500 244.000
46.19000 249.000
46.20500 252.000
46.22000 232.000
46.23500 260.000
46.25000 269.000
46.26500 255.000
46.28000 244.000
46.29500 257.000
46.31000 247.000
46.32500 265.000
46.34000 268.000
46.35500 276.000
46.37000 277.000
46.38500 268.000
46.40000 272.000
46.41500 273.000
46.43000 274.000
46.44500 255.000
46.46000 273.000
46.47500 263.000
46.49000 259.000
46.50500 265.000
46.52000 249.000
46.53500 257.000
46.55000 250.000
46.56500 246.000
46.58000 264.000
46.59500 251.000
46.61000 267.000
46.62500 256.000
46.64000 267.000
46.65500 268.000
46.67000 293.000
46.68500 277.000
46.70000 249.000
46.71500 240.000
46.73000 267.000
46.74500 262.000
46.76000 242.000
46.77500 261.000
46.79000 271.000
46.80500 264.000
46.82000 254.000
46.83500 266.000
46.85000 275.000
46.86500 246.000
46.88000 239.000
46.89500 240.000
46.91000 219.000
46.92500 229.000
46.94000 233.000
46.95500 273.000
46.97000 249.000
46.98500 240.000
47.00000 243.000
47.01500 242.000
47.03000 246.000
47.04500 230.000
47.06000 252.000
47.07500 249.000
47.09000 229.000
47.10500 225.000
47.12000 236.000
47.13500 243.000
47.15000 229.000
47.16500 218.000
47.18000 207.000
47.19500 217.000
47.21000 223.000
47.22500 228.000
47.24000 220.000
47.25500 223.000
47.27000 218.000
47.28500 231.000
47.30000 236.000
47.31500 222.000
47.33000 223.000
47.34500 218.000
47.36000 210.000
47.37500 220.000
47.39000 209.000
47.40500 232.000
47.42000 198.000
47.43500 223.000
47.45000 210.000
47.46500 209.000
47.48000 235.000
47.49500 234.000
47.51000 231.000
47.52500 214.000
47.54000 226.000
47.55500 242.000
47.57000 236.000
47.58500 231.000
47.60000 197.000
47.61500 226.000
47.63000 231.000
47.64500 226.000
47.66000 234.000
47.67500 224.000
47.69000 200.000
47.70500 202.000
47.72000 231.000
47.73500 235.000
47.75000 218.000
47.76500 205.000
47.78000 206.000
47.79500 209.000
47.81000 202.000
47.82500 215.000
47.84000 210.000
47.85500 187.000
47.87000 196.000
47.88500 207.000
47.90000 210.000
47.91500 203.000
47.93000 220.000
47.94500 208.000
47.96000 212.000
47.97500 204.000
47.99000 216.000
48.00500 222.000
48.02000 212.000
48.03500 217.000
48.05000 217.000
48.06500 212.000
48.08000 197.000
48.09500 198.000
48.11000 216.000
48.12500 231.000
48.14000 222.000
48.15500 206.000
48.17000 213.000
48.18500 212.000
48.20000 196.000
48.21500 197.000
48.23000 214.000
48.24500 212.000
48.26000 210.000
48.27500 220.000
48.29000 213.000
48.30500 199.000
48.32000 222.000
48.33500 219.000
48.35000 215.000
48.36500 210.000
48.38000 215.000
48.39500 208.000
48.41000 205.000
48.42500 201.000
48.44000 208.000
48.45500 209.000
48.47000 203.000
48.48500 191.000
48.50000 186.000
48.51500 198.000
48.53000 190.000
48.54500 208.000
48.56000 209.000
48.57500 221.000
48.59000 206.000
48.60500 228.000
48.62000 204.000
48.63500 200.000
48.65000 204.000
48.66500 224.000
48.68000 214.000
48.69500 213.000
48.71000 218.000
48.72500 210.000
48.74000 213.000
48.75500 225.000
48.77000 216.000
48.78500 232.000
48.80000 211.000
48.81500 213.000
48.83000 217.000
48.84500 203.000
48.86000 180.000
48.87500 186.000
48.89000 205.000
48.90500 211.000
48.92000 218.000
48.93500 207.000
48.95000 205.000
48.96500 203.000
48.98000 199.000
48.99500 205.000
49.01000 207.000
49.02500 202.000
49.04000 216.000
49.05500 203.000
49.07000 204.000
49.08500 201.000
49.10000 193.000
49.11500 207.000
49.13000 219.000
49.14500 202.000
49.16000 209.000
49.17500 203.000
49.19000 216.000
49.20500 210.000
49.22000 219.000
49.23500 201.000
49.25000 220.000
49.26500 221.000
49.28000 195.000
49.29500 220.000
49.31000 236.000
49.32500 214.000
49.34000 215.000
49.35500 214.000
49.37000 225.000
49.38500 235.000
49.40000 216.000
49.41500 202.000
49.43000 217.000
49.44500 208.000
49.46000 212.000
49.47500 220.000
49.49000 223.000
49.50500 219.000
49.52000 211.000
49.53500 207.000
49.55000 198.000
49.56500 184.000
49.58000 212.000
49.59500 234.000
49.61000 209.000
49.62500 207.000
49.64000 203.000
49.65500 237.000
49.67000 208.000
49.68500 202.000
49.70000 202.000
49.71500 203.000
49.73000 211.000
49.74500 213.000
49.76000 199.000
49.77500 190.000
49.79000 200.000
49.80500 201.000
49.82000 205.000
49.83500 206.000
49.85000 203.000
49.86500 200.000
49.88000 201.000
49.89500 211.000
49.91000 209.000
49.92500 208.000
49.94000 190.000
49.95500 214.000
49.97000 213.000
49.98500 196.000
50.00000 222.000
50.01500 217.000
50.03000 226.000
50.04500 210.000
50.06000 235.000
50.07500 183.000
50.09000 193.000
50.10500 218.000
50.12000 233.000
50.13500 220.000
50.15000 196.000
50.16500 198.000
50.18000 176.000
50.19500 222.000
50.21000 230.000
50.22500 243.000
50.24000 236.000
50.25500 232.000
50.27000 197.000
50.28500 187.000
50.30000 190.000
50.31500 212.000
50.33000 215.000
50.34500 197.000
50.36000 195.000
50.37500 220.000
50.39000 231.000
50.40500 243.000
50.42000 224.000
50.43500 212.000
50.45000 213.000
50.46500 221.000
50.48000 230.000
50.49500 195.000
50.51000 214.000
50.52500 217.000
50.54000 235.000
50.55500 237.000
50.57000 223.000
50.58500 235.000
50.60000 223.000
50.61500 231.000
50.63000 207.000
50.64500 207.000
50.66000 221.000
50.67500 228.000
50.69000 207.000
50.70500 208.000
50.72000 200.000
50.73500 206.000
50.75000 230.000
50.76500 233.000
50.78000 194.000
50.79500 215.000
50.81000 210.000
50.82500 236.000
50.84000 228.000
50.85500 220.000
50.87000 229.000
50.88500 221.000
50.90000 224.000
50.91500 209.000
50.93000 235.000
50.94500 217.000
50.96000 214.000
50.97500 213.000
50.99000 215.000
51.00500 227.000
51.02000 217.000
51.03500 231.000
51.05000 227.000
51.06500 209.000
51.08000 213.000
51.09500 231.000
51.11000 234.000
51.12500 240.000
51.14000 212.000
51.15500 225.000
51.17000 199.000
51.18500 197.000
51.20000 193.000
51.21500 194.000
51.23000 214.000
51.24500 237.000
51.26000 208.000
51.27500 204.000
51.29000 195.000
51.30500 218.000
51.32000 215.000
51.33500 233.000
51.35000 230.000
51.36500 226.000
51.38000 225.000
51.39500 210.000
51.41000 203.000
51.42500 189.000
51.44000 208.000
51.45500 215.000
51.47000 203.000
51.48500 195.000
51.50000 197.000
51.51500 204.000
51.53000 218.000
51.54500 217.000
51.56000 192.000
51.57500 192.000
51.59000 208.000
51.60500 191.000
51.62000 189.000
51.63500 191.000
51.65000 222.000
51.66500 194.000
51.68000 184.000
51.69500 200.000
51.71000 205.000
51.72500 197.000
51.74000 207.000
51.75500 198.000
51.77000 206.000
51.78500 222.000
51.80000 193.000
51.81500 201.000
51.83000 209.000
51.84500 205.000
51.86000 197.000
51.87500 208.000
51.89000 195.000
51.90500 210.000
51.92000 205.000
51.93500 211.000
51.95000 199.000
51.96500 205.000
51.98000 200.000
51.99500 196.000
52.01000 209.000
52.02500 209.000
52.04000 199.000
52.05500 195.000
52.07000 189.000
52.08500 192.000
52.10000 209.000
52.11500 172.000
52.13000 177.000
52.14500 197.000
52.16000 224.000
52.17500 214.000
52.19000 200.000
52.20500 198.000
52.22000 233.000
52.23500 223.000
52.25000 200.000
52.26500 193.000
52.28000 205.000
52.29500 208.000
52.31000 208.000
52.32500 176.000
52.34000 201.000
52.35500 228.000
52.37000 197.000
52.38500 201.000
52.40000 188.000
52.41500 169.000
52.43000 185.000
52.44500 201.000
52.46000 198.000
52.47500 189.000
52.49000 226.000
52.50500 223.000
52.52000 202.000
52.53500 192.000
52.55000 199.000
52.56500 186.000
52.58000 186.000
52.59500 202.000
52.61000 212.000
52.62500 219.000
52.64000 210.000
52.65500 223.000
52.67000 200.000
52.68500 206.000
52.70000 207.000
52.71500 207.000
52.73000 227.000
52.74500 241.000
52.76000 213.000
52.77500 206.000
52.79000 200.000
52.80500 205.000
52.82000 201.000
52.83500 223.000
52.85000 186.000
52.86500 180.000
52.88000 204.000
52.89500 212.000
52.91000 202.000
52.92500 199.000
52.94000 202.000
52.95500 205.000
52.97000 194.000
52.98500 211.000
53.00000 201.000
53.01500 198.000
53.03000 199.000
53.04500 225.000
53.06000 215.000
53.07500 199.000
53.09000 197.000
53.10500 206.000
53.12000 212.000
53.13500 211.000
53.15000 206.000
53.16500 200.000
53.18000 207.000
53.19500 206.000
53.21000 189.000
53.22500 205.000
53.24000 207.000
53.25500 203.000
53.27000 197.000
53.28500 192.000
53.30000 175.000
53.31500 188.000
53.33000 180.000
53.34500 192.000
53.36000 214.000
53.37500 180.000
53.39000 203.000
53.40500 214.000
53.42000 198.000
53.43500 191.000
53.45000 193.000
53.46500 189.000
53.48000 195.000
53.49500 202.000
53.51000 187.000
53.52500 184.000
53.54000 178.000
53.55500 204.000
53.57000 181.000
53.58500 201.000
53.60000 206.000
53.61500 183.000
53.63000 179.000
53.64500 201.000
53.66000 204.000
53.67500 189.000
53.69000 194.000
53.70500 185.000
53.72000 200.000
53.73500 214.000
53.75000 202.000
53.76500 197.000
53.78000 204.000
53.79500 189.000
53.81000 186.000
53.82500 213.000
53.84000 210.000
53.85500 194.000
53.87000 194.000
53.88500 199.000
53.90000 209.000
53.91500 201.000
53.93000 204.000
53.94500 207.000
53.96000 208.000
53.97500 213.000
53.99000 214.000
54.00500 212.000
54.02000 217.000
54.03500 223.000
54.05000 225.000
54.06500 218.000
54.08000 203.000
54.09500 210.000
54.11000 207.000
54.12500 217.000
54.14000 204.000
54.15500 216.000
54.17000 210.000
54.18500 215.000
54.20000 223.000
54.21500 228.000
54.23000 219.000
54.24500 217.000
54.26000 229.000
54.27500 225.000
54.29000 216.000
54.30500 233.000
54.32000 221.000
54.33500 204.000
54.35000 215.000
54.36500 202.000
54.38000 199.000
54.39500 207.000
54.41000 208.000
54.42500 206.000
54.44000 200.000
54.45500 207.000
54.47000 197.000
54.48500 207.000
54.50000 214.000
54.51500 214.000
54.53000 225.000
54.54500 230.000
54.56000 208.000
54.57500 208.000
54.59000 212.000
54.60500 213.000
54.62000 221.000
54.63500 206.000
54.65000 201.000
54.66500 228.000
54.68000 218.000
54.69500 202.000
54.71000 191.000
54.72500 198.000
54.74000 202.000
54.75500 201.000
54.77000 214.000
54.78500 208.000
54.80000 198.000
54.81500 206.000
54.83000 210.000
54.84500 196.000
54.86000 210.000
54.87500 204.000
54.89000 186.000
54.90500 192.000
54.92000 207.000
54.93500 204.000
54.95000 186.000
54.96500 177.000
54.98000 180.000
54.99500 213.000
55.01000 194.000
55.02500 200.000
55.04000 207.000
55.05500 200.000
55.07000 212.000
55.08500 193.000
55.10000 183.000
55.11500 206.000
55.13000 189.000
55.14500 215.000
55.16000 208.000
55.17500 214.000
55.19000 200.000
55.20500 207.000
55.22000 199.000
55.23500 233.000
55.25000 217.000
55.26500 217.000
55.28000 208.000
55.29500 202.000
55.31000 190.000
55.32500 182.000
55.34000 195.000
55.35500 207.000
55.37000 200.000
55.38500 198.000
55.40000 207.000
55.41500 198.000
55.43000 198.000
55.44500 193.000
55.46000 207.000
55.47500 202.000
55.49000 210.000
55.50500 199.000
55.52000 214.000
55.53500 223.000
55.55000 216.000
55.56500 226.000
55.58000 214.000
55.59500 232.000
55.61000 219.000
55.62500 220.000
55.64000 237.000
55.65500 212.000
55.67000 211.000
55.68500 217.000
55.70000 220.000
55.71500 221.000
55.73000 246.000
55.74500 247.000
55.76000 219.000
55.77500 231.000
55.79000 242.000
55.80500 256.000
55.82000 245.000
55.83500 259.000
55.85000 256.000
55.86500 226.000
55.88000 265.000
55.89500 251.000
55.91000 245.000
55.92500 282.000
55.94000 267.000
55.95500 249.000
55.97000 275.000
55.98500 268.000
56.00000 262.000
56.01500 287.000
56.03000 285.000
56.04500 281.000
56.06000 274.000
56.07500 267.000
56.09000 287.000
56.10500 268.000
56.12000 263.000
56.13500 276.000
56.15000 273.000
56.16500 274.000
56.18000 278.000
56.19500 292.000
56.21000 266.000
56.22500 270.000
56.24000 284.000
56.25500 242.000
56.27000 269.000
56.28500 287.000
56.30000 316.000
56.31500 288.000
56.33000 261.000
56.34500 252.000
56.36000 261.000
56.37500 262.000
56.39000 260.000
56.40500 257.000
56.42000 287.000
56.43500 283.000
56.45000 264.000
56.46500 248.000
56.48000 271.000
56.49500 272.000
56.51000 267.000
56.52500 269.000
56.54000 242.000
56.55500 259.000
56.57000 244.000
56.58500 255.000
56.60000 249.000
56.61500 250.000
56.63000 234.000
56.64500 247.000
56.66000 238.000
56.67500 239.000
56.69000 248.000
56.70500 230.000
56.72000 242.000
56.73500 256.000
56.75000 235.000
56.76500 223.000
56.78000 236.000
56.79500 224.000
56.81000 227.000
56.82500 216.000
56.84000 225.000
56.85500 223.000
56.87000 227.000
56.88500 222.000
56.90000 223.000
56.91500 217.000
56.93000 248.000
56.94500 231.000
56.96000 224.000
56.97500 235.000
56.99000 231.000
57.00500 222.000
57.02000 239.000
57.03500 234.000
57.05000 226.000
57.06500 242.000
57.08000 226.000
57.09500 246.000
57.11000 238.000
57.12500 222.000
57.14000 227.000
57.15500 218.000
57.17000 222.000
57.18500 243.000
57.20000 242.000
57.21500 248.000
57.23000 248.000
57.24500 257.000
57.26000 208.000
57.27500 219.000
57.29000 219.000
57.30500 236.000
57.32000 220.000
57.33500 232.000
57.35000 230.000
57.36500 223.000
57.38000 227.000
57.39500 230.000
57.41000 225.000
57.42500 216.000
57.44000 228.000
57.45500 228.000
57.47000 219.000
57.48500 231.000
57.50000 221.000
57.51500 216.000
57.53000 205.000
57.54500 213.000
57.56000 223.000
57.57500 224.000
57.59000 208.000
57.60500 200.000
57.62000 220.000
57.63500 206.000
57.65000 206.000
57.66500 207.000
57.68000 216.000
57.69500 190.000
57.71000 216.000
57.72500 204.000
57.74000 202.000
57.75500 217.000
57.77000 204.000
57.78500 212.000
57.80000 200.000
57.81500 197.000
57.83000 198.000
57.84500 197.000
57.86000 184.000
57.87500 202.000
57.89000 202.000
57.90500 204.000
57.92000 198.000
57.93500 211.000
57.95000 187.000
57.96500 189.000
57.98000 203.000
57.99500 190.000
58.01000 192.000
58.02500 202.000
58.04000 179.000
58.05500 193.000
58.07000 180.000
58.08500 196.000
58.10000 190.000
58.11500 217.000
58.13000 196.000
58.14500 193.000
58.16000 180.000
58.17500 187.000
58.19000 198.000
58.20500 207.000
58.22000 191.000
58.23500 171.000
58.25000 195.000
58.26500 185.000
58.28000 164.000
58.29500 174.000
58.31000 191.000
58.32500 202.000
58.34000 180.000
58.35500 193.000
58.37000 205.000
58.38500 191.000
58.40000 194.000
58.41500 192.000
58.43000 193.000
58.44500 196.000
58.46000 194.000
58.47500 195.000
58.49000 196.000
58.50500 169.000
58.52000 167.000
58.53500 185.000
58.55000 181.000
58.56500 195.000
58.58000 197.000
58.59500 186.000
58.61000 195.000
58.62500 187.000
58.64000 185.000
58.65500 193.000
58.67000 193.000
58.68500 192.000
58.70000 187.000
58.71500 182.000
58.73000 172.000
58.74500 174.000
58.76000 177.000
58.77500 183.000
58.79000 173.000
58.80500 179.000
58.82000 168.000
58.83500 188.000
58.85000 205.000
58.86500 198.000
58.88000 189.000
58.89500 207.000
58.91000 189.000
58.92500 200.000
58.94000 207.000
58.95500 205.000
58.97000 199.000
58.98500 188.000
59.00000 213.000
59.01500 199.000
59.03000 185.000
59.04500 178.000
59.06000 179.000
59.07500 198.000
59.09000 192.000
59.10500 196.000
59.12000 181.000
59.13500 194.000
59.15000 189.000
59.16500 196.000
59.18000 192.000
59.19500 182.000
59.21000 173.000
59.22500 191.000
59.24000 187.000
59.25500 181.000
59.27000 192.000
59.28500 193.000
59.30000 183.000
59.31500 191.000
59.33000 207.000
59.34500 196.000
59.36000 182.000
59.37500 178.000
59.39000 186.000
59.40500 175.000
59.42000 190.000
59.43500 180.000
59.45000 175.000
59.46500 182.000
59.48000 174.000
59.49500 195.000
59.51000 185.000
59.52500 173.000
59.54000 177.000
59.55500 171.000
59.57000 188.000
59.58500 193.000
59.60000 201.000
59.61500 197.000
59.63000 183.000
59.64500 177.000
59.66000 187.000
59.67500 187.000
59.69000 182.000
59.70500 182.000
59.72000 181.000
59.73500 186.000
59.75000 180.000
59.76500 178.000
59.78000 165.000
59.79500 167.000
59.81000 179.000
59.82500 191.000
59.84000 200.000
59.85500 199.000
59.87000 183.000
59.88500 186.000
59.90000 198.000
59.91500 197.000
59.93000 180.000
59.94500 177.000
59.96000 193.000
59.97500 176.000
59.99000 211.000
60.00500 187.000
60.02000 175.000
60.03500 189.000
60.05000 153.000
60.06500 181.000
60.08000 170.000
60.09500 174.000
60.11000 188.000
60.12500 172.000
60.14000 189.000
60.15500 183.000
60.17000 196.000
60.18500 198.000
60.20000 170.000
60.21500 179.000
60.23000 186.000
60.24500 169.000
60.26000 180.000
60.27500 185.000
60.29000 189.000
60.30500 188.000
60.32000 164.000
60.33500 195.000
60.35000 200.000
60.36500 197.000
60.38000 188.000
60.39500 186.000
60.41000 178.000
60.42500 185.000
60.44000 178.000
60.45500 179.000
60.47000 194.000
60.48500 193.000
60.50000 180.000
60.51500 181.000
60.53000 174.000
60.54500 185.000
60.56000 183.000
60.57500 185.000
60.59000 183.000
60.60500 178.000
60.62000 185.000
60.63500 203.000
60.65000 185.000
60.66500 198.000
60.68000 194.000
60.69500 183.000
60.71000 173.000
60.72500 185.000
60.74000 212.000
60.75500 197.000
60.77000 173.000
60.78500 198.000
60.80000 178.000
60.81500 166.000
60.83000 179.000
60.84500 192.000
60.86000 190.000
60.87500 180.000
60.89000 187.000
60.90500 181.000
60.92000 184.000
60.93500 186.000
60.95000 182.000
60.96500 159.000
60.98000 190.000
60.99500 165.000
61.01000 185.000
61.02500 173.000
61.04000 159.000
61.05500 182.000
61.07000 179.000
61.08500 214.000
61.10000 169.000
61.11500 175.000
61.13000 188.000
61.14500 197.000
61.16000 186.000
61.17500 177.000
61.19000 176.000
61.20500 185.000
61.22000 158.000
61.23500 163.000
61.25000 185.000
61.26500 203.000
61.28000 189.000
61.29500 188.000
61.31000 206.000
61.32500 202.000
61.34000 214.000
61.35500 207.000
61.37000 193.000
61.38500 169.000
61.40000 168.000
61.41500 190.000
61.43000 178.000
61.44500 181.000
61.46000 194.000
61.47500 192.000
61.49000 189.000
61.50500 174.000
61.52000 176.000
61.53500 178.000
61.55000 179.000
61.56500 179.000
61.58000 182.000
61.59500 184.000
61.61000 185.000
61.62500 169.000
61.64000 184.000
61.65500 184.000
61.67000 191.000
61.68500 185.000
61.70000 164.000
61.71500 192.000
61.73000 200.000
61.74500 201.000
61.76000 185.000
61.77500 173.000
61.79000 171.000
61.80500 174.000
61.82000 175.000
61.83500 189.000
61.85000 188.000
61.86500 174.000
61.88000 176.000
61.89500 182.000
61.91000 185.000
61.92500 192.000
61.94000 201.000
61.95500 187.000
61.97000 175.000
61.98500 175.000
