2.00000 4.000
2.01500 7.000
2.03000 3.000
2.04500 2.000
2.06000 3.000
2.07500 4.000
2.09000 3.000
2.10500 5.000
2.12000 3.000
2.13500 3.000
2.15000 3.000
2.16500 3.000
2.18000 2.000
2.19500 3.000
2.21000 4.000
2.22500 1.000
2.24000 2.000
2.25500 5.000
2.27000 4.000
2.28500 5.000
2.30000 4.000
2.31500 5.000
2.33000 2.000
2.34500 2.000
2.36000 2.000
2.37500 1.000
2.39000 3.000
2.40500 3.000
2.42000 6.000
2.43500 4.000
2.45000 4.000
2.46500 5.000
2.48000 2.000
2.49500 2.000
2.51000 0.000
2.52500 3.000
2.54000 5.000
2.55500 1.000
2.57000 2.000
2.58500 2.000
2.60000 4.000
2.61500 2.000
2.63000 2.000
2.64500 3.000
2.66000 6.000
2.67500 7.000
2.69000 5.000
2.70500 5.000
2.72000 6.000
2.73500 4.000
2.75000 3.000
2.76500 5.000
2.78000 3.000
2.79500 4.000
2.81000 4.000
2.82500 4.000
2.84000 3.000
2.85500 3.000
2.87000 3.000
2.88500 3.000
2.90000 2.000
2.91500 2.000
2.93000 3.000
2.94500 3.000
2.96000 1.000
2.97500 2.000
2.99000 6.000
3.00500 3.000
3.02000 3.000
3.03500 5.000
3.05000 4.000
3.06500 6.000
3.08000 6.000
3.09500 3.000
3.11000 7.000
3.12500 6.000
3.14000 10.000
3.15500 13.000
3.17000 22.000
3.18500 59.000
3.20000 123.000
3.21500 182.000
3.23000 284.000
3.24500 402.000
3.26000 546.000
3.27500 643.000
3.29000 683.000
3.30500 777.000
3.32000 769.000
3.33500 768.000
3.35000 728.000
3.36500 718.000
3.38000 679.000
3.39500 701.000
3.41000 668.000
3.42500 685.000
3.44000 646.000
3.45500 642.000
3.47000 652.000
3.48500 674.000
3.50000 599.000
3.51500 630.000
3.53000 637.000
3.54500 625.000
3.56000 644.000
3.57500 604.000
3.59000 582.000
3.60500 585.000
3.62000 577.000
3.63500 587.000
3.65000 541.000
3.66500 573.000
3.68000 568.000
3.69500 547.000
3.71000 534.000
3.72500 534.000
3.74000 552.000
3.75500 531.000
3.77000 485.000
3.78500 486.000
3.80000 472.000
3.81500 507.000
3.83000 485.000
3.84500 483.000
3.86000 479.000
3.87500 503.000
3.89000 491.000
3.90500 499.000
3.92000 480.000
3.93500 455.000
3.95000 427.000
3.96500 422.000
3.98000 433.000
3.99500 463.000
4.01000 440.000
4.02500 441.000
4.04000 449.000
4.05500 424.000
4.07000 424.000
4.08500 418.000
4.10000 412.000
4.11500 393.000
4.13000 389.000
4.14500 374.000
4.16000 395.000
4.17500 404.000
4.19000 384.000
4.20500 378.000
4.22000 361.000
4.23500 352.000
4.25000 359.000
4.26500 367.000
4.28000 368.000
4.29500 366.000
4.31000 385.000
4.32500 386.000
4.34000 362.000
4.35500 359.000
4.37000 357.000
4.38500 362.000
4.40000 343.000
4.41500 342.000
4.43000 325.000
4.44500 321.000
4.46000 320.000
4.47500 331.000
4.49000 340.000
4.50500 338.000
4.52000 321.000
4.53500 340.000
4.55000 334.000
4.56500 298.000
4.58000 293.000
4.59500 317.000
4.61000 311.000
4.62500 288.000
4.64000 309.000
4.65500 319.000
4.67000 321.000
4.68500 299.000
4.70000 320.000
4.71500 319.000
4.73000 285.000
4.74500 293.000
4.76000 313.000
4.77500 252.000
4.79000 265.000
4.80500 301.000
4.82000 292.000
4.83500 291.000
4.85000 288.000
4.86500 273.000
4.88000 270.000
4.89500 274.000
4.91000 274.000
4.92500 270.000
4.94000 255.000
4.95500 273.000
4.97000 276.000
4.98500 256.000
5.00000 266.000
5.01500 289.000
5.03000 267.000
5.04500 258.000
5.06000 268.000
5.07500 282.000
5.09000 261.000
5.10500 265.000
5.12000 270.000
5.13500 254.000
5.15000 248.000
5.16500 243.000
5.18000 241.000
5.19500 258.000
5.21000 256.000
5.22500 264.000
5.24000 262.000
5.25500 251.000
5.27000 262.000
5.28500 235.000
5.30000 219.000
5.31500 236.000
5.33000 231.000
5.34500 250.000
5.36000 217.000
5.37500 218.000
5.39000 227.000
5.40500 252.000
5.42000 219.000
5.43500 226.000
5.45000 232.000
5.46500 248.000
5.48000 259.000
5.49500 259.000
5.51000 243.000
5.52500 223.000
5.54000 225.000
5.55500 228.000
5.57000 237.000
5.58500 214.000
5.60000 255.000
5.61500 248.000
5.63000 226.000
5.64500 241.000
5.66000 229.000
5.67500 234.000
5.69000 228.000
5.70500 236.000
5.72000 226.000
5.73500 229.000
5.75000 218.000
5.76500 238.000
5.78000 221.000
5.79500 219.000
5.81000 225.000
5.82500 217.000
5.84000 240.000
5.85500 235.000
5.87000 225.000
5.88500 215.000
5.90000 222.000
5.91500 251.000
5.93000 240.000
5.94500 224.000
5.96000 216.000
5.97500 225.000
5.99000 218.000
6.00500 224.000
6.02000 209.000
6.03500 224.000
6.05000 205.000
6.06500 205.000
6.08000 210.000
6.09500 208.000
6.11000 207.000
6.12500 215.000
6.14000 216.000
6.15500 226.000
6.17000 230.000
6.18500 202.000
6.20000 204.000
6.21500 207.000
6.23000 230.000
6.24500 204.000
6.26000 214.000
6.27500 206.000
6.29000 191.000
6.30500 213.000
6.32000 194.000
6.33500 190.000
6.35000 206.000
6.36500 208.000
6.38000 181.000
6.39500 187.000
6.41000 202.000
6.42500 231.000
6.44000 213.000
6.45500 218.000
6.47000 213.000
6.48500 210.000
6.50000 199.000
6.51500 204.000
6.53000 203.000
6.54500 213.000
6.56000 205.000
6.57500 187.000
6.59000 197.000
6.60500 208.000
6.62000 197.000
6.63500 185.000
6.65000 200.000
6.66500 205.000
6.68000 209.000
6.69500 182.000
6.71000 219.000
6.72500 229.000
6.74000 222.000
6.75500 206.000
6.77000 226.000
6.78500 206.000
6.80000 220.000
6.81500 214.000
6.83000 203.000
6.84500 193.000
6.86000 205.000
6.87500 207.000
6.89000 208.000
6.90500 211.000
6.92000 202.000
6.93500 207.000
6.95000 209.000
6.96500 225.000
6.98000 214.000
6.99500 208.000
7.01000 222.000
7.02500 234.000
7.04000 212.000
7.05500 222.000
7.07000 225.000
7.08500 203.000
7.10000 232.000
7.11500 215.000
7.13000 213.000
7.14500 220.000
7.16000 206.000
7.17500 209.000
7.19000 214.000
7.20500 223.000
7.22000 217.000
7.23500 221.000
7.25000 216.000
7.26500 219.000
7.28000 222.000
7.29500 228.000
7.31000 238.000
7.32500 211.000
7.34000 217.000
7.35500 245.000
7.37000 237.000
7.38500 253.000
7.40000 258.000
7.41500 232.000
7.43000 234.000
7.44500 241.000
7.46000 249.000
7.47500 252.000
7.49000 253.000
7.50500 238.000
7.52000 240.000
7.53500 247.000
7.55000 250.000
7.56500 271.000
7.58000 280.000
7.59500 292.000
7.61000 301.000
7.62500 281.000
7.64000 294.000
7.65500 323.000
7.67000 325.000
7.68500 324.000
7.70000 343.000
7.71500 358.000
7.73000 354.000
7.74500 392.000
7.76000 410.000
7.77500 419.000
7.79000 448.000
7.80500 442.000
7.82000 475.000
7.83500 480.000
7.85000 545.000
7.86500 510.000
7.88000 518.000
7.89500 565.000
7.91000 589.000
7.92500 600.000
7.94000 610.000
7.95500 616.000
7.97000 589.000
7.98500 645.000
8.00000 661.000
8.01500 629.000
8.03000 669.000
8.04500 661.000
8.06000 691.000
8.07500 667.000
8.09000 693.000
8.10500 667.000
8.12000 664.000
8.13500 661.000
8.15000 646.000
8.16500 634.000
8.18000 664.000
8.19500 645.000
8.21000 640.000
8.22500 597.000
8.24000 593.000
8.25500 561.000
8.27000 576.000
8.28500 550.000
8.30000 548.000
8.31500 552.000
8.33000 536.000
8.34500 541.000
8.36000 536.000
8.37500 541.000
8.39000 515.000
8.40500 488.000
8.42000 520.000
8.43500 481.000
8.45000 488.000
8.46500 511.000
8.48000 497.000
8.49500 483.000
8.51000 503.000
8.52500 480.000
8.54000 471.000
8.55500 450.000
8.57000 459.000
8.58500 442.000
8.60000 456.000
8.61500 449.000
8.63000 451.000
8.64500 439.000
8.66000 461.000
8.67500 432.000
8.69000 433.000
8.70500 427.000
8.72000 468.000
8.73500 436.000
8.75000 433.000
8.76500 439.000
8.78000 463.000
8.79500 456.000
8.81000 425.000
8.82500 437.000
8.84000 417.000
8.85500 420.000
8.87000 416.000
8.88500 426.000
8.90000 397.000
8.91500 422.000
8.93000 443.000
8.94500 436.000
8.96000 444.000
8.97500 405.000
8.99000 425.000
9.00500 404.000
9.02000 401.000
9.03500 387.000
9.05000 407.000
9.06500 446.000
9.08000 409.000
9.09500 391.000
9.11000 408.000
9.12500 403.000
9.14000 404.000
9.15500 428.000
9.17000 402.000
9.18500 379.000
9.20000 405.000
9.21500 434.000
9.23000 383.000
9.24500 386.000
9.26000 411.000
9.27500 418.000
9.29000 377.000
9.30500 408.000
9.32000 380.000
9.33500 362.000
9.35000 375.000
9.36500 366.000
9.38000 373.000
9.39500 368.000
9.41000 392.000
9.42500 384.000
9.44000 378.000
9.45500 360.000
9.47000 358.000
9.48500 372.000
9.50000 342.000
9.51500 354.000
9.53000 368.000
9.54500 360.000
9.56000 373.000
9.57500 341.000
9.59000 345.000
9.60500 369.000
9.62000 346.000
9.63500 365.000
9.65000 353.000
9.66500 330.000
9.68000 320.000
9.69500 319.000
9.71000 340.000
9.72500 326.000
9.74000 345.000
9.75500 325.000
9.77000 307.000
9.78500 294.000
9.80000 309.000
9.81500 312.000
9.83000 297.000
9.84500 290.000
9.86000 293.000
9.87500 295.000
9.89000 301.000
9.90500 294.000
9.92000 285.000
9.93500 282.000
9.95000 284.000
9.96500 289.000
9.98000 288.000
9.99500 293.000
10.01000 299.000
10.02500 261.000
10.04000 248.000
10.05500 262.000
10.07000 268.000
10.08500 255.000
10.10000 282.000
10.11500 260.000
10.13000 247.000
10.14500 253.000
10.16000 264.000
10.17500 245.000
10.19000 228.000
10.20500 262.000
10.22000 268.000
10.23500 262.000
10.25000 225.000
10.26500 253.000
10.28000 219.000
10.29500 253.000
10.31000 232.000
10.32500 228.000
10.34000 232.000
10.35500 223.000
10.37000 251.000
10.38500 247.000
10.40000 214.000
10.41500 242.000
10.43000 237.000
10.44500 208.000
10.46000 211.000
10.47500 222.000
10.49000 230.000
10.50500 213.000
10.52000 200.000
10.53500 188.000
10.55000 229.000
10.56500 221.000
10.58000 204.000
10.59500 216.000
10.61000 212.000
10.62500 210.000
10.64000 208.000
10.65500 211.000
10.67000 214.000
10.68500 215.000
10.70000 195.000
10.71500 187.000
10.73000 209.000
10.74500 201.000
10.76000 206.000
10.77500 205.000
10.79000 191.000
10.80500 182.000
10.82000 192.000
10.83500 188.000
10.85000 187.000
10.86500 207.000
10.88000 199.000
10.89500 190.000
10.91000 177.000
10.92500 184.000
10.94000 171.000
10.95500 190.000
10.97000 192.000
10.98500 180.000
11.00000 176.000
11.01500 204.000
11.03000 177.000
11.04500 170.000
11.06000 171.000
11.07500 195.000
11.09000 183.000
11.10500 203.000
11.12000 212.000
11.13500 204.000
11.15000 185.000
11.16500 174.000
11.18000 176.000
11.19500 209.000
11.21000 204.000
11.22500 188.000
11.24000 189.000
11.25500 183.000
11.27000 176.000
11.28500 187.000
11.30000 186.000
11.31500 177.000
11.33000 186.000
11.34500 173.000
11.36000 181.000
11.37500 194.000
11.39000 195.000
11.40500 206.000
11.42000 211.000
11.43500 193.000
11.45000 182.000
11.46500 177.000
11.48000 190.000
11.49500 201.000
11.51000 164.000
11.52500 182.000
11.54000 195.000
11.55500 187.000
11.57000 185.000
11.58500 185.000
11.60000 176.000
11.61500 175.000
11.63000 185.000
11.64500 176.000
11.66000 198.000
11.67500 195.000
11.69000 170.000
11.70500 179.000
11.72000 187.000
11.73500 174.000
11.75000 167.000
11.76500 174.000
11.78000 177.000
11.79500 162.000
11.81000 207.000
11.82500 188.000
11.84000 179.000
11.85500 190.000
11.87000 166.000
11.88500 182.000
11.90000 172.000
11.91500 171.000
11.93000 179.000
11.94500 178.000
11.96000 183.000
11.97500 193.000
11.99000 162.000
12.00500 164.000
12.02000 186.000
12.03500 182.000
12.05000 179.000
12.06500 166.000
12.08000 165.000
12.09500 167.000
12.11000 171.000
12.12500 183.000
12.14000 196.000
12.15500 202.000
12.17000 172.000
12.18500 169.000
12.20000 181.000
12.21500 190.000
12.23000 167.000
12.24500 178.000
12.26000 177.000
12.27500 160.000
12.29000 166.000
12.30500 175.000
12.32000 184.000
12.33500 190.000
12.35000 187.000
12.36500 174.000
12.38000 178.000
12.39500 170.000
12.41000 185.000
12.42500 188.000
12.44000 184.000
12.45500 175.000
12.47000 173.000
12.48500 175.000
12.50000 172.000
12.51500 169.000
12.53000 168.000
12.54500 185.000
12.56000 207.000
12.57500 196.000
12.59000 175.000
12.60500 165.000
12.62000 185.000
12.63500 176.000
12.65000 167.000
12.66500 181.000
12.68000 192.000
12.69500 194.000
12.71000 163.000
12.72500 172.000
12.74000 180.000
12.75500 173.000
12.77000 173.000
12.78500 163.000
12.80000 171.000
12.81500 168.000
12.83000 162.000
12.84500 174.000
12.86000 176.000
12.87500 162.000
12.89000 174.000
12.90500 166.000
12.92000 187.000
12.93500 189.000
12.95000 179.000
12.96500 179.000
12.98000 179.000
12.99500 187.000
13.01000 182.000
13.02500 164.000
13.04000 175.000
13.05500 174.000
13.07000 176.000
13.08500 178.000
13.10000 163.000
13.11500 191.000
13.13000 177.000
13.14500 187.000
13.16000 174.000
13.17500 167.000
13.19000 176.000
13.20500 172.000
13.22000 184.000
13.23500 178.000
13.25000 181.000
13.26500 187.000
13.28000 176.000
13.29500 178.000
13.31000 173.000
13.32500 180.000
13.34000 183.000
13.35500 167.000
13.37000 166.000
13.38500 169.000
13.40000 175.000
13.41500 198.000
13.43000 171.000
13.44500 164.000
13.46000 159.000
13.47500 184.000
13.49000 184.000
13.50500 193.000
13.52000 198.000
13.53500 197.000
13.55000 194.000
13.56500 194.000
13.58000 181.000
13.59500 182.000
13.61000 172.000
13.62500 191.000
13.64000 172.000
13.65500 175.000
13.67000 166.000
13.68500 171.000
13.70000 184.000
13.71500 195.000
13.73000 190.000
13.74500 188.000
13.76000 192.000
13.77500 189.000
13.79000 183.000
13.80500 197.000
13.82000 197.000
13.83500 197.000
13.85000 194.000
13.86500 184.000
13.88000 198.000
13.89500 183.000
13.91000 195.000
13.92500 201.000
13.94000 197.000
13.95500 186.000
13.97000 185.000
13.98500 182.000
14.00000 198.000
14.01500 207.000
14.03000 210.000
14.04500 183.000
14.06000 188.000
14.07500 181.000
14.09000 197.000
14.10500 197.000
14.12000 185.000
14.13500 183.000
14.15000 185.000
14.16500 182.000
14.18000 190.000
14.19500 184.000
14.21000 188.000
14.22500 201.000
14.24000 194.000
14.25500 191.000
14.27000 194.000
14.28500 195.000
14.30000 197.000
14.31500 180.000
14.33000 196.000
14.34500 192.000
14.36000 193.000
14.37500 178.000
14.39000 166.000
14.40500 172.000
14.42000 184.000
14.43500 194.000
14.45000 187.000
14.46500 177.000
14.48000 187.000
14.49500 174.000
14.51000 178.000
14.52500 185.000
14.54000 192.000
14.55500 173.000
14.57000 196.000
14.58500 193.000
14.60000 192.000
14.61500 196.000
14.63000 188.000
14.64500 182.000
14.66000 183.000
14.67500 193.000
14.69000 178.000
14.70500 192.000
14.72000 195.000
14.73500 193.000
14.75000 168.000
14.76500 196.000
14.78000 193.000
14.79500 200.000
14.81000 178.000
14.82500 175.000
14.84000 177.000
14.85500 224.000
14.87000 207.000
14.88500 191.000
14.90000 181.000
14.91500 195.000
14.93000 183.000
14.94500 190.000
14.96000 197.000
14.97500 195.000
14.99000 207.000
15.00500 207.000
15.02000 183.000
15.03500 186.000
15.05000 195.000
15.06500 177.000
15.08000 179.000
15.09500 170.000
15.11000 174.000
15.12500 199.000
15.14000 227.000
15.15500 204.000
15.17000 174.000
15.18500 158.000
15.20000 177.000
15.21500 191.000
15.23000 197.000
15.24500 184.000
15.26000 177.000
15.27500 183.000
15.29000 194.000
15.30500 184.000
15.32000 190.000
15.33500 203.000
15.35000 215.000
15.36500 198.000
15.38000 202.000
15.39500 183.000
15.41000 192.000
15.42500 183.000
15.44000 187.000
15.45500 194.000
15.47000 190.000
15.48500 200.000
15.50000 194.000
15.51500 200.000
15.53000 197.000
15.54500 204.000
15.56000 193.000
15.57500 199.000
15.59000 184.000
15.60500 192.000
15.62000 182.000
15.63500 177.000
15.65000 184.000
15.66500 197.000
15.68000 195.000
15.69500 199.000
15.71000 188.000
15.72500 180.000
15.74000 190.000
15.75500 179.000
15.77000 182.000
15.78500 194.000
15.80000 222.000
15.81500 209.000
15.83000 214.000
15.84500 214.000
15.86000 224.000
15.87500 202.000
15.89000 204.000
15.90500 192.000
15.92000 208.000
15.93500 203.000
15.95000 208.000
15.96500 199.000
15.98000 193.000
15.99500 207.000
16.01000 217.000
16.02500 216.000
16.04000 188.000
16.05500 206.000
16.07000 194.000
16.08500 196.000
16.10000 185.000
16.11500 198.000
16.13000 211.000
16.14500 184.000
16.16000 194.000
16.17500 187.000
16.19000 194.000
16.20500 204.000
16.22000 205.000
16.23500 222.000
16.25000 197.000
16.26500 196.000
16.28000 216.000
16.29500 211.000
16.31000 211.000
16.32500 227.000
16.34000 225.000
16.35500 192.000
16.37000 183.000
16.38500 215.000
16.40000 207.000
16.41500 184.000
16.43000 185.000
16.44500 178.000
16.46000 211.000
16.47500 208.000
16.49000 216.000
16.50500 212.000
16.52000 224.000
16.53500 224.000
16.55000 193.000
16.56500 216.000
16.58000 223.000
16.59500 194.000
16.61000 186.000
16.62500 201.000
16.64000 204.000
16.65500 206.000
16.67000 219.000
16.68500 213.000
16.70000 213.000
16.71500 210.000
16.73000 197.000
16.74500 184.000
16.76000 200.000
16.77500 239.000
16.79000 212.000
16.80500 201.000
16.82000 202.000
16.83500 195.000
16.85000 202.000
16.86500 197.000
16.88000 212.000
16.89500 231.000
16.91000 206.000
16.92500 225.000
16.94000 231.000
16.95500 214.000
16.97000 223.000
16.98500 214.000
17.00000 201.000
17.01500 203.000
17.03000 220.000
17.04500 219.000
17.06000 194.000
17.07500 191.000
17.09000 202.000
17.10500 189.000
17.12000 198.000
17.13500 213.000
17.15000 197.000
17.16500 199.000
17.18000 219.000
17.19500 201.000
17.21000 195.000
17.22500 198.000
17.24000 199.000
17.25500 209.000
17.27000 184.000
17.28500 213.000
17.30000 200.000
17.31500 171.000
17.33000 185.000
17.34500 176.000
17.36000 194.000
17.37500 195.000
17.39000 191.000
17.40500 193.000
17.42000 198.000
17.43500 194.000
17.45000 185.000
17.46500 201.000
17.48000 195.000
17.49500 200.000
17.51000 194.000
17.52500 203.000
17.54000 200.000
17.55500 204.000
17.57000 200.000
17.58500 198.000
17.60000 206.000
17.61500 200.000
17.63000 185.000
17.64500 191.000
17.66000 206.000
17.67500 194.000
17.69000 189.000
17.70500 200.000
17.72000 187.000
17.73500 194.000
17.75000 203.000
17.76500 183.000
17.78000 214.000
17.79500 193.000
17.81000 200.000
17.82500 201.000
17.84000 187.000
17.85500 184.000
17.87000 193.000
17.88500 198.000
17.90000 195.000
17.91500 189.000
17.93000 195.000
17.94500 194.000
17.96000 213.000
17.97500 182.000
17.99000 197.000
18.00500 190.000
18.02000 200.000
18.03500 200.000
18.05000 182.000
18.06500 185.000
18.08000 195.000
18.09500 190.000
18.11000 174.000
18.12500 182.000
18.14000 176.000
18.15500 178.000
18.17000 179.000
18.18500 184.000
18.20000 188.000
18.21500 196.000
18.23000 198.000
18.24500 158.000
18.26000 194.000
18.27500 173.000
18.29000 182.000
18.30500 179.000
18.32000 184.000
18.33500 185.000
18.35000 173.000
18.36500 186.000
18.38000 181.000
18.39500 206.000
18.41000 188.000
18.42500 181.000
18.44000 181.000
18.45500 197.000
18.47000 189.000
18.48500 186.000
18.50000 189.000
18.51500 191.000
18.53000 165.000
18.54500 195.000
18.56000 168.000
18.57500 168.000
18.59000 198.000
18.60500 205.000
18.62000 203.000
18.63500 197.000
18.65000 194.000
18.66500 212.000
18.68000 189.000
18.69500 205.000
18.71000 192.000
18.72500 194.000
18.74000 189.000
18.75500 201.000
18.77000 180.000
18.78500 175.000
18.80000 190.000
18.81500 185.000
18.83000 164.000
18.84500 196.000
18.86000 169.000
18.87500 184.000
18.89000 174.000
18.90500 191.000
18.92000 181.000
18.93500 188.000
18.95000 206.000
18.96500 202.000
18.98000 188.000
18.99500 193.000
19.01000 200.000
19.02500 194.000
19.04000 197.000
19.05500 208.000
19.07000 211.000
19.08500 185.000
19.10000 220.000
19.11500 214.000
19.13000 195.000
19.14500 197.000
19.16000 184.000
19.17500 198.000
19.19000 181.000
19.20500 187.000
19.22000 166.000
19.23500 167.000
19.25000 161.000
19.26500 185.000
19.28000 188.000
19.29500 201.000
19.31000 190.000
19.32500 190.000
19.34000 202.000
19.35500 202.000
19.37000 179.000
19.38500 158.000
19.40000 187.000
19.41500 191.000
19.43000 212.000
19.44500 190.000
19.46000 186.000
19.47500 191.000
19.49000 198.000
19.50500 210.000
19.52000 203.000
19.53500 191.000
19.55000 196.000
19.56500 186.000
19.58000 185.000
19.59500 181.000
19.61000 174.000
19.62500 187.000
19.64000 186.000
19.65500 201.000
19.67000 197.000
19.68500 198.000
19.70000 203.000
19.71500 188.000
19.73000 192.000
19.74500 183.000
19.76000 160.000
19.77500 180.000
19.79000 186.000
19.80500 183.000
19.82000 191.000
19.83500 172.000
19.85000 175.000
19.86500 177.000
19.88000 182.000
19.89500 192.000
19.91000 195.000
19.92500 193.000
19.94000 194.000
19.95500 186.000
19.97000 183.000
19.98500 177.000
20.00000 189.000
20.01500 180.000
20.03000 175.000
20.04500 185.000
20.06000 188.000
20.07500 195.000
20.09000 189.000
20.10500 191.000
20.12000 169.000
20.13500 179.000
20.15000 189.000
20.16500 206.000
20.18000 201.000
20.19500 201.000
20.21000 203.000
20.22500 217.000
20.24000 191.000
20.25500 196.000
20.27000 184.000
20.28500 174.000
20.30000 188.000
20.31500 185.000
20.33000 178.000
20.34500 188.000
20.36000 183.000
20.37500 213.000
20.39000 191.000
20.40500 199.000
20.42000 205.000
20.43500 204.000
20.45000 175.000
20.46500 191.000
20.48000 194.000
20.49500 183.000
20.51000 201.000
20.52500 202.000
20.54000 202.000
20.55500 231.000
20.57000 199.000
20.58500 204.000
20.60000 220.000
20.61500 207.000
20.63000 201.000
20.64500 186.000
20.66000 194.000
20.67500 181.000
20.69000 212.000
20.70500 214.000
20.72000 204.000
20.73500 190.000
20.75000 189.000
20.76500 206.000
20.78000 210.000
20.79500 222.000
20.81000 208.000
20.82500 206.000
20.84000 203.000
20.85500 191.000
20.87000 192.000
20.88500 198.000
20.90000 206.000
20.91500 206.000
20.93000 203.000
20.94500 207.000
20.96000 197.000
20.97500 210.000
20.99000 217.000
21.00500 220.000
21.02000 235.000
21.03500 240.000
21.05000 229.000
21.06500 232.000
21.08000 200.000
21.09500 232.000
21.11000 227.000
21.12500 254.000
21.14000 249.000
21.15500 238.000
21.17000 242.000
21.18500 252.000
21.20000 240.000
21.21500 250.000
21.23000 249.000
21.24500 256.000
21.26000 244.000
21.27500 258.000
21.29000 282.000
21.30500 252.000
21.32000 238.000
21.33500 257.000
21.35000 245.000
21.36500 265.000
21.38000 272.000
21.39500 265.000
21.41000 266.000
21.42500 286.000
21.44000 272.000
21.45500 271.000
21.47000 249.000
21.48500 265.000
21.50000 242.000
21.51500 257.000
21.53000 285.000
21.54500 279.000
21.56000 253.000
21.57500 272.000
21.59000 237.000
21.60500 258.000
21.62000 251.000
21.63500 260.000
21.65000 252.000
21.66500 250.000
21.68000 236.000
21.69500 242.000
21.71000 262.000
21.72500 263.000
21.74000 258.000
21.75500 253.000
21.77000 249.000
21.78500 233.000
21.80000 256.000
21.81500 250.000
21.83000 242.000
21.84500 250.000
21.86000 254.000
21.87500 238.000
21.89000 239.000
21.90500 245.000
21.92000 250.000
21.93500 241.000
21.95000 249.000
21.96500 252.000
21.98000 252.000
21.99500 252.000
22.01000 249.000
22.02500 236.000
22.04000 258.000
22.05500 237.000
22.07000 214.000
22.08500 229.000
22.10000 253.000
22.11500 247.000
22.13000 247.000
22.14500 239.000
22.16000 239.000
22.17500 254.000
22.19000 253.000
22.20500 214.000
22.22000 248.000
22.23500 256.000
22.25000 253.000
22.26500 242.000
22.28000 259.000
22.29500 241.000
22.31000 249.000
22.32500 244.000
22.34000 246.000
22.35500 256.000
22.37000 241.000
22.38500 250.000
22.40000 259.000
22.41500 237.000
22.43000 252.000
22.44500 240.000
22.46000 236.000
22.47500 239.000
22.49000 246.000
22.50500 250.000
22.52000 268.000
22.53500 267.000
22.55000 258.000
22.56500 257.000
22.58000 267.000
22.59500 260.000
22.61000 254.000
22.62500 260.000
22.64000 244.000
22.65500 249.000
22.67000 226.000
22.68500 243.000
22.70000 219.000
22.71500 218.000
22.73000 254.000
22.74500 232.000
22.76000 251.000
22.77500 230.000
22.79000 243.000
22.80500 239.000
22.82000 238.000
22.83500 254.000
22.85000 231.000
22.86500 227.000
22.88000 255.000
22.89500 252.000
22.91000 262.000
22.92500 233.000
22.94000 276.000
22.95500 279.000
22.97000 275.000
22.98500 253.000
23.00000 226.000
23.01500 238.000
23.03000 236.000
23.04500 266.000
23.06000 255.000
23.07500 252.000
23.09000 247.000
23.10500 259.000
23.12000 277.000
23.13500 252.000
23.15000 261.000
23.16500 264.000
23.18000 251.000
23.19500 258.000
23.21000 256.000
23.22500 295.000
23.24000 276.000
23.25500 276.000
23.27000 267.000
23.28500 270.000
23.30000 276.000
23.31500 269.000
23.33000 250.000
23.34500 265.000
23.36000 275.000
23.37500 278.000
23.39000 269.000
23.40500 295.000
23.42000 301.000
23.43500 260.000
23.45000 278.000
23.46500 272.000
23.48000 260.000
23.49500 300.000
23.51000 270.000
23.52500 276.000
23.54000 249.000
23.55500 285.000
23.57000 276.000
23.58500 286.000
23.60000 279.000
23.61500 280.000
23.63000 295.000
23.64500 278.000
23.66000 272.000
23.67500 267.000
23.69000 269.000
23.70500 281.000
23.72000 286.000
23.73500 281.000
23.75000 297.000
23.76500 274.000
23.78000 265.000
23.79500 280.000
23.81000 273.000
23.82500 257.000
23.84000 269.000
23.85500 277.000
23.87000 254.000
23.88500 284.000
23.90000 288.000
23.91500 284.000
23.93000 297.000
23.94500 303.000
23.96000 283.000
23.97500 285.000
23.99000 316.000
24.00500 287.000
24.02000 293.000
24.03500 289.000
24.05000 274.000
24.06500 295.000
24.08000 291.000
24.09500 304.000
24.11000 285.000
24.12500 273.000
24.14000 294.000
24.15500 308.000
24.17000 316.000
24.18500 295.000
24.20000 310.000
24.21500 301.000
24.23000 323.000
24.24500 303.000
24.26000 305.000
24.27500 301.000
24.29000 298.000
24.30500 309.000
24.32000 321.000
24.33500 288.000
24.35000 291.000
24.36500 311.000
24.38000 312.000
24.39500 300.000
24.41000 300.000
24.42500 298.000
24.44000 301.000
24.45500 285.000
24.47000 305.000
24.48500 323.000
24.50000 323.000
24.51500 308.000
24.53000 321.000
24.54500 307.000
24.56000 320.000
24.57500 313.000
24.59000 321.000
24.60500 293.000
24.62000 313.000
24.63500 295.000
24.65000 337.000
24.66500 323.000
24.68000 322.000
24.69500 312.000
24.71000 328.000
24.72500 353.000
24.74000 351.000
24.75500 320.000
24.77000 315.000
24.78500 338.000
24.80000 308.000
24.81500 329.000
24.83000 309.000
24.84500 301.000
24.86000 310.000
24.87500 329.000
24.89000 325.000
24.90500 316.000
24.92000 344.000
24.93500 328.000
24.95000 309.000
24.96500 323.000
24.98000 311.000
24.99500 306.000
25.01000 283.000
25.02500 312.000
25.04000 324.000
25.05500 330.000
25.07000 334.000
25.08500 333.000
25.10000 302.000
25.11500 311.000
25.13000 304.000
25.14500 320.000
25.16000 338.000
25.17500 302.000
25.19000 319.000
25.20500 322.000
25.22000 333.000
25.23500 311.000
25.25000 314.000
25.26500 319.000
25.28000 315.000
25.29500 300.000
25.31000 317.000
25.32500 317.000
25.34000 313.000
25.35500 319.000
25.37000 297.000
25.38500 333.000
25.40000 329.000
25.41500 309.000
25.43000 337.000
25.44500 315.000
25.46000 333.000
25.47500 334.000
25.49000 342.000
25.50500 336.000
25.52000 362.000
25.53500 320.000
25.55000 308.000
25.56500 317.000
25.58000 325.000
25.59500 334.000
25.61000 344.000
25.62500 315.000
25.64000 299.000
25.65500 313.000
25.67000 302.000
25.68500 320.000
25.70000 343.000
25.71500 312.000
25.73000 327.000
25.74500 305.000
25.76000 344.000
25.77500 312.000
25.79000 294.000
25.80500 324.000
25.82000 355.000
25.83500 312.000
25.85000 309.000
25.86500 317.000
25.88000 326.000
25.89500 325.000
25.91000 347.000
25.92500 330.000
25.94000 302.000
25.95500 326.000
25.97000 322.000
25.98500 308.000
26.00000 327.000
26.01500 322.000
26.03000 310.000
26.04500 320.000
26.06000 335.000
26.07500 332.000
26.09000 344.000
26.10500 321.000
26.12000 312.000
26.13500 351.000
26.15000 346.000
26.16500 335.000
26.18000 328.000
26.19500 299.000
26.21000 311.000
26.22500 316.000
26.24000 302.000
26.25500 324.000
26.27000 342.000
26.28500 303.000
26.30000 298.000
26.31500 319.000
26.33000 321.000
26.34500 322.000
26.36000 353.000
26.37500 333.000
26.39000 314.000
26.40500 326.000
26.42000 310.000
26.43500 307.000
26.45000 334.000
26.46500 334.000
26.48000 317.000
26.49500 341.000
26.51000 344.000
26.52500 314.000
26.54000 318.000
26.55500 335.000
26.57000 328.000
26.58500 334.000
26.60000 326.000
26.61500 309.000
26.63000 312.000
26.64500 318.000
26.66000 303.000
26.67500 316.000
26.69000 320.000
26.70500 312.000
26.72000 331.000
26.73500 322.000
26.75000 327.000
26.76500 353.000
26.78000 342.000
26.79500 326.000
26.81000 324.000
26.82500 365.000
26.84000 345.000
26.85500 326.000
26.87000 327.000
26.88500 332.000
26.90000 327.000
26.91500 322.000
26.93000 340.000
26.94500 320.000
26.96000 319.000
26.97500 322.000
26.99000 340.000
27.00500 337.000
27.02000 346.000
27.03500 339.000
27.05000 331.000
27.06500 339.000
27.08000 341.000
27.09500 354.000
27.11000 343.000
27.12500 327.000
27.14000 324.000
27.15500 351.000
27.17000 341.000
27.18500 339.000
27.20000 381.000
27.21500 353.000
27.23000 350.000
27.24500 354.000
27.26000 370.000
27.27500 371.000
27.29000 358.000
27.30500 380.000
27.32000 371.000
27.33500 364.000
27.35000 375.000
27.36500 360.000
27.38000 386.000
27.39500 381.000
27.41000 361.000
27.42500 391.000
27.44000 380.000
27.45500 399.000
27.47000 381.000
27.48500 380.000
27.50000 389.000
27.51500 392.000
27.53000 398.000
27.54500 411.000
27.56000 409.000
27.57500 408.000
27.59000 410.000
27.60500 421.000
27.62000 421.000
27.63500 433.000
27.65000 430.000
27.66500 460.000
27.68000 466.000
27.69500 465.000
27.71000 436.000
27.72500 457.000
27.74000 476.000
27.75500 501.000
27.77000 484.000
27.78500 475.000
27.80000 516.000
27.81500 524.000
27.83000 537.000
27.84500 552.000
27.86000 545.000
27.87500 552.000
27.89000 560.000
27.90500 622.000
27.92000 638.000
27.93500 669.000
27.95000 668.000
27.96500 659.000
27.98000 702.000
27.99500 686.000
28.01000 696.000
28.02500 772.000
28.04000 763.000
28.05500 812.000
28.07000 790.000
28.08500 854.000
28.10000 903.000
28.11500 912.000
28.13000 945.000
28.14500 1026.000
28.16000 1047.000
28.17500 1048.000
28.19000 1105.000
28.20500 1134.000
28.22000 1225.000
28.23500 1276.000
28.25000 1386.000
28.26500 1447.000
28.28000 1497.000
28.29500 1605.000
28.31000 1659.000
28.32500 1764.000
28.34000 1831.000
28.35500 1889.000
28.37000 1921.000
28.38500 2033.000
28.40000 2069.000
28.41500 2223.000
28.43000 2193.000
28.44500 2254.000
28.46000 2267.000
28.47500 2307.000
28.49000 2308.000
28.50500 2257.000
28.52000 2260.000
28.53500 2179.000
28.55000 2156.000
28.56500 2062.000
28.58000 1927.000
28.59500 1868.000
28.61000 1879.000
28.62500 1724.000
28.64000 1582.000
28.65500 1520.000
28.67000 1471.000
28.68500 1373.000
28.70000 1266.000
28.71500 1273.000
28.73000 1173.000
28.74500 1165.000
28.76000 1076.000
28.77500 996.000
28.79000 975.000
28.80500 939.000
28.82000 927.000
28.83500 875.000
28.85000 824.000
28.86500 786.000
28.88000 744.000
28.89500 739.000
28.91000 705.000
28.92500 667.000
28.94000 630.000
28.95500 648.000
28.97000 619.000
28.98500 597.000
29.00000 616.000
29.01500 604.000
29.03000 586.000
29.04500 560.000
29.06000 525.000
29.07500 541.000
29.09000 563.000
29.10500 532.000
29.12000 536.000
29.13500 501.000
29.15000 491.000
29.16500 550.000
29.18000 535.000
29.19500 499.000
29.21000 452.000
29.22500 486.000
29.24000 457.000
29.25500 466.000
29.27000 472.000
29.28500 474.000
29.30000 450.000
29.31500 448.000
29.33000 457.000
29.34500 404.000
29.36000 444.000
29.37500 440.000
29.39000 424.000
29.40500 411.000
29.42000 433.000
29.43500 428.000
29.45000 428.000
29.46500 433.000
29.48000 402.000
29.49500 422.000
29.51000 416.000
29.52500 431.000
29.54000 391.000
29.55500 403.000
29.57000 399.000
29.58500 387.000
29.60000 379.000
29.61500 372.000
29.63000 365.000
29.64500 378.000
29.66000 390.000
29.67500 374.000
29.69000 386.000
29.70500 331.000
29.72000 358.000
29.73500 355.000
29.75000 359.000
29.76500 359.000
29.78000 385.000
29.79500 380.000
29.81000 353.000
29.82500 369.000
29.84000 358.000
29.85500 375.000
29.87000 351.000
29.88500 322.000
29.90000 345.000
29.91500 320.000
29.93000 340.000
29.94500 343.000
29.96000 346.000
29.97500 335.000
29.99000 344.000
30.00500 353.000
30.02000 320.000
30.03500 325.000
30.05000 300.000
30.06500 307.000
30.08000 343.000
30.09500 335.000
30.11000 336.000
30.12500 342.000
30.14000 323.000
30.15500 326.000
30.17000 333.000
30.18500 334.000
30.20000 330.000
30.21500 320.000
30.23000 308.000
30.24500 316.000
30.26000 333.000
30.27500 337.000
30.29000 319.000
30.30500 285.000
30.32000 315.000
30.33500 324.000
30.35000 302.000
30.36500 292.000
30.38000 292.000
30.39500 291.000
30.41000 293.000
30.42500 295.000
30.44000 270.000
30.45500 287.000
30.47000 296.000
30.48500 298.000
30.50000 275.000
30.51500 289.000
30.53000 290.000
30.54500 280.000
30.56000 305.000
30.57500 293.000
30.59000 268.000
30.60500 266.000
30.62000 306.000
30.63500 307.000
30.65000 301.000
30.66500 293.000
30.68000 315.000
30.69500 305.000
30.71000 305.000
30.72500 295.000
30.74000 304.000
30.75500 296.000
30.77000 276.000
30.78500 286.000
30.80000 290.000
30.81500 286.000
30.83000 293.000
30.84500 289.000
30.86000 283.000
30.87500 287.000
30.89000 305.000
30.90500 287.000
30.92000 282.000
30.93500 265.000
30.95000 280.000
30.96500 270.000
30.98000 281.000
30.99500 270.000
31.01000 282.000
31.02500 284.000
31.04000 262.000
31.05500 264.000
31.07000 277.000
31.08500 288.000
31.10000 262.000
31.11500 266.000
31.13000 269.000
31.14500 244.000
31.16000 253.000
31.17500 246.000
31.19000 268.000
31.20500 264.000
31.22000 264.000
31.23500 258.000
31.25000 255.000
31.26500 249.000
31.28000 263.000
31.29500 257.000
31.31000 264.000
31.32500 240.000
31.34000 256.000
31.35500 259.000
31.37000 251.000
31.38500 233.000
31.40000 265.000
31.41500 277.000
31.43000 268.000
31.44500 263.000
31.46000 267.000
31.47500 264.000
31.49000 275.000
31.50500 249.000
31.52000 252.000
31.53500 257.000
31.55000 252.000
31.56500 271.000
31.58000 247.000
31.59500 252.000
31.61000 265.000
31.62500 282.000
31.64000 254.000
31.65500 239.000
31.67000 241.000
31.68500 258.000
31.70000 255.000
31.71500 246.000
31.73000 226.000
31.74500 242.000
31.76000 239.000
31.77500 228.000
31.79000 228.000
31.80500 253.000
31.82000 262.000
31.83500 238.000
31.85000 243.000
31.86500 246.000
31.88000 251.000
31.89500 270.000
31.91000 236.000
31.92500 242.000
31.94000 251.000
31.95500 247.000
31.97000 251.000
31.98500 236.000
32.00000 233.000
32.01500 259.000
32.03000 267.000
32.04500 262.000
32.06000 258.000
32.07500 242.000
32.09000 258.000
32.10500 245.000
32.12000 260.000
32.13500 271.000
32.15000 269.000
32.16500 281.000
32.18000 262.000
32.19500 255.000
32.21000 264.000
32.22500 260.000
32.24000 255.000
32.25500 286.000
32.27000 278.000
32.28500 278.000
32.30000 288.000
32.31500 292.000
32.33000 282.000
32.34500 302.000
32.36000 303.000
32.37500 313.000
32.39000 303.000
32.40500 320.000
32.42000 294.000
32.43500 276.000
32.45000 301.000
32.46500 266.000
32.48000 282.000
32.49500 327.000
32.51000 294.000
32.52500 288.000
32.54000 298.000
32.55500 274.000
32.57000 272.000
32.58500 259.000
32.60000 291.000
32.61500 289.000
32.63000 302.000
32.64500 292.000
32.66000 266.000
32.67500 258.000
32.69000 266.000
32.70500 266.000
32.72000 250.000
32.73500 258.000
32.75000 277.000
32.76500 257.000
32.78000 245.000
32.79500 257.000
32.81000 250.000
32.82500 238.000
32.84000 229.000
32.85500 232.000
32.87000 228.000
32.88500 219.000
32.90000 234.000
32.91500 220.000
32.93000 238.000
32.94500 213.000
32.96000 227.000
32.97500 212.000
32.99000 235.000
33.00500 228.000
33.02000 215.000
33.03500 215.000
33.05000 231.000
33.06500 216.000
33.08000 204.000
33.09500 224.000
33.11000 189.000
33.12500 212.000
33.14000 227.000
33.15500 217.000
33.17000 227.000
33.18500 209.000
33.20000 215.000
33.21500 241.000
33.23000 225.000
33.24500 213.000
33.26000 214.000
33.27500 199.000
33.29000 182.000
33.30500 205.000
33.32000 214.000
33.33500 209.000
33.35000 212.000
33.36500 200.000
33.38000 205.000
33.39500 211.000
33.41000 205.000
33.42500 215.000
33.44000 219.000
33.45500 215.000
33.47000 213.000
33.48500 220.000
33.50000 194.000
33.51500 189.000
33.53000 194.000
33.54500 213.000
33.56000 203.000
33.57500 190.000
33.59000 218.000
33.60500 209.000
33.62000 202.000
33.63500 204.000
33.65000 202.000
33.66500 190.000
33.68000 203.000
33.69500 182.000
33.71000 198.000
33.72500 205.000
33.74000 207.000
33.75500 197.000
33.77000 196.000
33.78500 199.000
33.80000 199.000
33.81500 208.000
33.83000 184.000
33.84500 194.000
33.86000 195.000
33.87500 181.000
33.89000 223.000
33.90500 233.000
33.92000 232.000
33.93500 205.000
33.95000 186.000
33.96500 181.000
33.98000 177.000
33.99500 192.000
34.01000 201.000
34.02500 172.000
34.04000 178.000
34.05500 193.000
34.07000 208.000
34.08500 190.000
34.10000 176.000
34.11500 195.000
34.13000 202.000
34.14500 196.000
34.16000 188.000
34.17500 178.000
34.19000 190.000
34.20500 186.000
34.22000 193.000
34.23500 192.000
34.25000 184.000
34.26500 187.000
34.28000 180.000
34.29500 191.000
34.31000 185.000
34.32500 195.000
34.34000 195.000
34.35500 188.000
34.37000 174.000
34.38500 187.000
34.40000 178.000
34.41500 184.000
34.43000 189.000
34.44500 176.000
34.46000 179.000
34.47500 186.000
34.49000 207.000
34.50500 195.000
34.52000 181.000
34.53500 167.000
34.55000 183.000
34.56500 189.000
34.58000 173.000
34.59500 179.000
34.61000 172.000
34.62500 191.000
34.64000 185.000
34.65500 190.000
34.67000 188.000
34.68500 176.000
34.70000 180.000
34.71500 185.000
34.73000 190.000
34.74500 192.000
34.76000 182.000
34.77500 184.000
34.79000 184.000
34.80500 170.000
34.82000 184.000
34.83500 198.000
34.85000 186.000
34.86500 213.000
34.88000 186.000
34.89500 181.000
34.91000 201.000
34.92500 192.000
34.94000 211.000
34.95500 196.000
34.97000 215.000
34.98500 222.000
35.00000 197.000
35.01500 189.000
35.03000 196.000
35.04500 196.000
35.06000 204.000
35.07500 218.000
35.09000 227.000
35.10500 223.000
35.12000 206.000
35.13500 211.000
35.15000 217.000
35.16500 226.000
35.18000 224.000
35.19500 220.000
35.21000 230.000
35.22500 228.000
35.24000 238.000
35.25500 231.000
35.27000 262.000
35.28500 256.000
35.30000 238.000
35.31500 268.000
35.33000 265.000
35.34500 241.000
35.36000 258.000
35.37500 286.000
35.39000 290.000
35.40500 283.000
35.42000 265.000
35.43500 279.000
35.45000 295.000
35.46500 308.000
35.48000 284.000
35.49500 290.000
35.51000 297.000
35.52500 296.000
35.54000 282.000
35.55500 297.000
35.57000 310.000
35.58500 305.000
35.60000 308.000
35.61500 273.000
35.63000 280.000
35.64500 289.000
35.66000 262.000
35.67500 274.000
35.69000 307.000
35.70500 280.000
35.72000 297.000
35.73500 283.000
35.75000 257.000
35.76500 275.000
35.78000 261.000
35.79500 280.000
35.81000 276.000
35.82500 273.000
35.84000 282.000
35.85500 278.000
35.87000 296.000
35.88500 280.000
35.90000 266.000
35.91500 274.000
35.93000 292.000
35.94500 266.000
35.96000 272.000
35.97500 286.000
35.99000 282.000
36.00500 269.000
36.02000 270.000
36.03500 273.000
36.05000 286.000
36.06500 270.000
36.08000 266.000
36.09500 260.000
36.11000 260.000
36.12500 251.000
36.14000 262.000
36.15500 289.000
36.17000 268.000
36.18500 291.000
36.20000 255.000
36.21500 273.000
36.23000 264.000
36.24500 277.000
36.26000 255.000
36.27500 274.000
36.29000 291.000
36.30500 294.000
36.32000 264.000
36.33500 259.000
36.35000 249.000
36.36500 270.000
36.38000 261.000
36.39500 271.000
36.41000 267.000
36.42500 249.000
36.44000 273.000
36.45500 287.000
36.47000 280.000
36.48500 271.000
36.50000 267.000
36.51500 266.000
36.53000 266.000
36.54500 270.000
36.56000 295.000
36.57500 256.000
36.59000 254.000
36.60500 260.000
36.62000 279.000
36.63500 295.000
36.65000 260.000
36.66500 273.000
36.68000 268.000
36.69500 259.000
36.71000 257.000
36.72500 262.000
36.74000 274.000
36.75500 254.000
36.77000 269.000
36.78500 277.000
36.80000 256.000
36.81500 266.000
36.83000 291.000
36.84500 266.000
36.86000 251.000
36.87500 260.000
36.89000 274.000
36.90500 265.000
36.92000 271.000
36.93500 263.000
36.95000 267.000
36.96500 276.000
36.98000 251.000
36.99500 272.000
37.01000 268.000
37.02500 277.000
37.04000 290.000
37.05500 296.000
37.07000 300.000
37.08500 281.000
37.10000 274.000
37.11500 266.000
37.13000 272.000
37.14500 278.000
37.16000 258.000
37.17500 267.000
37.19000 258.000
37.20500 260.000
37.22000 257.000
37.23500 267.000
37.25000 265.000
37.26500 267.000
37.28000 275.000
37.29500 289.000
37.31000 278.000
37.32500 309.000
37.34000 269.000
37.35500 252.000
37.37000 274.000
37.38500 272.000
37.40000 267.000
37.41500 282.000
37.43000 289.000
37.44500 262.000
37.46000 250.000
37.47500 266.000
37.49000 260.000
37.50500 250.000
37.52000 249.000
37.53500 280.000
37.55000 269.000
37.56500 286.000
37.58000 239.000
37.59500 252.000
37.61000 234.000
37.62500 250.000
37.64000 271.000
37.65500 257.000
37.67000 244.000
37.68500 263.000
37.70000 236.000
37.71500 237.000
37.73000 237.000
37.74500 233.000
37.76000 233.000
37.77500 253.000
37.79000 241.000
37.80500 222.000
37.82000 231.000
37.83500 233.000
37.85000 232.000
37.86500 234.000
37.88000 217.000
37.89500 213.000
37.91000 227.000
37.92500 227.000
37.94000 222.000
37.95500 220.000
37.97000 215.000
37.98500 231.000
38.00000 200.000
38.01500 206.000
38.03000 207.000
38.04500 206.000
38.06000 234.000
38.07500 229.000
38.09000 240.000
38.10500 215.000
38.12000 238.000
38.13500 220.000
38.15000 193.000
38.16500 218.000
38.18000 213.000
38.19500 215.000
38.21000 218.000
38.22500 214.000
38.24000 212.000
38.25500 208.000
38.27000 230.000
38.28500 235.000
38.30000 219.000
38.31500 208.000
38.33000 215.000
38.34500 192.000
38.36000 209.000
38.37500 197.000
38.39000 209.000
38.40500 210.000
38.42000 204.000
38.43500 207.000
38.45000 224.000
38.46500 207.000
38.48000 203.000
38.49500 198.000
38.51000 200.000
38.52500 231.000
38.54000 222.000
38.55500 227.000
38.57000 209.000
38.58500 217.000
38.60000 222.000
38.61500 204.000
38.63000 213.000
38.64500 230.000
38.66000 221.000
38.67500 205.000
38.69000 199.000
38.70500 199.000
38.72000 206.000
38.73500 203.000
38.75000 207.000
38.76500 230.000
38.78000 207.000
38.79500 207.000
38.81000 212.000
38.82500 222.000
38.84000 208.000
38.85500 213.000
38.87000 214.000
38.88500 210.000
38.90000 196.000
38.91500 201.000
38.93000 204.000
38.94500 204.000
38.96000 221.000
38.97500 213.000
38.99000 198.000
39.00500 212.000
39.02000 216.000
39.03500 203.000
39.05000 209.000
39.06500 206.000
39.08000 181.000
39.09500 191.000
39.11000 197.000
39.12500 212.000
39.14000 194.000
39.15500 203.000
39.17000 194.000
39.18500 220.000
39.20000 220.000
39.21500 198.000
39.23000 195.000
39.24500 197.000
39.26000 205.000
39.27500 209.000
39.29000 216.000
39.30500 188.000
39.32000 190.000
39.33500 212.000
39.35000 211.000
39.36500 204.000
39.38000 223.000
39.39500 206.000
39.41000 204.000
39.42500 203.000
39.44000 208.000
39.45500 194.000
39.47000 199.000
39.48500 208.000
39.50000 204.000
39.51500 204.000
39.53000 208.000
39.54500 210.000
39.56000 226.000
39.57500 205.000
39.59000 200.000
39.60500 232.000
39.62000 188.000
39.63500 193.000
39.65000 207.000
39.66500 197.000
39.68000 204.000
39.69500 222.000
39.71000 209.000
39.72500 196.000
39.74000 219.000
39.75500 199.000
39.77000 205.000
39.78500 217.000
39.80000 196.000
39.81500 202.000
39.83000 207.000
39.84500 188.000
39.86000 194.000
39.87500 201.000
39.89000 204.000
39.90500 188.000
39.92000 175.000
39.93500 208.000
39.95000 213.000
39.96500 200.000
39.98000 171.000
39.99500 194.000
40.01000 186.000
40.02500 186.000
40.04000 195.000
40.05500 200.000
40.07000 181.000
40.08500 197.000
40.10000 206.000
40.11500 191.000
40.13000 194.000
40.14500 172.000
40.16000 177.000
40.17500 190.000
40.19000 199.000
40.20500 181.000
40.22000 195.000
40.23500 171.000
40.25000 170.000
40.26500 183.000
40.28000 204.000
40.29500 182.000
40.31000 194.000
40.32500 183.000
40.34000 177.000
40.35500 195.000
40.37000 187.000
40.38500 177.000
40.40000 193.000
40.41500 197.000
40.43000 188.000
40.44500 172.000
40.46000 186.000
40.47500 195.000
40.49000 192.000
40.50500 182.000
40.52000 172.000
40.53500 179.000
40.55000 180.000
40.56500 178.000
40.58000 172.000
40.59500 184.000
40.61000 173.000
40.62500 168.000
40.64000 166.000
40.65500 159.000
40.67000 175.000
40.68500 175.000
40.70000 178.000
40.71500 174.000
40.73000 180.000
40.74500 168.000
40.76000 189.000
40.77500 168.000
40.79000 167.000
40.80500 175.000
40.82000 154.000
40.83500 170.000
40.85000 162.000
40.86500 170.000
40.88000 172.000
40.89500 188.000
40.91000 178.000
40.92500 169.000
40.94000 175.000
40.95500 160.000
40.97000 163.000
40.98500 192.000
41.00000 181.000
41.01500 189.000
41.03000 162.000
41.04500 165.000
41.06000 160.000
41.07500 179.000
41.09000 173.000
41.10500 176.000
41.12000 159.000
41.13500 164.000
41.15000 153.000
41.16500 171.000
41.18000 175.000
41.19500 189.000
41.21000 179.000
41.22500 159.000
41.24000 173.000
41.25500 164.000
41.27000 154.000
41.28500 156.000
41.30000 168.000
41.31500 169.000
41.33000 145.000
41.34500 187.000
41.36000 180.000
41.37500 162.000
41.39000 163.000
41.40500 179.000
41.42000 159.000
41.43500 170.000
41.45000 159.000
41.46500 155.000
41.48000 154.000
41.49500 156.000
41.51000 159.000
41.52500 171.000
41.54000 179.000
41.55500 169.000
41.57000 163.000
41.58500 156.000
41.60000 162.000
41.61500 143.000
41.63000 144.000
41.64500 152.000
41.66000 150.000
41.67500 155.000
41.69000 168.000
41.70500 157.000
41.72000 145.000
41.73500 158.000
41.75000 154.000
41.76500 149.000
41.78000 152.000
41.79500 149.000
41.81000 139.000
41.82500 144.000
41.84000 161.000
41.85500 161.000
41.87000 170.000
41.88500 157.000
41.90000 158.000
41.91500 145.000
41.93000 140.000
41.94500 152.000
41.96000 148.000
41.97500 152.000
41.99000 161.000
42.00500 171.000
42.02000 161.000
42.03500 171.000
42.05000 183.000
42.06500 156.000
42.08000 153.000
42.09500 155.000
42.11000 147.000
42.12500 160.000
42.14000 145.000
42.15500 142.000
42.17000 166.000
42.18500 156.000
42.20000 152.000
42.21500 156.000
42.23000 144.000
42.24500 164.000
42.26000 169.000
42.27500 163.000
42.29000 168.000
42.30500 175.000
42.32000 177.000
42.33500 163.000
42.35000 171.000
42.36500 160.000
42.38000 138.000
42.39500 161.000
42.41000 168.000
42.42500 175.000
42.44000 194.000
42.45500 164.000
42.47000 149.000
42.48500 168.000
42.50000 158.000
42.51500 174.000
42.53000 179.000
42.54500 163.000
42.56000 163.000
42.57500 163.000
42.59000 167.000
42.60500 194.000
42.62000 178.000
42.63500 165.000
42.65000 172.000
42.66500 181.000
42.68000 175.000
42.69500 157.000
42.71000 157.000
42.72500 178.000
42.74000 177.000
42.75500 187.000
42.77000 170.000
42.78500 174.000
42.80000 186.000
42.81500 178.000
42.83000 161.000
42.84500 160.000
42.86000 165.000
42.87500 174.000
42.89000 180.000
42.90500 183.000
42.92000 179.000
42.93500 174.000
42.95000 177.000
42.96500 164.000
42.98000 166.000
42.99500 191.000
43.01000 181.000
43.02500 181.000
43.04000 169.000
43.05500 194.000
43.07000 205.000
43.08500 200.000
43.10000 183.000
43.11500 193.000
43.13000 223.000
43.14500 198.000
43.16000 180.000
43.17500 199.000
43.19000 194.000
43.20500 200.000
43.22000 211.000
43.23500 201.000
43.25000 197.000
43.26500 199.000
43.28000 198.000
43.29500 201.000
43.31000 216.000
43.32500 222.000
43.34000 221.000
43.35500 239.000
43.37000 222.000
43.38500 214.000
43.40000 243.000
43.41500 237.000
43.43000 219.000
43.44500 225.000
43.46000 246.000
43.47500 235.000
43.49000 230.000
43.50500 216.000
43.52000 228.000
43.53500 254.000
43.55000 212.000
43.56500 208.000
43.58000 219.000
43.59500 204.000
43.61000 212.000
43.62500 230.000
43.64000 219.000
43.65500 216.000
43.67000 186.000
43.68500 183.000
43.70000 191.000
43.71500 206.000
43.73000 191.000
43.74500 222.000
43.76000 221.000
43.77500 223.000
43.79000 216.000
43.80500 194.000
43.82000 232.000
43.83500 212.000
43.85000 211.000
43.86500 220.000
43.88000 230.000
43.89500 202.000
43.91000 207.000
43.92500 194.000
43.94000 211.000
43.95500 204.000
43.97000 209.000
43.98500 218.000
44.00000 224.000
44.01500 207.000
44.03000 227.000
44.04500 194.000
44.06000 200.000
44.07500 229.000
44.09000 196.000
44.10500 212.000
44.12000 201.000
44.13500 214.000
44.15000 211.000
44.16500 207.000
44.18000 217.000
44.19500 203.000
44.21000 213.000
44.22500 205.000
44.24000 182.000
44.25500 209.000
44.27000 207.000
44.28500 199.000
44.30000 206.000
44.31500 221.000
44.33000 220.000
44.34500 222.000
44.36000 209.000
44.37500 211.000
44.39000 213.000
44.40500 192.000
44.42000 204.000
44.43500 212.000
44.45000 193.000
44.46500 202.000
44.48000 187.000
44.49500 179.000
44.51000 205.000
44.52500 208.000
44.54000 185.000
44.55500 193.000
44.57000 192.000
44.58500 201.000
44.60000 201.000
44.61500 209.000
44.63000 202.000
44.64500 223.000
44.66000 207.000
44.67500 215.000
44.69000 214.000
44.70500 205.000
44.72000 206.000
44.73500 206.000
44.75000 203.000
44.76500 196.000
44.78000 199.000
44.79500 193.000
44.81000 197.000
44.82500 217.000
44.84000 190.000
44.85500 202.000
44.87000 185.000
44.88500 190.000
44.90000 205.000
44.91500 197.000
44.93000 223.000
44.94500 215.000
44.96000 203.000
44.97500 202.000
44.99000 207.000
45.00500 206.000
45.02000 226.000
45.03500 198.000
45.05000 203.000
45.06500 191.000
45.08000 200.000
45.09500 211.000
45.11000 198.000
45.12500 186.000
45.14000 199.000
45.15500 181.000
45.17000 189.000
45.18500 175.000
45.20000 182.000
45.21500 193.000
45.23000 185.000
45.24500 154.000
45.26000 185.000
45.27500 192.000
45.29000 192.000
45.30500 175.000
45.32000 186.000
45.33500 169.000
45.35000 185.000
45.36500 182.000
45.38000 202.000
45.39500 202.000
45.41000 189.000
45.42500 171.000
45.44000 188.000
45.45500 193.000
45.47000 190.000
45.48500 173.000
45.50000 179.000
45.51500 183.000
45.53000 179.000
45.54500 188.000
45.56000 175.000
45.57500 177.000
45.59000 179.000
45.60500 194.000
45.62000 187.000
45.63500 172.000
45.65000 181.000
45.66500 195.000
45.68000 181.000
45.69500 191.000
45.71000 179.000
45.72500 210.000
45.74000 186.000
45.75500 184.000
45.77000 181.000
45.78500 181.000
45.80000 182.000
45.81500 169.000
45.83000 152.000
45.84500 181.000
45.86000 170.000
45.87500 175.000
45.89000 187.000
45.90500 146.000
45.92000 182.000
45.93500 179.000
45.95000 171.000
45.96500 168.000
45.98000 165.000
45.99500 170.000
46.01000 150.000
46.02500 162.000
46.04000 164.000
46.05500 172.000
46.07000 167.000
46.08500 146.000
46.10000 172.000
46.11500 174.000
46.13000 167.000
46.14500 159.000
46.16000 151.000
46.17500 172.000
46.19000 154.000
46.20500 156.000
46.22000 176.000
46.23500 155.000
46.25000 176.000
46.26500 147.000
46.28000 150.000
46.29500 155.000
46.31000 163.000
46.32500 162.000
46.34000 174.000
46.35500 171.000
46.37000 173.000
46.38500 166.000
46.40000 157.000
46.41500 144.000
46.43000 137.000
46.44500 164.000
46.46000 158.000
46.47500 147.000
46.49000 157.000
46.50500 158.000
46.52000 139.000
46.53500 167.000
46.55000 180.000
46.56500 139.000
46.58000 147.000
46.59500 158.000
46.61000 145.000
46.62500 142.000
46.64000 152.000
46.65500 155.000
46.67000 147.000
46.68500 168.000
46.70000 151.000
46.71500 144.000
46.73000 140.000
46.74500 165.000
46.76000 157.000
46.77500 171.000
46.79000 166.000
46.80500 162.000
46.82000 151.000
46.83500 136.000
46.85000 164.000
46.86500 164.000
46.88000 166.000
46.89500 158.000
46.91000 146.000
46.92500 151.000
46.94000 135.000
46.95500 152.000
46.97000 162.000
46.98500 149.000
47.00000 145.000
47.01500 165.000
47.03000 132.000
47.04500 123.000
47.06000 135.000
47.07500 145.000
47.09000 151.000
47.10500 148.000
47.12000 144.000
47.13500 134.000
47.15000 153.000
47.16500 144.000
47.18000 147.000
47.19500 143.000
47.21000 133.000
47.22500 141.000
47.24000 146.000
47.25500 163.000
47.27000 142.000
47.28500 131.000
47.30000 142.000
47.31500 124.000
47.33000 129.000
47.34500 138.000
47.36000 138.000
47.37500 131.000
47.39000 143.000
47.40500 155.000
47.42000 133.000
47.43500 137.000
47.45000 131.000
47.46500 139.000
47.48000 143.000
47.49500 163.000
47.51000 141.000
47.52500 134.000
47.54000 146.000
47.55500 128.000
47.57000 130.000
47.58500 145.000
47.60000 144.000
47.61500 155.000
47.63000 141.000
47.64500 112.000
47.66000 141.000
47.67500 137.000
47.69000 138.000
47.70500 149.000
47.72000 152.000
47.73500 133.000
47.75000 122.000
47.76500 129.000
47.78000 130.000
47.79500 125.000
47.81000 123.000
47.82500 149.000
47.84000 149.000
47.85500 123.000
47.87000 123.000
47.88500 120.000
47.90000 136.000
47.91500 138.000
47.93000 143.000
47.94500 120.000
47.96000 143.000
47.97500 145.000
47.99000 125.000
48.00500 133.000
48.02000 145.000
48.03500 161.000
48.05000 142.000
48.06500 138.000
48.08000 130.000
48.09500 127.000
48.11000 132.000
48.12500 134.000
48.14000 137.000
48.15500 124.000
48.17000 145.000
48.18500 140.000
48.20000 136.000
48.21500 116.000
48.23000 129.000
48.24500 122.000
48.26000 127.000
48.27500 141.000
48.29000 138.000
48.30500 129.000
48.32000 137.000
48.33500 148.000
48.35000 138.000
48.36500 132.000
48.38000 135.000
48.39500 138.000
48.41000 137.000
48.42500 133.000
48.44000 136.000
48.45500 126.000
48.47000 129.000
48.48500 118.000
48.50000 113.000
48.51500 124.000
48.53000 127.000
48.54500 134.000
48.56000 138.000
48.57500 133.000
48.59000 114.000
48.60500 137.000
48.62000 112.000
48.63500 121.000
48.65000 115.000
48.66500 137.000
48.68000 127.000
48.69500 116.000
48.71000 124.000
48.72500 127.000
48.74000 125.000
48.75500 131.000
48.77000 121.000
48.78500 125.000
48.80000 134.000
48.81500 125.000
48.83000 112.000
48.84500 133.000
48.86000 126.000
48.87500 134.000
48.89000 140.000
48.90500 144.000
48.92000 123.000
48.93500 113.000
48.95000 124.000
48.96500 104.000
48.98000 110.000
48.99500 126.000
49.01000 122.000
49.02500 141.000
49.04000 134.000
49.05500 118.000
49.07000 130.000
49.08500 128.000
49.10000 122.000
49.11500 121.000
49.13000 133.000
49.14500 127.000
49.16000 113.000
49.17500 124.000
49.19000 136.000
49.20500 126.000
49.22000 131.000
49.23500 116.000
49.25000 132.000
49.26500 141.000
49.28000 134.000
49.29500 131.000
49.31000 128.000
49.32500 133.000
49.34000 135.000
49.35500 117.000
49.37000 107.000
49.38500 110.000
49.40000 128.000
49.41500 123.000
49.43000 130.000
49.44500 137.000
49.46000 132.000
49.47500 136.000
49.49000 129.000
49.50500 130.000
49.52000 113.000
49.53500 106.000
49.55000 116.000
49.56500 135.000
49.58000 136.000
49.59500 121.000
49.61000 134.000
49.62500 124.000
49.64000 113.000
49.65500 130.000
49.67000 121.000
49.68500 130.000
49.70000 116.000
49.71500 126.000
49.73000 123.000
49.74500 114.000
49.76000 126.000
49.77500 129.000
49.79000 128.000
49.80500 124.000
49.82000 142.000
49.83500 131.000
49.85000 107.000
49.86500 133.000
49.88000 129.000
49.89500 134.000
49.91000 128.000
49.92500 118.000
49.94000 120.000
49.95500 135.000
49.97000 129.000
49.98500 139.000
50.00000 135.000
50.01500 132.000
50.03000 122.000
50.04500 123.000
50.06000 137.000
50.07500 135.000
50.09000 133.000
50.10500 137.000
50.12000 127.000
50.13500 123.000
50.15000 135.000
50.16500 147.000
50.18000 134.000
50.19500 138.000
50.21000 140.000
50.22500 143.000
50.24000 119.000
50.25500 145.000
50.27000 138.000
50.28500 148.000
50.30000 133.000
50.31500 149.000
50.33000 136.000
50.34500 132.000
50.36000 136.000
50.37500 149.000
50.39000 146.000
50.40500 136.000
50.42000 125.000
50.43500 146.000
50.45000 157.000
50.46500 138.000
50.48000 133.000
50.49500 138.000
50.51000 142.000
50.52500 134.000
50.54000 130.000
50.55500 126.000
50.57000 141.000
50.58500 145.000
50.60000 126.000
50.61500 139.000
50.63000 123.000
50.64500 126.000
50.66000 115.000
50.67500 132.000
50.69000 120.000
50.70500 135.000
50.72000 133.000
50.73500 102.000
50.75000 139.000
50.76500 131.000
50.78000 123.000
50.79500 112.000
50.81000 118.000
50.82500 139.000
50.84000 127.000
50.85500 130.000
50.87000 136.000
50.88500 138.000
50.90000 122.000
50.91500 135.000
50.93000 131.000
50.94500 135.000
50.96000 140.000
50.97500 131.000
50.99000 127.000
51.00500 145.000
51.02000 127.000
51.03500 133.000
51.05000 145.000
51.06500 130.000
51.08000 116.000
51.09500 117.000
51.11000 123.000
51.12500 141.000
51.14000 127.000
51.15500 131.000
51.17000 124.000
51.18500 124.000
51.20000 109.000
51.21500 125.000
51.23000 135.000
51.24500 128.000
51.26000 119.000
51.27500 134.000
51.29000 128.000
51.30500 139.000
51.32000 131.000
51.33500 124.000
51.35000 130.000
51.36500 117.000
51.38000 118.000
51.39500 135.000
51.41000 126.000
51.42500 113.000
51.44000 122.000
51.45500 135.000
51.47000 134.000
51.48500 131.000
51.50000 145.000
51.51500 151.000
51.53000 144.000
51.54500 116.000
51.56000 126.000
51.57500 143.000
51.59000 129.000
51.60500 143.000
51.62000 135.000
51.63500 150.000
51.65000 136.000
51.66500 131.000
51.68000 144.000
51.69500 141.000
51.71000 120.000
51.72500 136.000
51.74000 130.000
51.75500 135.000
51.77000 125.000
51.78500 112.000
51.80000 145.000
51.81500 133.000
51.83000 140.000
51.84500 150.000
51.86000 155.000
51.87500 139.000
51.89000 121.000
51.90500 117.000
51.92000 118.000
51.93500 134.000
51.95000 136.000
51.96500 139.000
51.98000 145.000
51.99500 136.000
52.01000 125.000
52.02500 145.000
52.04000 121.000
52.05500 140.000
52.07000 153.000
52.08500 147.000
52.10000 136.000
52.11500 131.000
52.13000 132.000
52.14500 134.000
52.16000 133.000
52.17500 121.000
52.19000 125.000
52.20500 125.000
52.22000 123.000
52.23500 124.000
52.25000 111.000
52.26500 120.000
52.28000 118.000
52.29500 117.000
52.31000 135.000
52.32500 133.000
52.34000 127.000
52.35500 139.000
52.37000 120.000
52.38500 136.000
52.40000 139.000
52.41500 129.000
52.43000 143.000
52.44500 141.000
52.46000 117.000
52.47500 142.000
52.49000 147.000
52.50500 112.000
52.52000 124.000
52.53500 133.000
52.55000 126.000
52.56500 134.000
52.58000 131.000
52.59500 123.000
52.61000 107.000
52.62500 125.000
52.64000 116.000
52.65500 128.000
52.67000 119.000
52.68500 125.000
52.70000 139.000
52.71500 115.000
52.73000 138.000
52.74500 134.000
52.76000 126.000
52.77500 125.000
52.79000 124.000
52.80500 125.000
52.82000 127.000
52.83500 126.000
52.85000 102.000
52.86500 120.000
52.88000 108.000
52.89500 135.000
52.91000 140.000
52.92500 124.000
52.94000 110.000
52.95500 127.000
52.97000 134.000
52.98500 128.000
53.00000 137.000
53.01500 154.000
53.03000 141.000
53.04500 133.000
53.06000 137.000
53.07500 134.000
53.09000 130.000
53.10500 121.000
53.12000 132.000
53.13500 139.000
53.15000 130.000
53.16500 138.000
53.18000 125.000
53.19500 134.000
53.21000 123.000
53.22500 133.000
53.24000 133.000
53.25500 113.000
53.27000 124.000
53.28500 114.000
53.30000 135.000
53.31500 135.000
53.33000 119.000
53.34500 146.000
53.36000 137.000
53.37500 148.000
53.39000 138.000
53.40500 157.000
53.42000 146.000
53.43500 136.000
53.45000 118.000
53.46500 139.000
53.48000 131.000
53.49500 144.000
53.51000 114.000
53.52500 122.000
53.54000 131.000
53.55500 139.000
53.57000 138.000
53.58500 132.000
53.60000 138.000
53.61500 114.000
53.63000 129.000
53.64500 126.000
53.66000 136.000
53.67500 134.000
53.69000 128.000
53.70500 121.000
53.72000 113.000
53.73500 128.000
53.75000 133.000
53.76500 118.000
53.78000 121.000
53.79500 119.000
53.81000 129.000
53.82500 124.000
53.84000 123.000
53.85500 121.000
53.87000 120.000
53.88500 136.000
53.90000 145.000
53.91500 129.000
53.93000 136.000
53.94500 134.000
53.96000 136.000
53.97500 134.000
53.99000 114.000
54.00500 133.000
54.02000 121.000
54.03500 123.000
54.05000 132.000
54.06500 141.000
54.08000 127.000
54.09500 118.000
54.11000 126.000
54.12500 134.000
54.14000 104.000
54.15500 132.000
54.17000 140.000
54.18500 124.000
54.20000 137.000
54.21500 140.000
54.23000 133.000
54.24500 121.000
54.26000 149.000
54.27500 149.000
54.29000 128.000
54.30500 117.000
54.32000 134.000
54.33500 133.000
54.35000 122.000
54.36500 117.000
54.38000 120.000
54.39500 119.000
54.41000 121.000
54.42500 131.000
54.44000 133.000
54.45500 124.000
54.47000 105.000
54.48500 110.000
54.50000 115.000
54.51500 132.000
54.53000 132.000
54.54500 122.000
54.56000 124.000
54.57500 126.000
54.59000 127.000
54.60500 102.000
54.62000 107.000
54.63500 117.000
54.65000 130.000
54.66500 122.000
54.68000 118.000
54.69500 125.000
54.71000 131.000
54.72500 128.000
54.74000 121.000
54.75500 118.000
54.77000 115.000
54.78500 135.000
54.80000 133.000
54.81500 108.000
54.83000 103.000
54.84500 111.000
54.86000 119.000
54.87500 116.000
54.89000 121.000
54.90500 118.000
54.92000 117.000
54.93500 116.000
54.95000 128.000
54.96500 111.000
54.98000 133.000
54.99500 128.000
55.01000 133.000
55.02500 133.000
55.04000 117.000
55.05500 101.000
55.07000 117.000
55.08500 130.000
55.10000 136.000
55.11500 124.000
55.13000 110.000
55.14500 102.000
55.16000 115.000
55.17500 128.000
55.19000 121.000
55.20500 123.000
55.22000 98.000
55.23500 100.000
55.25000 109.000
55.26500 103.000
55.28000 118.000
55.29500 129.000
55.31000 124.000
55.32500 122.000
55.34000 127.000
55.35500 109.000
55.37000 111.000
55.38500 108.000
55.40000 116.000
55.41500 106.000
55.43000 115.000
55.44500 113.000
55.46000 129.000
55.47500 114.000
55.49000 109.000
55.50500 112.000
55.52000 113.000
55.53500 122.000
55.55000 106.000
55.56500 114.000
55.58000 114.000
55.59500 114.000
55.61000 123.000
55.62500 113.000
55.64000 106.000
55.65500 118.000
55.67000 118.000
55.68500 106.000
55.70000 116.000
55.71500 127.000
55.73000 107.000
55.74500 109.000
55.76000 111.000
55.77500 114.000
55.79000 118.000
55.80500 105.000
55.82000 107.000
55.83500 113.000
55.85000 115.000
55.86500 105.000
55.88000 107.000
55.89500 120.000
55.91000 116.000
55.92500 113.000
55.94000 105.000
55.95500 111.000
55.97000 101.000
55.98500 108.000
56.00000 101.000
56.01500 119.000
56.03000 98.000
56.04500 101.000
56.06000 106.000
56.07500 113.000
56.09000 111.000
56.10500 107.000
56.12000 111.000
56.13500 117.000
56.15000 114.000
56.16500 120.000
56.18000 111.000
56.19500 124.000
56.21000 112.000
56.22500 112.000
56.24000 110.000
56.25500 109.000
56.27000 103.000
56.28500 107.000
56.30000 101.000
56.31500 104.000
56.33000 120.000
56.34500 118.000
56.36000 104.000
56.37500 129.000
56.39000 113.000
56.40500 106.000
56.42000 115.000
56.43500 122.000
56.45000 107.000
56.46500 90.000
56.48000 115.000
56.49500 118.000
56.51000 120.000
56.52500 109.000
56.54000 115.000
56.55500 122.000
56.57000 116.000
56.58500 111.000
56.60000 111.000
56.61500 95.000
56.63000 112.000
56.64500 116.000
56.66000 121.000
56.67500 106.000
56.69000 107.000
56.70500 106.000
56.72000 106.000
56.73500 89.000
56.75000 88.000
56.76500 113.000
56.78000 119.000
56.79500 105.000
56.81000 123.000
56.82500 124.000
56.84000 125.000
56.85500 119.000
56.87000 126.000
56.88500 120.000
56.90000 117.000
56.91500 120.000
56.93000 105.000
56.94500 123.000
56.96000 114.000
56.97500 123.000
56.99000 114.000
57.00500 119.000
57.02000 114.000
57.03500 116.000
57.05000 105.000
57.06500 108.000
57.08000 102.000
57.09500 108.000
57.11000 121.000
57.12500 118.000
57.14000 107.000
57.15500 109.000
57.17000 103.000
57.18500 98.000
57.20000 101.000
57.21500 100.000
57.23000 109.000
57.24500 94.000
57.26000 106.000
57.27500 108.000
57.29000 116.000
57.30500 118.000
57.32000 128.000
57.33500 97.000
57.35000 126.000
57.36500 124.000
57.38000 112.000
57.39500 117.000
57.41000 125.000
57.42500 101.000
57.44000 99.000
57.45500 120.000
57.47000 125.000
57.48500 125.000
57.50000 121.000
57.51500 123.000
57.53000 129.000
57.54500 130.000
57.56000 127.000
57.57500 105.000
57.59000 121.000
57.60500 116.000
57.62000 124.000
57.63500 103.000
57.65000 115.000
57.66500 113.000
57.68000 132.000
57.69500 118.000
57.71000 115.000
57.72500 114.000
57.74000 132.000
57.75500 110.000
57.77000 123.000
57.78500 128.000
57.80000 126.000
57.81500 122.000
57.83000 132.000
57.84500 135.000
57.86000 121.000
57.87500 117.000
57.89000 122.000
57.90500 123.000
57.92000 140.000
57.93500 128.000
57.95000 111.000
57.96500 128.000
57.98000 133.000
57.99500 130.000
58.01000 123.000
58.02500 121.000
58.04000 129.000
58.05500 136.000
58.07000 124.000
58.08500 114.000
58.10000 117.000
58.11500 120.000
58.13000 112.000
58.14500 126.000
58.16000 117.000
58.17500 110.000
58.19000 122.000
58.20500 117.000
58.22000 134.000
58.23500 123.000
58.25000 130.000
58.26500 130.000
58.28000 137.000
58.29500 141.000
58.31000 147.000
58.32500 129.000
58.34000 125.000
58.35500 131.000
58.37000 131.000
58.38500 123.000
58.40000 118.000
58.41500 112.000
58.43000 138.000
58.44500 148.000
58.46000 138.000
58.47500 134.000
58.49000 136.000
58.50500 143.000
58.52000 134.000
58.53500 127.000
58.55000 131.000
58.56500 131.000
58.58000 143.000
58.59500 143.000
58.61000 153.000
58.62500 163.000
58.64000 153.000
58.65500 146.000
58.67000 148.000
58.68500 153.000
58.70000 147.000
58.71500 139.000
58.73000 155.000
58.74500 146.000
58.76000 129.000
58.77500 137.000
58.79000 142.000
58.80500 140.000
58.82000 138.000
58.83500 133.000
58.85000 154.000
58.86500 143.000
58.88000 139.000
58.89500 159.000
58.91000 146.000
58.92500 171.000
58.94000 166.000
58.95500 157.000
58.97000 170.000
58.98500 161.000
59.00000 143.000
59.01500 138.000
59.03000 152.000
59.04500 159.000
59.06000 139.000
59.07500 132.000
59.09000 146.000
59.10500 131.000
59.12000 153.000
59.13500 162.000
59.15000 144.000
59.16500 128.000
59.18000 137.000
59.19500 121.000
59.21000 131.000
59.22500 122.000
59.24000 139.000
59.25500 142.000
59.27000 121.000
59.28500 131.000
59.30000 125.000
59.31500 145.000
59.33000 129.000
59.34500 122.000
59.36000 128.000
59.37500 116.000
59.39000 121.000
59.40500 118.000
59.42000 106.000
59.43500 108.000
59.45000 130.000
59.46500 130.000
59.48000 138.000
59.49500 126.000
59.51000 115.000
59.52500 134.000
59.54000 127.000
59.55500 113.000
59.57000 118.000
59.58500 124.000
59.60000 125.000
59.61500 127.000
59.63000 121.000
59.64500 125.000
59.66000 123.000
59.67500 108.000
59.69000 103.000
59.70500 108.000
59.72000 107.000
59.73500 125.000
59.75000 117.000
59.76500 131.000
59.78000 119.000
59.79500 109.000
59.81000 108.000
59.82500 111.000
59.84000 102.000
59.85500 108.000
59.87000 114.000
59.88500 109.000
59.90000 118.000
59.91500 117.000
59.93000 118.000
59.94500 119.000
59.96000 121.000
59.97500 120.000
59.99000 102.000
60.00500 100.000
60.02000 106.000
60.03500 101.000
60.05000 117.000
60.06500 109.000
60.08000 115.000
60.09500 127.000
60.11000 120.000
60.12500 115.000
60.14000 105.000
60.15500 109.000
60.17000 114.000
60.18500 109.000
60.20000 114.000
60.21500 118.000
60.23000 112.000
60.24500 111.000
60.26000 126.000
60.27500 106.000
60.29000 108.000
60.30500 107.000
60.32000 115.000
60.33500 107.000
60.35000 110.000
60.36500 115.000
60.38000 124.000
60.39500 115.000
60.41000 99.000
60.42500 110.000
60.44000 108.000
60.45500 102.000
60.47000 113.000
60.48500 126.000
60.50000 109.000
60.51500 99.000
60.53000 110.000
60.54500 116.000
60.56000 105.000
60.57500 98.000
60.59000 118.000
60.60500 95.000
60.62000 95.000
60.63500 108.000
60.65000 118.000
60.66500 101.000
60.68000 83.000
60.69500 98.000
60.71000 117.000
60.72500 128.000
60.74000 110.000
60.75500 93.000
60.77000 117.000
60.78500 105.000
60.80000 106.000
60.81500 110.000
60.83000 106.000
60.84500 102.000
60.86000 108.000
60.87500 112.000
60.89000 119.000
60.90500 116.000
60.92000 114.000
60.93500 103.000
60.95000 97.000
60.96500 102.000
60.98000 112.000
60.99500 107.000
61.01000 98.000
61.02500 95.000
61.04000 104.000
61.05500 103.000
61.07000 91.000
61.08500 100.000
61.10000 112.000
61.11500 102.000
61.13000 104.000
61.14500 102.000
61.16000 112.000
61.17500 102.000
61.19000 102.000
61.20500 106.000
61.22000 107.000
61.23500 123.000
61.25000 112.000
61.26500 92.000
61.28000 97.000
61.29500 107.000
61.31000 99.000
61.32500 97.000
61.34000 117.000
61.35500 127.000
61.37000 112.000
61.38500 109.000
61.40000 106.000
61.41500 94.000
61.43000 101.000
61.44500 102.000
61.46000 101.000
61.47500 111.000
61.49000 113.000
61.50500 117.000
61.52000 104.000
61.53500 97.000
61.55000 108.000
61.56500 107.000
61.58000 98.000
61.59500 87.000
61.61000 95.000
61.62500 99.000
61.64000 102.000
61.65500 109.000
61.67000 91.000
61.68500 104.000
61.70000 99.000
61.71500 99.000
61.73000 93.000
61.74500 94.000
61.76000 95.000
61.77500 105.000
61.79000 103.000
61.80500 95.000
61.82000 99.000
61.83500 96.000
61.85000 90.000
61.86500 96.000
61.88000 98.000
61.89500 92.000
61.91000 102.000
61.92500 107.000
61.94000 108.000
61.95500 116.000
61.97000 91.000
61.98500 99.000
