2.00000 360.000
2.01500 372.000
2.03000 343.000
2.04500 373.000
2.06000 352.000
2.07500 355.000
2.09000 354.000
2.10500 320.000
2.12000 317.000
2.13500 336.000
2.15000 330.000
2.16500 317.000
2.18000 311.000
2.19500 296.000
2.21000 269.000
2.22500 294.000
2.24000 297.000
2.25500 280.000
2.27000 269.000
2.28500 286.000
2.30000 307.000
2.31500 280.000
2.33000 279.000
2.34500 237.000
2.36000 251.000
2.37500 259.000
2.39000 234.000
2.40500 267.000
2.42000 265.000
2.43500 255.000
2.45000 248.000
2.46500 225.000
2.48000 222.000
2.49500 237.000
2.51000 245.000
2.52500 230.000
2.54000 233.000
2.55500 229.000
2.57000 255.000
2.58500 228.000
2.60000 231.000
2.61500 219.000
2.63000 219.000
2.64500 219.000
2.66000 228.000
2.67500 216.000
2.69000 194.000
2.70500 202.000
2.72000 227.000
2.73500 198.000
2.75000 192.000
2.76500 212.000
2.78000 186.000
2.79500 183.000
2.81000 200.000
2.82500 208.000
2.84000 233.000
2.85500 209.000
2.87000 212.000
2.88500 236.000
2.90000 236.000
2.91500 199.000
2.93000 198.000
2.94500 194.000
2.96000 192.000
2.97500 196.000
2.99000 197.000
3.00500 188.000
3.02000 218.000
3.03500 205.000
3.05000 181.000
3.06500 185.000
3.08000 183.000
3.09500 186.000
3.11000 195.000
3.12500 183.000
3.14000 181.000
3.15500 203.000
3.17000 189.000
3.18500 169.000
3.20000 204.000
3.21500 199.000
3.23000 186.000
3.24500 206.000
3.26000 187.000
3.27500 189.000
3.29000 171.000
3.30500 188.000
3.32000 182.000
3.33500 175.000
3.35000 193.000
3.36500 182.000
3.38000 184.000
3.39500 177.000
3.41000 166.000
3.42500 185.000
3.44000 176.000
3.45500 161.000
3.47000 175.000
3.48500 173.000
3.50000 156.000
3.51500 181.000
3.53000 176.000
3.54500 176.000
3.56000 180.000
3.57500 187.000
3.59000 173.000
3.60500 196.000
3.62000 167.000
3.63500 164.000
3.65000 191.000
3.66500 181.000
3.68000 188.000
3.69500 168.000
3.71000 194.000
3.72500 178.000
3.74000 172.000
3.75500 171.000
3.77000 173.000
3.78500 172.000
3.80000 160.000
3.81500 160.000
3.83000 160.000
3.84500 187.000
3.86000 172.000
3.87500 169.000
3.89000 175.000
3.90500 181.000
3.92000 173.000
3.93500 183.000
3.95000 154.000
3.96500 160.000
3.98000 176.000
3.99500 177.000
4.01000 196.000
4.02500 190.000
4.04000 162.000
4.05500 161.000
4.07000 164.000
4.08500 197.000
4.10000 163.000
4.11500 166.000
4.13000 178.000
4.14500 185.000
4.16000 173.000
4.17500 169.000
4.19000 171.000
4.20500 172.000
4.22000 161.000
4.23500 150.000
4.25000 173.000
4.26500 159.000
4.28000 175.000
4.29500 178.000
4.31000 169.000
4.32500 186.000
4.34000 188.000
4.35500 164.000
4.37000 167.000
4.38500 175.000
4.40000 170.000
4.41500 195.000
4.43000 177.000
4.44500 161.000
4.46000 173.000
4.47500 174.000
4.49000 178.000
4.50500 177.000
4.52000 165.000
4.53500 181.000
4.55000 178.000
4.56500 178.000
4.58000 175.000
4.59500 178.000
4.61000 177.000
4.62500 176.000
4.64000 170.000
4.65500 181.000
4.67000 180.000
4.68500 185.000
4.70000 180.000
4.71500 184.000
4.73000 187.000
4.74500 191.000
4.76000 177.000
4.77500 176.000
4.79000 177.000
4.80500 176.000
4.82000 159.000
4.83500 159.000
4.85000 192.000
4.86500 190.000
4.88000 184.000
4.89500 205.000
4.91000 180.000
4.92500 156.000
4.94000 169.000
4.95500 162.000
4.97000 185.000
4.98500 193.000
5.00000 169.000
5.01500 170.000
5.03000 187.000
5.04500 154.000
5.06000 172.000
5.07500 182.000
5.09000 168.000
5.10500 166.000
5.12000 177.000
5.13500 175.000
5.15000 191.000
5.16500 181.000
5.18000 162.000
5.19500 161.000
5.21000 175.000
5.22500 195.000
5.24000 177.000
5.25500 177.000
5.27000 168.000
5.28500 187.000
5.30000 183.000
5.31500 166.000
5.33000 169.000
5.34500 179.000
5.36000 192.000
5.37500 182.000
5.39000 168.000
5.40500 152.000
5.42000 157.000
5.43500 170.000
5.45000 167.000
5.46500 171.000
5.48000 168.000
5.49500 174.000
5.51000 178.000
5.52500 171.000
5.54000 166.000
5.55500 178.000
5.57000 168.000
5.58500 190.000
5.60000 188.000
5.61500 184.000
5.63000 185.000
5.64500 180.000
5.66000 188.000
5.67500 185.000
5.69000 168.000
5.70500 160.000
5.72000 159.000
5.73500 163.000
5.75000 166.000
5.76500 192.000
5.78000 193.000
5.79500 188.000
5.81000 169.000
5.82500 163.000
5.84000 164.000
5.85500 180.000
5.87000 189.000
5.88500 157.000
5.90000 184.000
5.91500 183.000
5.93000 185.000
5.94500 191.000
5.96000 184.000
5.97500 186.000
5.99000 189.000
6.00500 187.000
6.02000 182.000
6.03500 192.000
6.05000 171.000
6.06500 164.000
6.08000 162.000
6.09500 167.000
6.11000 171.000
6.12500 160.000
6.14000 163.000
6.15500 168.000
6.17000 167.000
6.18500 166.000
6.20000 164.000
6.21500 179.000
6.23000 171.000
6.24500 159.000
6.26000 166.000
6.27500 161.000
6.29000 172.000
6.30500 162.000
6.32000 179.000
6.33500 180.000
6.35000 187.000
6.36500 178.000
6.38000 163.000
6.39500 169.000
6.41000 177.000
6.42500 175.000
6.44000 176.000
6.45500 176.000
6.47000 164.000
6.48500 185.000
6.50000 192.000
6.51500 188.000
6.53000 175.000
6.54500 170.000
6.56000 182.000
6.57500 161.000
6.59000 171.000
6.60500 169.000
6.62000 167.000
6.63500 164.000
6.65000 169.000
6.66500 174.000
6.68000 163.000
6.69500 186.000
6.71000 189.000
6.72500 199.000
6.74000 156.000
6.75500 191.000
6.77000 162.000
6.78500 156.000
6.80000 176.000
6.81500 161.000
6.83000 175.000
6.84500 181.000
6.86000 177.000
6.87500 178.000
6.89000 183.000
6.90500 169.000
6.92000 164.000
6.93500 170.000
6.95000 174.000
6.96500 169.000
6.98000 167.000
6.99500 173.000
7.01000 198.000
7.02500 164.000
7.04000 156.000
7.05500 158.000
7.07000 169.000
7.08500 205.000
7.10000 178.000
7.11500 158.000
7.13000 144.000
7.14500 165.000
7.16000 166.000
7.17500 161.000
7.19000 192.000
7.20500 184.000
7.22000 158.000
7.23500 167.000
7.25000 173.000
7.26500 179.000
7.28000 171.000
7.29500 173.000
7.31000 172.000
7.32500 155.000
7.34000 167.000
7.35500 160.000
7.37000 156.000
7.38500 164.000
7.40000 159.000
7.41500 144.000
7.43000 155.000
7.44500 157.000
7.46000 160.000
7.47500 162.000
7.49000 171.000
7.50500 171.000
7.52000 165.000
7.53500 168.000
7.55000 166.000
7.56500 180.000
7.58000 180.000
7.59500 160.000
7.61000 181.000
7.62500 184.000
7.64000 170.000
7.65500 177.000
7.67000 184.000
7.68500 200.000
7.70000 167.000
7.71500 166.000
7.73000 183.000
7.74500 168.000
7.76000 177.000
7.77500 173.000
7.79000 172.000
7.80500 169.000
7.82000 156.000
7.83500 164.000
7.85000 165.000
7.86500 149.000
7.88000 163.000
7.89500 176.000
7.91000 185.000
7.92500 174.000
7.94000 171.000
7.95500 172.000
7.97000 168.000
7.98500 174.000
8.00000 164.000
8.01500 168.000
8.03000 177.000
8.04500 180.000
8.06000 164.000
8.07500 167.000
8.09000 172.000
8.10500 176.000
8.12000 159.000
8.13500 142.000
8.15000 180.000
8.16500 186.000
8.18000 165.000
8.19500 176.000
8.21000 174.000
8.22500 190.000
8.24000 166.000
8.25500 167.000
8.27000 171.000
8.28500 171.000
8.30000 166.000
8.31500 154.000
8.33000 168.000
8.34500 178.000
8.36000 181.000
8.37500 171.000
8.39000 178.000
8.40500 164.000
8.42000 170.000
8.43500 167.000
8.45000 160.000
8.46500 174.000
8.48000 174.000
8.49500 176.000
8.51000 166.000
8.52500 159.000
8.54000 160.000
8.55500 169.000
8.57000 169.000
8.58500 189.000
8.60000 180.000
8.61500 168.000
8.63000 161.000
8.64500 177.000
8.66000 167.000
8.67500 190.000
8.69000 171.000
8.70500 156.000
8.72000 169.000
8.73500 167.000
8.75000 153.000
8.76500 160.000
8.78000 158.000
8.79500 163.000
8.81000 170.000
8.82500 172.000
8.84000 169.000
8.85500 178.000
8.87000 166.000
8.88500 178.000
8.90000 173.000
8.91500 179.000
8.93000 167.000
8.94500 179.000
8.96000 180.000
8.97500 163.000
8.99000 168.000
9.00500 158.000
9.02000 159.000
9.03500 164.000
9.05000 158.000
9.06500 158.000
9.08000 186.000
9.09500 193.000
9.11000 168.000
9.12500 169.000
9.14000 179.000
9.15500 167.000
9.17000 167.000
9.18500 162.000
9.20000 172.000
9.21500 173.000
9.23000 179.000
9.24500 184.000
9.26000 177.000
9.27500 179.000
9.29000 159.000
9.30500 156.000
9.32000 176.000
9.33500 170.000
9.35000 187.000
9.36500 165.000
9.38000 159.000
9.39500 187.000
9.41000 177.000
9.42500 170.000
9.44000 183.000
9.45500 168.000
9.47000 162.000
9.48500 172.000
9.50000 159.000
9.51500 161.000
9.53000 178.000
9.54500 174.000
9.56000 159.000
9.57500 153.000
9.59000 153.000
9.60500 171.000
9.62000 161.000
9.63500 162.000
9.65000 171.000
9.66500 173.000
9.68000 166.000
9.69500 174.000
9.71000 170.000
9.72500 173.000
9.74000 171.000
9.75500 158.000
9.77000 174.000
9.78500 167.000
9.80000 171.000
9.81500 169.000
9.83000 168.000
9.84500 153.000
9.86000 154.000
9.87500 168.000
9.89000 160.000
9.90500 162.000
9.92000 175.000
9.93500 166.000
9.95000 163.000
9.96500 166.000
9.98000 165.000
9.99500 161.000
10.01000 163.000
10.02500 155.000
10.04000 169.000
10.05500 151.000
10.07000 154.000
10.08500 189.000
10.10000 179.000
10.11500 159.000
10.13000 158.000
10.14500 162.000
10.16000 184.000
10.17500 174.000
10.19000 175.000
10.20500 160.000
10.22000 159.000
10.23500 182.000
10.25000 165.000
10.26500 165.000
10.28000 156.000
10.29500 170.000
10.31000 173.000
10.32500 193.000
10.34000 188.000
10.35500 167.000
10.37000 180.000
10.38500 161.000
10.40000 154.000
10.41500 155.000
10.43000 181.000
10.44500 187.000
10.46000 169.000
10.47500 188.000
10.49000 165.000
10.50500 162.000
10.52000 174.000
10.53500 186.000
10.55000 166.000
10.56500 171.000
10.58000 175.000
10.59500 167.000
10.61000 172.000
10.62500 163.000
10.64000 168.000
10.65500 157.000
10.67000 161.000
10.68500 161.000
10.70000 157.000
10.71500 154.000
10.73000 149.000
10.74500 161.000
10.76000 174.000
10.77500 172.000
10.79000 189.000
10.80500 176.000
10.82000 167.000
10.83500 164.000
10.85000 168.000
10.86500 177.000
10.88000 174.000
10.89500 167.000
10.91000 176.000
10.92500 176.000
10.94000 164.000
10.95500 166.000
10.97000 151.000
10.98500 172.000
11.00000 187.000
11.01500 180.000
11.03000 173.000
11.04500 166.000
11.06000 148.000
11.07500 173.000
11.09000 183.000
11.10500 196.000
11.12000 197.000
11.13500 198.000
11.15000 181.000
11.16500 159.000
11.18000 169.000
11.19500 179.000
11.21000 176.000
11.22500 199.000
11.24000 164.000
11.25500 173.000
11.27000 164.000
11.28500 145.000
11.30000 168.000
11.31500 155.000
11.33000 162.000
11.34500 156.000
11.36000 169.000
11.37500 180.000
11.39000 170.000
11.40500 180.000
11.42000 169.000
11.43500 171.000
11.45000 173.000
11.46500 171.000
11.48000 171.000
11.49500 168.000
11.51000 171.000
11.52500 167.000
11.54000 179.000
11.55500 171.000
11.57000 183.000
11.58500 173.000
11.60000 165.000
11.61500 183.000
11.63000 174.000
11.64500 186.000
11.66000 188.000
11.67500 198.000
11.69000 199.000
11.70500 190.000
11.72000 188.000
11.73500 202.000
11.75000 202.000
11.76500 234.000
11.78000 223.000
11.79500 218.000
11.81000 222.000
11.82500 235.000
11.84000 297.000
11.85500 325.000
11.87000 345.000
11.88500 421.000
11.90000 482.000
11.91500 539.000
11.93000 643.000
11.94500 823.000
11.96000 1045.000
11.97500 1325.000
11.99000 1444.000
12.00500 1415.000
12.02000 1259.000
12.03500 1142.000
12.05000 995.000
12.06500 987.000
12.08000 947.000
12.09500 868.000
12.11000 790.000
12.12500 678.000
12.14000 492.000
12.15500 386.000
12.17000 340.000
12.18500 283.000
12.20000 254.000
12.21500 238.000
12.23000 228.000
12.24500 243.000
12.26000 233.000
12.27500 240.000
12.29000 232.000
12.30500 242.000
12.32000 226.000
12.33500 220.000
12.35000 228.000
12.36500 233.000
12.38000 236.000
12.39500 204.000
12.41000 211.000
12.42500 222.000
12.44000 221.000
12.45500 196.000
12.47000 211.000
12.48500 203.000
12.50000 223.000
12.51500 216.000
12.53000 209.000
12.54500 209.000
12.56000 207.000
12.57500 213.000
12.59000 218.000
12.60500 210.000
12.62000 195.000
12.63500 202.000
12.65000 207.000
12.66500 196.000
12.68000 192.000
12.69500 184.000
12.71000 190.000
12.72500 186.000
12.74000 224.000
12.75500 206.000
12.77000 187.000
12.78500 190.000
12.80000 205.000
12.81500 198.000
12.83000 186.000
12.84500 198.000
12.86000 189.000
12.87500 191.000
12.89000 197.000
12.90500 216.000
12.92000 196.000
12.93500 198.000
12.95000 191.000
12.96500 175.000
12.98000 198.000
12.99500 184.000
13.01000 178.000
13.02500 176.000
13.04000 187.000
13.05500 191.000
13.07000 193.000
13.08500 186.000
13.10000 199.000
13.11500 211.000
13.13000 187.000
13.14500 192.000
13.16000 187.000
13.17500 196.000
13.19000 198.000
13.20500 171.000
13.22000 184.000
13.23500 169.000
13.25000 180.000
13.26500 181.000
13.28000 209.000
13.29500 176.000
13.31000 187.000
13.32500 194.000
13.34000 179.000
13.35500 186.000
13.37000 193.000
13.38500 196.000
13.40000 189.000
13.41500 185.000
13.43000 197.000
13.44500 192.000
13.46000 173.000
13.47500 182.000
13.49000 170.000
13.50500 166.000
13.52000 184.000
13.53500 166.000
13.55000 164.000
13.56500 170.000
13.58000 169.000
13.59500 184.000
13.61000 165.000
13.62500 208.000
13.64000 190.000
13.65500 165.000
13.67000 187.000
13.68500 170.000
13.70000 187.000
13.71500 179.000
13.73000 205.000
13.74500 187.000
13.76000 206.000
13.77500 179.000
13.79000 177.000
13.80500 176.000
13.82000 187.000
13.83500 177.000
13.85000 185.000
13.86500 175.000
13.88000 158.000
13.89500 185.000
13.91000 194.000
13.92500 188.000
13.94000 187.000
13.95500 189.000
13.97000 164.000
13.98500 174.000
14.00000 167.000
14.01500 167.000
14.03000 172.000
14.04500 182.000
14.06000 157.000
14.07500 171.000
14.09000 193.000
14.10500 162.000
14.12000 165.000
14.13500 179.000
14.15000 192.000
14.16500 167.000
14.18000 160.000
14.19500 177.000
14.21000 185.000
14.22500 172.000
14.24000 193.000
14.25500 171.000
14.27000 184.000
14.28500 170.000
14.30000 161.000
14.31500 169.000
14.33000 185.000
14.34500 180.000
14.36000 183.000
14.37500 174.000
14.39000 183.000
14.40500 204.000
14.42000 195.000
14.43500 192.000
14.45000 192.000
14.46500 175.000
14.48000 191.000
14.49500 191.000
14.51000 186.000
14.52500 186.000
14.54000 186.000
14.55500 170.000
14.57000 171.000
14.58500 213.000
14.60000 196.000
14.61500 175.000
14.63000 180.000
14.64500 170.000
14.66000 172.000
14.67500 177.000
14.69000 174.000
14.70500 182.000
14.72000 172.000
14.73500 185.000
14.75000 190.000
14.76500 184.000
14.78000 184.000
14.79500 181.000
14.81000 181.000
14.82500 175.000
14.84000 177.000
14.85500 202.000
14.87000 163.000
14.88500 171.000
14.90000 193.000
14.91500 198.000
14.93000 193.000
14.94500 170.000
14.96000 155.000
14.97500 150.000
14.99000 178.000
15.00500 173.000
15.02000 179.000
15.03500 188.000
15.05000 172.000
15.06500 171.000
15.08000 160.000
15.09500 161.000
15.11000 204.000
15.12500 187.000
15.14000 182.000
15.15500 180.000
15.17000 174.000
15.18500 185.000
15.20000 177.000
15.21500 204.000
15.23000 208.000
15.24500 186.000
15.26000 164.000
15.27500 167.000
15.29000 184.000
15.30500 168.000
15.32000 176.000
15.33500 177.000
15.35000 174.000
15.36500 178.000
15.38000 179.000
15.39500 167.000
15.41000 168.000
15.42500 160.000
15.44000 188.000
15.45500 197.000
15.47000 200.000
15.48500 177.000
15.50000 179.000
15.51500 186.000
15.53000 186.000
15.54500 172.000
15.56000 179.000
15.57500 192.000
15.59000 164.000
15.60500 181.000
15.62000 171.000
15.63500 171.000
15.65000 186.000
15.66500 188.000
15.68000 162.000
15.69500 180.000
15.71000 198.000
15.72500 196.000
15.74000 198.000
15.75500 191.000
15.77000 186.000
15.78500 180.000
15.80000 165.000
15.81500 172.000
15.83000 175.000
15.84500 177.000
15.86000 207.000
15.87500 185.000
15.89000 175.000
15.90500 197.000
15.92000 180.000
15.93500 181.000
15.95000 180.000
15.96500 197.000
15.98000 195.000
15.99500 188.000
16.01000 195.000
16.02500 203.000
16.04000 194.000
16.05500 191.000
16.07000 189.000
16.08500 221.000
16.10000 192.000
16.11500 181.000
16.13000 164.000
16.14500 180.000
16.16000 197.000
16.17500 197.000
16.19000 182.000
16.20500 184.000
16.22000 202.000
16.23500 194.000
16.25000 194.000
16.26500 174.000
16.28000 180.000
16.29500 173.000
16.31000 190.000
16.32500 200.000
16.34000 196.000
16.35500 204.000
16.37000 194.000
16.38500 203.000
16.40000 211.000
16.41500 192.000
16.43000 185.000
16.44500 191.000
16.46000 191.000
16.47500 199.000
16.49000 203.000
16.50500 185.000
16.52000 178.000
16.53500 189.000
16.55000 203.000
16.56500 192.000
16.58000 191.000
16.59500 203.000
16.61000 204.000
16.62500 203.000
16.64000 191.000
16.65500 205.000
16.67000 200.000
16.68500 212.000
16.70000 199.000
16.71500 186.000
16.73000 169.000
16.74500 194.000
16.76000 213.000
16.77500 202.000
16.79000 178.000
16.80500 183.000
16.82000 183.000
16.83500 207.000
16.85000 190.000
16.86500 185.000
16.88000 210.000
16.89500 200.000
16.91000 195.000
16.92500 186.000
16.94000 215.000
16.95500 207.000
16.97000 194.000
16.98500 198.000
17.00000 182.000
17.01500 178.000
17.03000 193.000
17.04500 197.000
17.06000 220.000
17.07500 191.000
17.09000 185.000
17.10500 194.000
17.12000 200.000
17.13500 185.000
17.15000 199.000
17.16500 215.000
17.18000 224.000
17.19500 207.000
17.21000 189.000
17.22500 192.000
17.24000 198.000
17.25500 216.000
17.27000 223.000
17.28500 204.000
17.30000 204.000
17.31500 209.000
17.33000 220.000
17.34500 220.000
17.36000 189.000
17.37500 198.000
17.39000 197.000
17.40500 214.000
17.42000 222.000
17.43500 238.000
17.45000 208.000
17.46500 200.000
17.48000 220.000
17.49500 236.000
17.51000 225.000
17.52500 193.000
17.54000 214.000
17.55500 223.000
17.57000 216.000
17.58500 210.000
17.60000 239.000
17.61500 224.000
17.63000 211.000
17.64500 213.000
17.66000 230.000
17.67500 242.000
17.69000 225.000
17.70500 218.000
17.72000 227.000
17.73500 213.000
17.75000 247.000
17.76500 283.000
17.78000 254.000
17.79500 282.000
17.81000 279.000
17.82500 263.000
17.84000 279.000
17.85500 301.000
17.87000 321.000
17.88500 326.000
17.90000 331.000
17.91500 344.000
17.93000 309.000
17.94500 324.000
17.96000 343.000
17.97500 304.000
17.99000 321.000
18.00500 317.000
18.02000 317.000
18.03500 310.000
18.05000 338.000
18.06500 328.000
18.08000 298.000
18.09500 312.000
18.11000 301.000
18.12500 312.000
18.14000 311.000
18.15500 280.000
18.17000 280.000
18.18500 255.000
18.20000 265.000
18.21500 255.000
18.23000 267.000
18.24500 247.000
18.26000 264.000
18.27500 274.000
18.29000 262.000
18.30500 282.000
18.32000 260.000
18.33500 258.000
18.35000 243.000
18.36500 237.000
18.38000 241.000
18.39500 227.000
18.41000 223.000
18.42500 227.000
18.44000 223.000
18.45500 226.000
18.47000 225.000
18.48500 251.000
18.50000 227.000
18.51500 228.000
18.53000 238.000
18.54500 210.000
18.56000 207.000
18.57500 197.000
18.59000 225.000
18.60500 229.000
18.62000 224.000
18.63500 226.000
18.65000 235.000
18.66500 219.000
18.68000 238.000
18.69500 207.000
18.71000 242.000
18.72500 208.000
18.74000 227.000
18.75500 227.000
18.77000 218.000
18.78500 217.000
18.80000 213.000
18.81500 208.000
18.83000 208.000
18.84500 201.000
18.86000 222.000
18.87500 238.000
18.89000 234.000
18.90500 217.000
18.92000 234.000
18.93500 236.000
18.95000 220.000
18.96500 217.000
18.98000 215.000
18.99500 232.000
19.01000 215.000
19.02500 219.000
19.04000 218.000
19.05500 202.000
19.07000 200.000
19.08500 201.000
19.10000 218.000
19.11500 236.000
19.13000 230.000
19.14500 199.000
19.16000 212.000
19.17500 232.000
19.19000 225.000
19.20500 214.000
19.22000 240.000
19.23500 213.000
19.25000 203.000
19.26500 218.000
19.28000 227.000
19.29500 211.000
19.31000 212.000
19.32500 203.000
19.34000 210.000
19.35500 206.000
19.37000 212.000
19.38500 233.000
19.40000 231.000
19.41500 220.000
19.43000 227.000
19.44500 219.000
19.46000 215.000
19.47500 223.000
19.49000 202.000
19.50500 239.000
19.52000 216.000
19.53500 223.000
19.55000 233.000
19.56500 226.000
19.58000 235.000
19.59500 209.000
19.61000 213.000
19.62500 212.000
19.64000 219.000
19.65500 225.000
19.67000 218.000
19.68500 210.000
19.70000 231.000
19.71500 228.000
19.73000 225.000
19.74500 241.000
19.76000 230.000
19.77500 230.000
19.79000 232.000
19.80500 216.000
19.82000 234.000
19.83500 232.000
19.85000 216.000
19.86500 211.000
19.88000 235.000
19.89500 233.000
19.91000 240.000
19.92500 253.000
19.94000 235.000
19.95500 234.000
19.97000 229.000
19.98500 251.000
20.00000 233.000
20.01500 245.000
20.03000 238.000
20.04500 244.000
20.06000 216.000
20.07500 237.000
20.09000 243.000
20.10500 251.000
20.12000 253.000
20.13500 232.000
20.15000 248.000
20.16500 238.000
20.18000 231.000
20.19500 250.000
20.21000 257.000
20.22500 224.000
20.24000 238.000
20.25500 250.000
20.27000 223.000
20.28500 217.000
20.30000 245.000
20.31500 238.000
20.33000 247.000
20.34500 243.000
20.36000 237.000
20.37500 241.000
20.39000 237.000
20.40500 242.000
20.42000 271.000
20.43500 255.000
20.45000 250.000
20.46500 263.000
20.48000 259.000
20.49500 243.000
20.51000 231.000
20.52500 248.000
20.54000 258.000
20.55500 246.000
20.57000 276.000
20.58500 274.000
20.60000 233.000
20.61500 221.000
20.63000 251.000
20.64500 272.000
20.66000 317.000
20.67500 285.000
20.69000 310.000
20.70500 319.000
20.72000 351.000
20.73500 381.000
20.75000 414.000
20.76500 455.000
20.78000 473.000
20.79500 509.000
20.81000 508.000
20.82500 484.000
20.84000 516.000
20.85500 519.000
20.87000 457.000
20.88500 461.000
20.90000 473.000
20.91500 468.000
20.93000 449.000
20.94500 391.000
20.96000 434.000
20.97500 388.000
20.99000 365.000
21.00500 342.000
21.02000 322.000
21.03500 308.000
21.05000 278.000
21.06500 300.000
21.08000 289.000
21.09500 292.000
21.11000 290.000
21.12500 288.000
21.14000 283.000
21.15500 262.000
21.17000 294.000
21.18500 286.000
21.20000 255.000
21.21500 252.000
21.23000 279.000
21.24500 264.000
21.26000 250.000
21.27500 274.000
21.29000 274.000
21.30500 250.000
21.32000 250.000
21.33500 260.000
21.35000 233.000
21.36500 248.000
21.38000 272.000
21.39500 258.000
21.41000 257.000
21.42500 268.000
21.44000 262.000
21.45500 258.000
21.47000 234.000
21.48500 254.000
21.50000 261.000
21.51500 270.000
21.53000 257.000
21.54500 228.000
21.56000 255.000
21.57500 267.000
21.59000 258.000
21.60500 252.000
21.62000 259.000
21.63500 245.000
21.65000 244.000
21.66500 261.000
21.68000 265.000
21.69500 258.000
21.71000 263.000
21.72500 260.000
21.74000 253.000
21.75500 249.000
21.77000 270.000
21.78500 248.000
21.80000 260.000
21.81500 261.000
21.83000 262.000
21.84500 263.000
21.86000 258.000
21.87500 285.000
21.89000 289.000
21.90500 285.000
21.92000 267.000
21.93500 249.000
21.95000 252.000
21.96500 270.000
21.98000 258.000
21.99500 240.000
22.01000 260.000
22.02500 254.000
22.04000 251.000
22.05500 250.000
22.07000 240.000
22.08500 256.000
22.10000 264.000
22.11500 257.000
22.13000 247.000
22.14500 244.000
22.16000 247.000
22.17500 254.000
22.19000 262.000
22.20500 271.000
22.22000 261.000
22.23500 237.000
22.25000 254.000
22.26500 226.000
22.28000 263.000
22.29500 277.000
22.31000 262.000
22.32500 283.000
22.34000 300.000
22.35500 265.000
22.37000 270.000
22.38500 269.000
22.40000 277.000
22.41500 249.000
22.43000 236.000
22.44500 255.000
22.46000 259.000
22.47500 282.000
22.49000 260.000
22.50500 249.000
22.52000 250.000
22.53500 270.000
22.55000 287.000
22.56500 292.000
22.58000 270.000
22.59500 246.000
22.61000 248.000
22.62500 276.000
22.64000 249.000
22.65500 254.000
22.67000 274.000
22.68500 276.000
22.70000 273.000
22.71500 246.000
22.73000 259.000
22.74500 286.000
22.76000 283.000
22.77500 271.000
22.79000 263.000
22.80500 268.000
22.82000 262.000
22.83500 261.000
22.85000 271.000
22.86500 259.000
22.88000 272.000
22.89500 280.000
22.91000 248.000
22.92500 257.000
22.94000 249.000
22.95500 253.000
22.97000 260.000
22.98500 249.000
23.00000 282.000
23.01500 290.000
23.03000 297.000
23.04500 292.000
23.06000 266.000
23.07500 256.000
23.09000 280.000
23.10500 282.000
23.12000 281.000
23.13500 285.000
23.15000 274.000
23.16500 271.000
23.18000 262.000
23.19500 265.000
23.21000 279.000
23.22500 272.000
23.24000 264.000
23.25500 272.000
23.27000 251.000
23.28500 287.000
23.30000 288.000
23.31500 285.000
23.33000 239.000
23.34500 266.000
23.36000 297.000
23.37500 271.000
23.39000 274.000
23.40500 271.000
23.42000 266.000
23.43500 275.000
23.45000 279.000
23.46500 291.000
23.48000 272.000
23.49500 267.000
23.51000 280.000
23.52500 292.000
23.54000 281.000
23.55500 290.000
23.57000 276.000
23.58500 296.000
23.60000 290.000
23.61500 263.000
23.63000 257.000
23.64500 254.000
23.66000 265.000
23.67500 291.000
23.69000 283.000
23.70500 251.000
23.72000 269.000
23.73500 280.000
23.75000 288.000
23.76500 279.000
23.78000 244.000
23.79500 262.000
23.81000 285.000
23.82500 295.000
23.84000 300.000
23.85500 281.000
23.87000 314.000
23.88500 307.000
23.90000 329.000
23.91500 310.000
23.93000 295.000
23.94500 292.000
23.96000 276.000
23.97500 294.000
23.99000 312.000
24.00500 310.000
24.02000 288.000
24.03500 305.000
24.05000 308.000
24.06500 308.000
24.08000 300.000
24.09500 286.000
24.11000 354.000
24.12500 351.000
24.14000 354.000
24.15500 357.000
24.17000 373.000
24.18500 382.000
24.20000 359.000
24.21500 389.000
24.23000 371.000
24.24500 377.000
24.26000 395.000
24.27500 402.000
24.29000 416.000
24.30500 394.000
24.32000 383.000
24.33500 359.000
24.35000 338.000
24.36500 338.000
24.38000 335.000
24.39500 318.000
24.41000 323.000
24.42500 359.000
24.44000 320.000
24.45500 310.000
24.47000 320.000
24.48500 313.000
24.50000 292.000
24.51500 306.000
24.53000 343.000
24.54500 331.000
24.56000 311.000
24.57500 330.000
24.59000 331.000
24.60500 347.000
24.62000 375.000
24.63500 349.000
24.65000 358.000
24.66500 394.000
24.68000 385.000
24.69500 384.000
24.71000 404.000
24.72500 401.000
24.74000 420.000
24.75500 404.000
24.77000 432.000
24.78500 473.000
24.80000 434.000
24.81500 481.000
24.83000 446.000
24.84500 457.000
24.86000 446.000
24.87500 459.000
24.89000 484.000
24.90500 474.000
24.92000 492.000
24.93500 519.000
24.95000 503.000
24.96500 468.000
24.98000 459.000
24.99500 445.000
25.01000 461.000
25.02500 469.000
25.04000 453.000
25.05500 421.000
25.07000 433.000
25.08500 386.000
25.10000 410.000
25.11500 410.000
25.13000 397.000
25.14500 358.000
25.16000 357.000
25.17500 378.000
25.19000 366.000
25.20500 350.000
25.22000 336.000
25.23500 334.000
25.25000 347.000
25.26500 330.000
25.28000 333.000
25.29500 333.000
25.31000 303.000
25.32500 311.000
25.34000 326.000
25.35500 326.000
25.37000 314.000
25.38500 309.000
25.40000 323.000
25.41500 311.000
25.43000 316.000
25.44500 313.000
25.46000 315.000
25.47500 285.000
25.49000 332.000
25.50500 326.000
25.52000 315.000
25.53500 287.000
25.55000 267.000
25.56500 282.000
25.58000 301.000
25.59500 322.000
25.61000 287.000
25.62500 291.000
25.64000 302.000
25.65500 300.000
25.67000 319.000
25.68500 344.000
25.70000 327.000
25.71500 288.000
25.73000 300.000
25.74500 283.000
25.76000 299.000
25.77500 274.000
25.79000 283.000
25.80500 315.000
25.82000 317.000
25.83500 306.000
25.85000 289.000
25.86500 290.000
25.88000 303.000
25.89500 307.000
25.91000 292.000
25.92500 308.000
25.94000 298.000
25.95500 301.000
25.97000 322.000
25.98500 328.000
26.00000 301.000
26.01500 306.000
26.03000 338.000
26.04500 333.000
26.06000 326.000
26.07500 311.000
26.09000 330.000
26.10500 318.000
26.12000 329.000
26.13500 335.000
26.15000 332.000
26.16500 318.000
26.18000 310.000
26.19500 319.000
26.21000 327.000
26.22500 350.000
26.24000 337.000
26.25500 316.000
26.27000 324.000
26.28500 350.000
26.30000 356.000
26.31500 337.000
26.33000 337.000
26.34500 340.000
26.36000 346.000
26.37500 341.000
26.39000 366.000
26.40500 360.000
26.42000 362.000
26.43500 342.000
26.45000 344.000
26.46500 370.000
26.48000 339.000
26.49500 342.000
26.51000 379.000
26.52500 386.000
26.54000 384.000
26.55500 354.000
26.57000 392.000
26.58500 430.000
26.60000 398.000
26.61500 417.000
26.63000 400.000
26.64500 425.000
26.66000 420.000
26.67500 449.000
26.69000 417.000
26.70500 438.000
26.72000 455.000
26.73500 470.000
26.75000 478.000
26.76500 507.000
26.78000 521.000
26.79500 509.000
26.81000 556.000
26.82500 573.000
26.84000 560.000
26.85500 613.000
26.87000 614.000
26.88500 670.000
26.90000 695.000
26.91500 725.000
26.93000 720.000
26.94500 782.000
26.96000 839.000
26.97500 869.000
26.99000 897.000
27.00500 880.000
27.02000 918.000
27.03500 944.000
27.05000 928.000
27.06500 882.000
27.08000 884.000
27.09500 865.000
27.11000 842.000
27.12500 812.000
27.14000 754.000
27.15500 725.000
27.17000 712.000
27.18500 712.000
27.20000 696.000
27.21500 653.000
27.23000 680.000
27.24500 684.000
27.26000 669.000
27.27500 642.000
27.29000 622.000
27.30500 669.000
27.32000 632.000
27.33500 655.000
27.35000 642.000
27.36500 627.000
27.38000 660.000
27.39500 659.000
27.41000 665.000
27.42500 660.000
27.44000 657.000
27.45500 670.000
27.47000 719.000
27.48500 723.000
27.50000 733.000
27.51500 770.000
27.53000 789.000
27.54500 816.000
27.56000 806.000
27.57500 828.000
27.59000 861.000
27.60500 862.000
27.62000 879.000
27.63500 913.000
27.65000 962.000
27.66500 973.000
27.68000 986.000
27.69500 1011.000
27.71000 962.000
27.72500 948.000
27.74000 988.000
27.75500 960.000
27.77000 957.000
27.78500 931.000
27.80000 957.000
27.81500 857.000
27.83000 821.000
27.84500 835.000
27.86000 758.000
27.87500 756.000
27.89000 722.000
27.90500 652.000
27.92000 660.000
27.93500 632.000
27.95000 578.000
27.96500 571.000
27.98000 549.000
27.99500 581.000
28.01000 562.000
28.02500 529.000
28.04000 486.000
28.05500 511.000
28.07000 481.000
28.08500 455.000
28.10000 482.000
28.11500 453.000
28.13000 454.000
28.14500 440.000
28.16000 398.000
28.17500 427.000
28.19000 390.000
28.20500 382.000
28.22000 372.000
28.23500 376.000
28.25000 379.000
28.26500 398.000
28.28000 391.000
28.29500 375.000
28.31000 356.000
28.32500 357.000
28.34000 381.000
28.35500 349.000
28.37000 332.000
28.38500 381.000
28.40000 362.000
28.41500 334.000
28.43000 322.000
28.44500 341.000
28.46000 320.000
28.47500 323.000
28.49000 359.000
28.50500 330.000
28.52000 337.000
28.53500 326.000
28.55000 330.000
28.56500 306.000
28.58000 314.000
28.59500 325.000
28.61000 300.000
28.62500 304.000
28.64000 292.000
28.65500 299.000
28.67000 299.000
28.68500 316.000
28.70000 306.000
28.71500 333.000
28.73000 312.000
28.74500 287.000
28.76000 320.000
28.77500 304.000
28.79000 325.000
28.80500 311.000
28.82000 274.000
28.83500 316.000
28.85000 299.000
28.86500 272.000
28.88000 296.000
28.89500 298.000
28.91000 323.000
28.92500 318.000
28.94000 334.000
28.95500 319.000
28.97000 306.000
28.98500 314.000
29.00000 324.000
29.01500 312.000
29.03000 312.000
29.04500 287.000
29.06000 288.000
29.07500 343.000
29.09000 300.000
29.10500 313.000
29.12000 293.000
29.13500 299.000
29.15000 335.000
29.16500 323.000
29.18000 310.000
29.19500 301.000
29.21000 297.000
29.22500 341.000
29.24000 349.000
29.25500 356.000
29.27000 335.000
29.28500 336.000
29.30000 318.000
29.31500 337.000
29.33000 356.000
29.34500 328.000
29.36000 354.000
29.37500 332.000
29.39000 333.000
29.40500 339.000
29.42000 362.000
29.43500 371.000
29.45000 384.000
29.46500 349.000
29.48000 350.000
29.49500 394.000
29.51000 367.000
29.52500 373.000
29.54000 380.000
29.55500 370.000
29.57000 379.000
29.58500 392.000
29.60000 393.000
29.61500 415.000
29.63000 397.000
29.64500 380.000
29.66000 409.000
29.67500 396.000
29.69000 380.000
29.70500 388.000
29.72000 388.000
29.73500 375.000
29.75000 361.000
29.76500 417.000
29.78000 396.000
29.79500 366.000
29.81000 366.000
29.82500 337.000
29.84000 334.000
29.85500 341.000
29.87000 346.000
29.88500 341.000
29.90000 342.000
29.91500 337.000
29.93000 322.000
29.94500 292.000
29.96000 318.000
29.97500 314.000
29.99000 275.000
30.00500 283.000
30.02000 269.000
30.03500 274.000
30.05000 271.000
30.06500 271.000
30.08000 255.000
30.09500 269.000
30.11000 247.000
30.12500 271.000
30.14000 262.000
30.15500 256.000
30.17000 247.000
30.18500 247.000
30.20000 241.000
30.21500 262.000
30.23000 244.000
30.24500 225.000
30.26000 216.000
30.27500 236.000
30.29000 234.000
30.30500 227.000
30.32000 242.000
30.33500 227.000
30.35000 228.000
30.36500 198.000
30.38000 227.000
30.39500 223.000
30.41000 234.000
30.42500 235.000
30.44000 246.000
30.45500 231.000
30.47000 225.000
30.48500 222.000
30.50000 216.000
30.51500 209.000
30.53000 236.000
30.54500 232.000
30.56000 217.000
30.57500 208.000
30.59000 220.000
30.60500 217.000
30.62000 216.000
30.63500 244.000
30.65000 221.000
30.66500 209.000
30.68000 238.000
30.69500 205.000
30.71000 209.000
30.72500 234.000
30.74000 221.000
30.75500 207.000
30.77000 207.000
30.78500 207.000
30.80000 203.000
30.81500 216.000
30.83000 204.000
30.84500 215.000
30.86000 215.000
30.87500 213.000
30.89000 208.000
30.90500 205.000
30.92000 204.000
30.93500 200.000
30.95000 204.000
30.96500 222.000
30.98000 217.000
30.99500 228.000
31.01000 215.000
31.02500 200.000
31.04000 197.000
31.05500 191.000
31.07000 213.000
31.08500 220.000
31.10000 204.000
31.11500 214.000
31.13000 203.000
31.14500 206.000
31.16000 227.000
31.17500 210.000
31.19000 198.000
31.20500 209.000
31.22000 213.000
31.23500 206.000
31.25000 213.000
31.26500 209.000
31.28000 192.000
31.29500 206.000
31.31000 186.000
31.32500 197.000
31.34000 213.000
31.35500 206.000
31.37000 189.000
31.38500 212.000
31.40000 188.000
31.41500 214.000
31.43000 208.000
31.44500 190.000
31.46000 195.000
31.47500 197.000
31.49000 203.000
31.50500 192.000
31.52000 187.000
31.53500 198.000
31.55000 193.000
31.56500 200.000
31.58000 201.000
31.59500 216.000
31.61000 214.000
31.62500 213.000
31.64000 186.000
31.65500 192.000
31.67000 197.000
31.68500 198.000
31.70000 190.000
31.71500 212.000
31.73000 202.000
31.74500 197.000
31.76000 205.000
31.77500 216.000
31.79000 203.000
31.80500 208.000
31.82000 192.000
31.83500 202.000
31.85000 211.000
31.86500 213.000
31.88000 208.000
31.89500 229.000
31.91000 246.000
31.92500 257.000
31.94000 266.000
31.95500 271.000
31.97000 311.000
31.98500 331.000
32.00000 309.000
32.01500 336.000
32.03000 349.000
32.04500 334.000
32.06000 314.000
32.07500 297.000
32.09000 332.000
32.10500 310.000
32.12000 336.000
32.13500 325.000
32.15000 319.000
32.16500 306.000
32.18000 324.000
32.19500 349.000
32.21000 360.000
32.22500 359.000
32.24000 331.000
32.25500 343.000
32.27000 338.000
32.28500 325.000
32.30000 320.000
32.31500 321.000
32.33000 329.000
32.34500 277.000
32.36000 286.000
32.37500 279.000
32.39000 257.000
32.40500 254.000
32.42000 215.000
32.43500 232.000
32.45000 225.000
32.46500 222.000
32.48000 212.000
32.49500 207.000
32.51000 210.000
32.52500 231.000
32.54000 197.000
32.55500 205.000
32.57000 204.000
32.58500 194.000
32.60000 208.000
32.61500 204.000
32.63000 192.000
32.64500 178.000
32.66000 192.000
32.67500 185.000
32.69000 192.000
32.70500 197.000
32.72000 197.000
32.73500 176.000
32.75000 171.000
32.76500 193.000
32.78000 177.000
32.79500 185.000
32.81000 197.000
32.82500 187.000
32.84000 199.000
32.85500 200.000
32.87000 189.000
32.88500 205.000
32.90000 189.000
32.91500 197.000
32.93000 199.000
32.94500 173.000
32.96000 181.000
32.97500 178.000
32.99000 175.000
33.00500 181.000
33.02000 199.000
33.03500 182.000
33.05000 191.000
33.06500 199.000
33.08000 203.000
33.09500 193.000
33.11000 179.000
33.12500 173.000
33.14000 176.000
33.15500 188.000
33.17000 199.000
33.18500 184.000
33.20000 169.000
33.21500 169.000
33.23000 186.000
33.24500 178.000
33.26000 194.000
33.27500 200.000
33.29000 184.000
33.30500 165.000
33.32000 172.000
33.33500 162.000
33.35000 147.000
33.36500 157.000
33.38000 173.000
33.39500 164.000
33.41000 163.000
33.42500 177.000
33.44000 175.000
33.45500 164.000
33.47000 179.000
33.48500 171.000
33.50000 168.000
33.51500 169.000
33.53000 166.000
33.54500 172.000
33.56000 191.000
33.57500 184.000
33.59000 163.000
33.60500 169.000
33.62000 163.000
33.63500 164.000
33.65000 158.000
33.66500 175.000
33.68000 165.000
33.69500 179.000
33.71000 175.000
33.72500 163.000
33.74000 171.000
33.75500 201.000
33.77000 186.000
33.78500 173.000
33.80000 174.000
33.81500 173.000
33.83000 155.000
33.84500 157.000
33.86000 167.000
33.87500 175.000
33.89000 165.000
33.90500 158.000
33.92000 167.000
33.93500 180.000
33.95000 159.000
33.96500 163.000
33.98000 171.000
33.99500 172.000
34.01000 169.000
34.02500 160.000
34.04000 164.000
34.05500 166.000
34.07000 170.000
34.08500 154.000
34.10000 165.000
34.11500 164.000
34.13000 158.000
34.14500 174.000
34.16000 173.000
34.17500 164.000
34.19000 178.000
34.20500 179.000
34.22000 170.000
34.23500 167.000
34.25000 186.000
34.26500 160.000
34.28000 174.000
34.29500 182.000
34.31000 174.000
34.32500 174.000
34.34000 157.000
34.35500 186.000
34.37000 176.000
34.38500 209.000
34.40000 189.000
34.41500 175.000
34.43000 182.000
34.44500 173.000
34.46000 157.000
34.47500 180.000
34.49000 188.000
34.50500 180.000
34.52000 166.000
34.53500 173.000
34.55000 182.000
34.56500 187.000
34.58000 173.000
34.59500 168.000
34.61000 144.000
34.62500 170.000
34.64000 174.000
34.65500 184.000
34.67000 196.000
34.68500 185.000
34.70000 170.000
34.71500 163.000
34.73000 182.000
34.74500 187.000
34.76000 193.000
34.77500 193.000
34.79000 182.000
34.80500 182.000
34.82000 177.000
34.83500 188.000
34.85000 181.000
34.86500 187.000
34.88000 191.000
34.89500 218.000
34.91000 194.000
34.92500 193.000
34.94000 184.000
34.95500 183.000
34.97000 199.000
34.98500 205.000
35.00000 176.000
35.01500 190.000
35.03000 214.000
35.04500 196.000
35.06000 191.000
35.07500 181.000
35.09000 215.000
35.10500 219.000
35.12000 195.000
35.13500 200.000
35.15000 202.000
35.16500 200.000
35.18000 203.000
35.19500 201.000
35.21000 191.000
35.22500 165.000
35.24000 159.000
35.25500 177.000
35.27000 166.000
35.28500 168.000
35.30000 160.000
35.31500 150.000
35.33000 162.000
35.34500 173.000
35.36000 172.000
35.37500 172.000
35.39000 160.000
35.40500 174.000
35.42000 158.000
35.43500 160.000
35.45000 148.000
35.46500 160.000
35.48000 143.000
35.49500 160.000
35.51000 150.000
35.52500 143.000
35.54000 158.000
35.55500 160.000
35.57000 147.000
35.58500 144.000
35.60000 146.000
35.61500 132.000
35.63000 161.000
35.64500 155.000
35.66000 155.000
35.67500 158.000
35.69000 158.000
35.70500 153.000
35.72000 168.000
35.73500 156.000
35.75000 152.000
35.76500 158.000
35.78000 136.000
35.79500 145.000
35.81000 164.000
35.82500 152.000
35.84000 148.000
35.85500 150.000
35.87000 140.000
35.88500 152.000
35.90000 146.000
35.91500 133.000
35.93000 147.000
35.94500 142.000
35.96000 163.000
35.97500 153.000
35.99000 151.000
36.00500 148.000
36.02000 139.000
36.03500 133.000
36.05000 125.000
36.06500 151.000
36.08000 142.000
36.09500 156.000
36.11000 159.000
36.12500 148.000
36.14000 146.000
36.15500 139.000
36.17000 143.000
36.18500 139.000
36.20000 156.000
36.21500 146.000
36.23000 141.000
36.24500 141.000
36.26000 139.000
36.27500 134.000
36.29000 148.000
36.30500 173.000
36.32000 165.000
36.33500 133.000
36.35000 142.000
36.36500 132.000
36.38000 141.000
36.39500 142.000
36.41000 140.000
36.42500 140.000
36.44000 149.000
36.45500 151.000
36.47000 149.000
36.48500 156.000
36.50000 167.000
36.51500 178.000
36.53000 172.000
36.54500 150.000
36.56000 151.000
36.57500 145.000
36.59000 151.000
36.60500 132.000
36.62000 129.000
36.63500 144.000
36.65000 157.000
36.66500 146.000
36.68000 147.000
36.69500 147.000
36.71000 150.000
36.72500 151.000
36.74000 146.000
36.75500 142.000
36.77000 143.000
36.78500 150.000
36.80000 163.000
36.81500 150.000
36.83000 134.000
36.84500 126.000
36.86000 121.000
36.87500 139.000
36.89000 149.000
36.90500 141.000
36.92000 137.000
36.93500 136.000
36.95000 160.000
36.96500 152.000
36.98000 128.000
36.99500 151.000
37.01000 144.000
37.02500 137.000
37.04000 136.000
37.05500 134.000
37.07000 122.000
37.08500 146.000
37.10000 136.000
37.11500 136.000
37.13000 130.000
37.14500 149.000
37.16000 145.000
37.17500 127.000
37.19000 128.000
37.20500 125.000
37.22000 128.000
37.23500 123.000
37.25000 116.000
37.26500 122.000
37.28000 124.000
37.29500 130.000
37.31000 127.000
37.32500 136.000
37.34000 134.000
37.35500 124.000
37.37000 125.000
37.38500 130.000
37.40000 138.000
37.41500 117.000
37.43000 118.000
37.44500 130.000
37.46000 115.000
37.47500 117.000
37.49000 125.000
37.50500 129.000
37.52000 129.000
37.53500 144.000
37.55000 146.000
37.56500 121.000
37.58000 130.000
37.59500 135.000
37.61000 146.000
37.62500 123.000
37.64000 123.000
37.65500 126.000
37.67000 128.000
37.68500 118.000
37.70000 125.000
37.71500 136.000
37.73000 138.000
37.74500 132.000
37.76000 126.000
37.77500 139.000
37.79000 125.000
37.80500 112.000
37.82000 123.000
37.83500 116.000
37.85000 134.000
37.86500 140.000
37.88000 128.000
37.89500 140.000
37.91000 119.000
37.92500 118.000
37.94000 134.000
37.95500 124.000
37.97000 123.000
37.98500 141.000
38.00000 128.000
38.01500 117.000
38.03000 124.000
38.04500 125.000
38.06000 126.000
38.07500 114.000
38.09000 141.000
38.10500 116.000
38.12000 134.000
38.13500 123.000
38.15000 133.000
38.16500 109.000
38.18000 134.000
38.19500 121.000
38.21000 128.000
38.22500 136.000
38.24000 121.000
38.25500 110.000
38.27000 128.000
38.28500 125.000
38.30000 121.000
38.31500 141.000
38.33000 115.000
38.34500 110.000
38.36000 131.000
38.37500 146.000
38.39000 115.000
38.40500 127.000
38.42000 133.000
38.43500 136.000
38.45000 136.000
38.46500 116.000
38.48000 135.000
38.49500 135.000
38.51000 131.000
38.52500 123.000
38.54000 114.000
38.55500 115.000
38.57000 123.000
38.58500 123.000
38.60000 133.000
38.61500 131.000
38.63000 115.000
38.64500 117.000
38.66000 132.000
38.67500 134.000
38.69000 128.000
38.70500 127.000
38.72000 131.000
38.73500 132.000
38.75000 120.000
38.76500 118.000
38.78000 98.000
38.79500 106.000
38.81000 114.000
38.82500 124.000
38.84000 140.000
38.85500 129.000
38.87000 124.000
38.88500 106.000
38.90000 128.000
38.91500 131.000
38.93000 138.000
38.94500 141.000
38.96000 138.000
38.97500 122.000
38.99000 134.000
39.00500 128.000
39.02000 120.000
39.03500 155.000
39.05000 130.000
39.06500 127.000
39.08000 135.000
39.09500 141.000
39.11000 124.000
39.12500 125.000
39.14000 122.000
39.15500 123.000
39.17000 113.000
39.18500 135.000
39.20000 144.000
39.21500 127.000
39.23000 104.000
39.24500 131.000
39.26000 124.000
39.27500 134.000
39.29000 117.000
39.30500 140.000
39.32000 134.000
39.33500 125.000
39.35000 143.000
39.36500 133.000
39.38000 126.000
39.39500 130.000
39.41000 135.000
39.42500 137.000
39.44000 151.000
39.45500 139.000
39.47000 134.000
39.48500 134.000
39.50000 134.000
39.51500 143.000
39.53000 137.000
39.54500 141.000
39.56000 150.000
39.57500 146.000
39.59000 152.000
39.60500 156.000
39.62000 145.000
39.63500 147.000
39.65000 157.000
39.66500 148.000
39.68000 150.000
39.69500 169.000
39.71000 167.000
39.72500 160.000
39.74000 168.000
39.75500 180.000
39.77000 160.000
39.78500 160.000
39.80000 167.000
39.81500 178.000
39.83000 152.000
39.84500 144.000
39.86000 151.000
39.87500 133.000
39.89000 144.000
39.90500 144.000
39.92000 142.000
39.93500 141.000
39.95000 136.000
39.96500 150.000
39.98000 140.000
39.99500 128.000
40.01000 147.000
40.02500 144.000
40.04000 117.000
40.05500 122.000
40.07000 130.000
40.08500 127.000
40.10000 133.000
40.11500 132.000
40.13000 124.000
40.14500 137.000
40.16000 135.000
40.17500 124.000
40.19000 121.000
40.20500 125.000
40.22000 134.000
40.23500 135.000
40.25000 136.000
40.26500 127.000
40.28000 139.000
40.29500 135.000
40.31000 120.000
40.32500 117.000
40.34000 118.000
40.35500 128.000
40.37000 130.000
40.38500 136.000
40.40000 122.000
40.41500 114.000
40.43000 124.000
40.44500 116.000
40.46000 110.000
40.47500 104.000
40.49000 129.000
40.50500 109.000
40.52000 117.000
40.53500 125.000
40.55000 128.000
40.56500 111.000
40.58000 120.000
40.59500 113.000
40.61000 130.000
40.62500 113.000
40.64000 117.000
40.65500 112.000
40.67000 119.000
40.68500 120.000
40.70000 123.000
40.71500 118.000
40.73000 112.000
40.74500 128.000
40.76000 116.000
40.77500 110.000
40.79000 105.000
40.80500 98.000
40.82000 132.000
40.83500 118.000
40.85000 130.000
40.86500 131.000
40.88000 133.000
40.89500 129.000
40.91000 109.000
40.92500 114.000
40.94000 139.000
40.95500 110.000
40.97000 119.000
40.98500 121.000
41.00000 122.000
41.01500 117.000
41.03000 116.000
41.04500 106.000
41.06000 124.000
41.07500 115.000
41.09000 141.000
41.10500 126.000
41.12000 123.000
41.13500 142.000
41.15000 124.000
41.16500 124.000
41.18000 136.000
41.19500 130.000
41.21000 123.000
41.22500 125.000
41.24000 122.000
41.25500 136.000
41.27000 147.000
41.28500 131.000
41.30000 127.000
41.31500 138.000
41.33000 127.000
41.34500 113.000
41.36000 128.000
41.37500 131.000
41.39000 139.000
41.40500 130.000
41.42000 129.000
41.43500 132.000
41.45000 122.000
41.46500 120.000
41.48000 122.000
41.49500 115.000
41.51000 134.000
41.52500 126.000
41.54000 114.000
41.55500 120.000
41.57000 114.000
41.58500 121.000
41.60000 123.000
41.61500 122.000
41.63000 136.000
41.64500 133.000
41.66000 122.000
41.67500 120.000
41.69000 127.000
41.70500 129.000
41.72000 122.000
41.73500 114.000
41.75000 118.000
41.76500 123.000
41.78000 126.000
41.79500 133.000
41.81000 126.000
41.82500 138.000
41.84000 121.000
41.85500 119.000
41.87000 116.000
41.88500 121.000
41.90000 117.000
41.91500 115.000
41.93000 128.000
41.94500 111.000
41.96000 131.000
41.97500 122.000
41.99000 127.000
42.00500 131.000
42.02000 123.000
42.03500 119.000
42.05000 130.000
42.06500 144.000
42.08000 141.000
42.09500 132.000
42.11000 123.000
42.12500 128.000
42.14000 139.000
42.15500 155.000
42.17000 150.000
42.18500 140.000
42.20000 141.000
42.21500 160.000
42.23000 175.000
42.24500 172.000
42.26000 169.000
42.27500 171.000
42.29000 199.000
42.30500 190.000
42.32000 188.000
42.33500 182.000
42.35000 160.000
42.36500 131.000
42.38000 149.000
42.39500 158.000
42.41000 152.000
42.42500 156.000
42.44000 157.000
42.45500 170.000
42.47000 157.000
42.48500 153.000
42.50000 141.000
42.51500 162.000
42.53000 153.000
42.54500 160.000
42.56000 165.000
42.57500 172.000
42.59000 183.000
42.60500 167.000
42.62000 178.000
42.63500 183.000
42.65000 178.000
42.66500 168.000
42.68000 183.000
42.69500 178.000
42.71000 175.000
42.72500 153.000
42.74000 177.000
42.75500 164.000
42.77000 150.000
42.78500 177.000
42.80000 160.000
42.81500 140.000
42.83000 138.000
42.84500 126.000
42.86000 133.000
42.87500 121.000
42.89000 140.000
42.90500 146.000
42.92000 154.000
42.93500 148.000
42.95000 142.000
42.96500 147.000
42.98000 141.000
42.99500 148.000
43.01000 129.000
43.02500 138.000
43.04000 140.000
43.05500 150.000
43.07000 145.000
43.08500 146.000
43.10000 134.000
43.11500 134.000
43.13000 144.000
43.14500 132.000
43.16000 132.000
43.17500 129.000
43.19000 124.000
43.20500 123.000
43.22000 127.000
43.23500 131.000
43.25000 129.000
43.26500 126.000
43.28000 117.000
43.29500 139.000
43.31000 126.000
43.32500 129.000
43.34000 142.000
43.35500 138.000
43.37000 129.000
43.38500 144.000
43.40000 124.000
43.41500 131.000
43.43000 127.000
43.44500 126.000
43.46000 127.000
43.47500 128.000
43.49000 134.000
43.50500 120.000
43.52000 131.000
43.53500 117.000
43.55000 127.000
43.56500 130.000
43.58000 134.000
43.59500 130.000
43.61000 123.000
43.62500 121.000
43.64000 121.000
43.65500 121.000
43.67000 140.000
43.68500 141.000
43.70000 143.000
43.71500 131.000
43.73000 149.000
43.74500 117.000
43.76000 116.000
43.77500 115.000
43.79000 125.000
43.80500 136.000
43.82000 135.000
43.83500 122.000
43.85000 126.000
43.86500 138.000
43.88000 127.000
43.89500 150.000
43.91000 136.000
43.92500 135.000
43.94000 131.000
43.95500 155.000
43.97000 133.000
43.98500 144.000
44.00000 152.000
44.01500 124.000
44.03000 130.000
44.04500 149.000
44.06000 148.000
44.07500 141.000
44.09000 149.000
44.10500 148.000
44.12000 164.000
44.13500 146.000
44.15000 153.000
44.16500 160.000
44.18000 153.000
44.19500 149.000
44.21000 162.000
44.22500 173.000
44.24000 152.000
44.25500 175.000
44.27000 174.000
44.28500 198.000
44.30000 202.000
44.31500 189.000
44.33000 203.000
44.34500 216.000
44.36000 220.000
44.37500 214.000
44.39000 215.000
44.40500 235.000
44.42000 205.000
44.43500 198.000
44.45000 206.000
44.46500 199.000
44.48000 194.000
44.49500 191.000
44.51000 187.000
44.52500 205.000
44.54000 199.000
44.55500 217.000
44.57000 204.000
44.58500 197.000
44.60000 202.000
44.61500 216.000
44.63000 216.000
44.64500 209.000
44.66000 212.000
44.67500 220.000
44.69000 224.000
44.70500 234.000
44.72000 225.000
44.73500 203.000
44.75000 203.000
44.76500 214.000
44.78000 225.000
44.79500 225.000
44.81000 226.000
44.82500 226.000
44.84000 230.000
44.85500 254.000
44.87000 233.000
44.88500 221.000
44.90000 228.000
44.91500 229.000
44.93000 229.000
44.94500 237.000
44.96000 249.000
44.97500 221.000
44.99000 238.000
45.00500 214.000
45.02000 224.000
45.03500 212.000
45.05000 191.000
45.06500 188.000
45.08000 187.000
45.09500 196.000
45.11000 181.000
45.12500 194.000
45.14000 172.000
45.15500 168.000
45.17000 170.000
45.18500 175.000
45.20000 171.000
45.21500 169.000
45.23000 143.000
45.24500 165.000
45.26000 136.000
45.27500 151.000
45.29000 143.000
45.30500 146.000
45.32000 143.000
45.33500 140.000
45.35000 128.000
45.36500 127.000
45.38000 132.000
45.39500 137.000
45.41000 138.000
45.42500 140.000
45.44000 134.000
45.45500 130.000
45.47000 126.000
45.48500 114.000
45.50000 135.000
45.51500 126.000
45.53000 124.000
45.54500 135.000
45.56000 124.000
45.57500 115.000
45.59000 116.000
45.60500 116.000
45.62000 129.000
45.63500 127.000
45.65000 123.000
45.66500 120.000
45.68000 106.000
45.69500 108.000
45.71000 135.000
45.72500 117.000
45.74000 127.000
45.75500 131.000
45.77000 113.000
45.78500 118.000
45.80000 123.000
45.81500 122.000
45.83000 123.000
45.84500 128.000
45.86000 116.000
45.87500 127.000
45.89000 121.000
45.90500 119.000
45.92000 118.000
45.93500 118.000
45.95000 124.000
45.96500 126.000
45.98000 135.000
45.99500 115.000
46.01000 136.000
46.02500 128.000
46.04000 132.000
46.05500 128.000
46.07000 126.000
46.08500 125.000
46.10000 131.000
46.11500 124.000
46.13000 118.000
46.14500 128.000
46.16000 110.000
46.17500 134.000
46.19000 126.000
46.20500 123.000
46.22000 117.000
46.23500 123.000
46.25000 136.000
46.26500 119.000
46.28000 122.000
46.29500 125.000
46.31000 124.000
46.32500 136.000
46.34000 121.000
46.35500 134.000
46.37000 140.000
46.38500 123.000
46.40000 134.000
46.41500 131.000
46.43000 133.000
46.44500 138.000
46.46000 146.000
46.47500 139.000
46.49000 140.000
46.50500 130.000
46.52000 128.000
46.53500 138.000
46.55000 124.000
46.56500 113.000
46.58000 127.000
46.59500 128.000
46.61000 135.000
46.62500 125.000
46.64000 136.000
46.65500 131.000
46.67000 153.000
46.68500 139.000
46.70000 121.000
46.71500 116.000
46.73000 135.000
46.74500 145.000
46.76000 124.000
46.77500 138.000
46.79000 133.000
46.80500 132.000
46.82000 114.000
46.83500 125.000
46.85000 135.000
46.86500 131.000
46.88000 133.000
46.89500 122.000
46.91000 113.000
46.92500 129.000
46.94000 107.000
46.95500 131.000
46.97000 124.000
46.98500 122.000
47.00000 113.000
47.01500 114.000
47.03000 121.000
47.04500 115.000
47.06000 131.000
47.07500 131.000
47.09000 117.000
47.10500 117.000
47.12000 112.000
47.13500 121.000
47.15000 113.000
47.16500 111.000
47.18000 102.000
47.19500 101.000
47.21000 104.000
47.22500 117.000
47.24000 100.000
47.25500 107.000
47.27000 108.000
47.28500 125.000
47.30000 126.000
47.31500 116.000
47.33000 116.000
47.34500 112.000
47.36000 115.000
47.37500 128.000
47.39000 104.000
47.40500 111.000
47.42000 97.000
47.43500 119.000
47.45000 107.000
47.46500 100.000
47.48000 117.000
47.49500 114.000
47.51000 108.000
47.52500 112.000
47.54000 113.000
47.55500 123.000
47.57000 111.000
47.58500 118.000
47.60000 96.000
47.61500 109.000
47.63000 113.000
47.64500 104.000
47.66000 107.000
47.67500 111.000
47.69000 100.000
47.70500 98.000
47.72000 110.000
47.73500 108.000
47.75000 105.000
47.76500 101.000
47.78000 107.000
47.79500 100.000
47.81000 99.000
47.82500 103.000
47.84000 103.000
47.85500 97.000
47.87000 104.000
47.88500 97.000
47.90000 98.000
47.91500 99.000
47.93000 106.000
47.94500 109.000
47.96000 116.000
47.97500 99.000
47.99000 103.000
48.00500 115.000
48.02000 113.000
48.03500 105.000
48.05000 110.000
48.06500 103.000
48.08000 96.000
48.09500 106.000
48.11000 110.000
48.12500 103.000
48.14000 113.000
48.15500 98.000
48.17000 100.000
48.18500 109.000
48.20000 105.000
48.21500 98.000
48.23000 96.000
48.24500 107.000
48.26000 90.000
48.27500 107.000
48.29000 108.000
48.30500 98.000
48.32000 99.000
48.33500 100.000
48.35000 109.000
48.36500 104.000
48.38000 108.000
48.39500 106.000
48.41000 99.000
48.42500 93.000
48.44000 104.000
48.45500 98.000
48.47000 102.000
48.48500 94.000
48.50000 101.000
48.51500 106.000
48.53000 85.000
48.54500 99.000
48.56000 105.000
48.57500 103.000
48.59000 94.000
48.60500 113.000
48.62000 103.000
48.63500 93.000
48.65000 98.000
48.66500 104.000
48.68000 112.000
48.69500 110.000
48.71000 113.000
48.72500 99.000
48.74000 111.000
48.75500 124.000
48.77000 108.000
48.78500 119.000
48.80000 101.000
48.81500 114.000
48.83000 113.000
48.84500 105.000
48.86000 101.000
48.87500 106.000
48.89000 109.000
48.90500 97.000
48.92000 102.000
48.93500 100.000
48.95000 99.000
48.96500 105.000
48.98000 102.000
48.99500 104.000
49.01000 102.000
49.02500 96.000
49.04000 104.000
49.05500 109.000
49.07000 109.000
49.08500 103.000
49.10000 96.000
49.11500 89.000
49.13000 106.000
49.14500 107.000
49.16000 110.000
49.17500 112.000
49.19000 113.000
49.20500 106.000
49.22000 119.000
49.23500 96.000
49.25000 99.000
49.26500 110.000
49.28000 97.000
49.29500 102.000
49.31000 113.000
49.32500 107.000
49.34000 107.000
49.35500 99.000
49.37000 103.000
49.38500 114.000
49.40000 102.000
49.41500 103.000
49.43000 96.000
49.44500 97.000
49.46000 106.000
49.47500 115.000
49.49000 104.000
49.50500 120.000
49.52000 102.000
49.53500 99.000
49.55000 94.000
49.56500 89.000
49.58000 105.000
49.59500 112.000
49.61000 99.000
49.62500 108.000
49.64000 97.000
49.65500 115.000
49.67000 102.000
49.68500 97.000
49.70000 96.000
49.71500 95.000
49.73000 114.000
49.74500 119.000
49.76000 104.000
49.77500 94.000
49.79000 94.000
49.80500 105.000
49.82000 101.000
49.83500 92.000
49.85000 96.000
49.86500 92.000
49.88000 103.000
49.89500 111.000
49.91000 101.000
49.92500 96.000
49.94000 88.000
49.95500 112.000
49.97000 116.000
49.98500 98.000
50.00000 103.000
50.01500 109.000
50.03000 117.000
50.04500 105.000
50.06000 115.000
50.07500 85.000
50.09000 100.000
50.10500 108.000
50.12000 115.000
50.13500 101.000
50.15000 97.000
50.16500 90.000
50.18000 85.000
50.19500 108.000
50.21000 117.000
50.22500 121.000
50.24000 114.000
50.25500 116.000
50.27000 94.000
50.28500 93.000
50.30000 94.000
50.31500 101.000
50.33000 111.000
50.34500 103.000
50.36000 98.000
50.37500 111.000
50.39000 103.000
50.40500 126.000
50.42000 112.000
50.43500 110.000
50.45000 105.000
50.46500 107.000
50.48000 101.000
50.49500 88.000
50.51000 100.000
50.52500 116.000
50.54000 120.000
50.55500 119.000
50.57000 107.000
50.58500 121.000
50.60000 111.000
50.61500 125.000
50.63000 100.000
50.64500 99.000
50.66000 102.000
50.67500 106.000
50.69000 119.000
50.70500 97.000
50.72000 94.000
50.73500 104.000
50.75000 112.000
50.76500 119.000
50.78000 95.000
50.79500 113.000
50.81000 111.000
50.82500 114.000
50.84000 105.000
50.85500 112.000
50.87000 119.000
50.88500 103.000
50.90000 116.000
50.91500 100.000
50.93000 116.000
50.94500 103.000
50.96000 104.000
50.97500 97.000
50.99000 100.000
51.00500 111.000
51.02000 107.000
51.03500 112.000
51.05000 113.000
51.06500 104.000
51.08000 101.000
51.09500 111.000
51.11000 113.000
51.12500 122.000
51.14000 111.000
51.15500 115.000
51.17000 99.000
51.18500 99.000
51.20000 96.000
51.21500 97.000
51.23000 107.000
51.24500 113.000
51.26000 109.000
51.27500 99.000
51.29000 98.000
51.30500 107.000
51.32000 107.000
51.33500 117.000
51.35000 112.000
51.36500 106.000
51.38000 111.000
51.39500 105.000
51.41000 91.000
51.42500 95.000
51.44000 103.000
51.45500 114.000
51.47000 107.000
51.48500 103.000
51.50000 91.000
51.51500 94.000
51.53000 109.000
51.54500 98.000
51.56000 97.000
51.57500 94.000
51.59000 97.000
51.60500 92.000
51.62000 91.000
51.63500 102.000
51.65000 127.000
51.66500 108.000
51.68000 95.000
51.69500 99.000
51.71000 112.000
51.72500 99.000
51.74000 96.000
51.75500 86.000
51.77000 101.000
51.78500 117.000
51.80000 109.000
51.81500 110.000
51.83000 112.000
51.84500 92.000
51.86000 92.000
51.87500 102.000
51.89000 97.000
51.90500 107.000
51.92000 106.000
51.93500 108.000
51.95000 94.000
51.96500 111.000
51.98000 104.000
51.99500 100.000
52.01000 106.000
52.02500 92.000
52.04000 95.000
52.05500 96.000
52.07000 92.000
52.08500 89.000
52.10000 104.000
52.11500 91.000
52.13000 87.000
52.14500 99.000
52.16000 110.000
52.17500 100.000
52.19000 88.000
52.20500 87.000
52.22000 117.000
52.23500 109.000
52.25000 93.000
52.26500 98.000
52.28000 100.000
52.29500 99.000
52.31000 109.000
52.32500 91.000
52.34000 89.000
52.35500 100.000
52.37000 96.000
52.38500 93.000
52.40000 93.000
52.41500 87.000
52.43000 96.000
52.44500 99.000
52.46000 104.000
52.47500 101.000
52.49000 111.000
52.50500 112.000
52.52000 105.000
52.53500 89.000
52.55000 98.000
52.56500 94.000
52.58000 98.000
52.59500 107.000
52.61000 115.000
52.62500 115.000
52.64000 109.000
52.65500 115.000
52.67000 95.000
52.68500 103.000
52.70000 113.000
52.71500 106.000
52.73000 117.000
52.74500 124.000
52.76000 97.000
52.77500 99.000
52.79000 100.000
52.80500 106.000
52.82000 104.000
52.83500 108.000
52.85000 93.000
52.86500 91.000
52.88000 107.000
52.89500 104.000
52.91000 98.000
52.92500 99.000
52.94000 95.000
52.95500 96.000
52.97000 102.000
52.98500 105.000
53.00000 106.000
53.01500 106.000
53.03000 103.000
53.04500 113.000
53.06000 116.000
53.07500 97.000
53.09000 108.000
53.10500 107.000
53.12000 115.000
53.13500 111.000
53.15000 105.000
53.16500 103.000
53.18000 109.000
53.19500 110.000
53.21000 95.000
53.22500 95.000
53.24000 100.000
53.25500 99.000
53.27000 106.000
53.28500 106.000
53.30000 86.000
53.31500 93.000
53.33000 88.000
53.34500 96.000
53.36000 99.000
53.37500 87.000
53.39000 105.000
53.40500 97.000
53.42000 95.000
53.43500 100.000
53.45000 92.000
53.46500 90.000
53.48000 94.000
53.49500 104.000
53.51000 108.000
53.52500 90.000
53.54000 81.000
53.55500 106.000
53.57000 91.000
53.58500 110.000
53.60000 115.000
53.61500 102.000
53.63000 96.000
53.64500 93.000
53.66000 91.000
53.67500 94.000
53.69000 90.000
53.70500 89.000
53.72000 94.000
53.73500 95.000
53.75000 92.000
53.76500 90.000
53.78000 99.000
53.79500 89.000
53.81000 85.000
53.82500 107.000
53.84000 109.000
53.85500 96.000
53.87000 102.000
53.88500 94.000
53.90000 109.000
53.91500 108.000
53.93000 101.000
53.94500 105.000
53.96000 106.000
53.97500 111.000
53.99000 109.000
54.00500 104.000
54.02000 106.000
54.03500 103.000
54.05000 103.000
54.06500 104.000
54.08000 109.000
54.09500 106.000
54.11000 101.000
54.12500 104.000
54.14000 95.000
54.15500 101.000
54.17000 92.000
54.18500 110.000
54.20000 115.000
54.21500 115.000
54.23000 113.000
54.24500 122.000
54.26000 116.000
54.27500 114.000
54.29000 111.000
54.30500 110.000
54.32000 111.000
54.33500 100.000
54.35000 110.000
54.36500 94.000
54.38000 98.000
54.39500 107.000
54.41000 105.000
54.42500 109.000
54.44000 107.000
54.45500 112.000
54.47000 98.000
54.48500 97.000
54.50000 113.000
54.51500 111.000
54.53000 123.000
54.54500 122.000
54.56000 100.000
54.57500 106.000
54.59000 112.000
54.60500 112.000
54.62000 109.000
54.63500 100.000
54.65000 103.000
54.66500 108.000
54.68000 106.000
54.69500 105.000
54.71000 93.000
54.72500 92.000
54.74000 100.000
54.75500 104.000
54.77000 104.000
54.78500 97.000
54.80000 101.000
54.81500 101.000
54.83000 98.000
54.84500 87.000
54.86000 104.000
54.87500 104.000
54.89000 92.000
54.90500 99.000
54.92000 94.000
54.93500 93.000
54.95000 84.000
54.96500 91.000
54.98000 92.000
54.99500 99.000
55.01000 96.000
55.02500 108.000
55.04000 108.000
55.05500 100.000
55.07000 103.000
55.08500 91.000
55.10000 97.000
55.11500 108.000
55.13000 95.000
55.14500 99.000
55.16000 98.000
55.17500 101.000
55.19000 92.000
55.20500 105.000
55.22000 93.000
55.23500 99.000
55.25000 107.000
55.26500 109.000
55.28000 103.000
55.29500 93.000
55.31000 95.000
55.32500 91.000
55.34000 96.000
55.35500 100.000
55.37000 88.000
55.38500 105.000
55.40000 107.000
55.41500 99.000
55.43000 102.000
55.44500 100.000
55.46000 102.000
55.47500 104.000
55.49000 102.000
55.50500 91.000
55.52000 104.000
55.53500 106.000
55.55000 110.000
55.56500 119.000
55.58000 106.000
55.59500 103.000
55.61000 95.000
55.62500 113.000
55.64000 122.000
55.65500 107.000
55.67000 104.000
55.68500 116.000
55.70000 109.000
55.71500 111.000
55.73000 126.000
55.74500 129.000
55.76000 108.000
55.77500 120.000
55.79000 124.000
55.80500 140.000
55.82000 127.000
55.83500 126.000
55.85000 132.000
55.86500 119.000
55.88000 129.000
55.89500 124.000
55.91000 133.000
55.92500 139.000
55.94000 139.000
55.95500 119.000
55.97000 143.000
55.98500 140.000
56.00000 131.000
56.01500 144.000
56.03000 148.000
56.04500 141.000
56.06000 136.000
56.07500 140.000
56.09000 132.000
56.10500 132.000
56.12000 139.000
56.13500 125.000
56.15000 122.000
56.16500 134.000
56.18000 141.000
56.19500 142.000
56.21000 130.000
56.22500 133.000
56.24000 142.000
56.25500 122.000
56.27000 137.000
56.28500 153.000
56.30000 157.000
56.31500 153.000
56.33000 129.000
56.34500 131.000
56.36000 128.000
56.37500 114.000
56.39000 114.000
56.40500 116.000
56.42000 141.000
56.43500 135.000
56.45000 137.000
56.46500 131.000
56.48000 134.000
56.49500 131.000
56.51000 145.000
56.52500 143.000
56.54000 117.000
56.55500 133.000
56.57000 121.000
56.58500 131.000
56.60000 127.000
56.61500 121.000
56.63000 105.000
56.64500 114.000
56.66000 120.000
56.67500 115.000
56.69000 125.000
56.70500 115.000
56.72000 143.000
56.73500 137.000
56.75000 118.000
56.76500 107.000
56.78000 112.000
56.79500 112.000
56.81000 118.000
56.82500 113.000
56.84000 120.000
56.85500 115.000
56.87000 109.000
56.88500 112.000
56.90000 120.000
56.91500 103.000
56.93000 125.000
56.94500 113.000
56.96000 111.000
56.97500 108.000
56.99000 119.000
57.00500 110.000
57.02000 115.000
57.03500 115.000
57.05000 109.000
57.06500 113.000
57.08000 107.000
57.09500 119.000
57.11000 124.000
57.12500 125.000
57.14000 110.000
57.15500 106.000
57.17000 114.000
57.18500 122.000
57.20000 126.000
57.21500 127.000
57.23000 124.000
57.24500 121.000
57.26000 101.000
57.27500 103.000
57.29000 114.000
57.30500 123.000
57.32000 110.000
57.33500 111.000
57.35000 115.000
57.36500 108.000
57.38000 112.000
57.39500 111.000
57.41000 115.000
57.42500 107.000
57.44000 109.000
57.45500 125.000
57.47000 111.000
57.48500 121.000
57.50000 113.000
57.51500 115.000
57.53000 106.000
57.54500 105.000
57.56000 115.000
57.57500 108.000
57.59000 105.000
57.60500 87.000
57.62000 106.000
57.63500 112.000
57.65000 116.000
57.66500 101.000
57.68000 106.000
57.69500 90.000
57.71000 107.000
57.72500 105.000
57.74000 99.000
57.75500 104.000
57.77000 104.000
57.78500 108.000
57.80000 105.000
57.81500 98.000
57.83000 100.000
57.84500 95.000
57.86000 92.000
57.87500 101.000
57.89000 102.000
57.90500 106.000
57.92000 97.000
57.93500 98.000
57.95000 92.000
57.96500 88.000
57.98000 102.000
57.99500 95.000
58.01000 94.000
58.02500 99.000
58.04000 95.000
58.05500 91.000
58.07000 89.000
58.08500 89.000
58.10000 93.000
58.11500 106.000
58.13000 98.000
58.14500 96.000
58.16000 102.000
58.17500 97.000
58.19000 99.000
58.20500 102.000
58.22000 98.000
58.23500 77.000
58.25000 89.000
58.26500 91.000
58.28000 79.000
58.29500 85.000
58.31000 93.000
58.32500 102.000
58.34000 80.000
58.35500 92.000
58.37000 109.000
58.38500 97.000
58.40000 91.000
58.41500 96.000
58.43000 99.000
58.44500 95.000
58.46000 87.000
58.47500 98.000
58.49000 94.000
58.50500 80.000
58.52000 75.000
58.53500 90.000
58.55000 85.000
58.56500 100.000
58.58000 91.000
58.59500 89.000
58.61000 99.000
58.62500 87.000
58.64000 91.000
58.65500 93.000
58.67000 101.000
58.68500 105.000
58.70000 100.000
58.71500 88.000
58.73000 82.000
58.74500 96.000
58.76000 92.000
58.77500 96.000
58.79000 91.000
58.80500 93.000
58.82000 82.000
58.83500 92.000
58.85000 100.000
58.86500 103.000
58.88000 100.000
58.89500 107.000
58.91000 91.000
58.92500 91.000
58.94000 99.000
58.95500 98.000
58.97000 106.000
58.98500 95.000
59.00000 97.000
59.01500 97.000
59.03000 85.000
59.04500 90.000
59.06000 94.000
59.07500 97.000
59.09000 90.000
59.10500 100.000
59.12000 85.000
59.13500 90.000
59.15000 98.000
59.16500 102.000
59.18000 91.000
59.19500 85.000
59.21000 84.000
59.22500 93.000
59.24000 89.000
59.25500 98.000
59.27000 99.000
59.28500 100.000
59.30000 93.000
59.31500 96.000
59.33000 105.000
59.34500 105.000
59.36000 88.000
59.37500 78.000
59.39000 95.000
59.40500 89.000
59.42000 99.000
59.43500 101.000
59.45000 97.000
59.46500 98.000
59.48000 92.000
59.49500 101.000
59.51000 91.000
59.52500 89.000
59.54000 91.000
59.55500 79.000
59.57000 86.000
59.58500 98.000
59.60000 105.000
59.61500 97.000
59.63000 92.000
59.64500 84.000
59.66000 89.000
59.67500 98.000
59.69000 97.000
59.70500 103.000
59.72000 97.000
59.73500 100.000
59.75000 86.000
59.76500 78.000
59.78000 76.000
59.79500 73.000
59.81000 89.000
59.82500 95.000
59.84000 109.000
59.85500 103.000
59.87000 98.000
59.88500 105.000
59.90000 96.000
59.91500 91.000
59.93000 88.000
59.94500 81.000
59.96000 91.000
59.97500 87.000
59.99000 107.000
60.00500 92.000
60.02000 84.000
60.03500 104.000
60.05000 74.000
60.06500 100.000
60.08000 90.000
60.09500 86.000
60.11000 95.000
60.12500 82.000
60.14000 93.000
60.15500 87.000
60.17000 92.000
60.18500 90.000
60.20000 77.000
60.21500 94.000
60.23000 98.000
60.24500 78.000
60.26000 95.000
60.27500 98.000
60.29000 92.000
60.30500 92.000
60.32000 83.000
60.33500 99.000
60.35000 105.000
60.36500 99.000
60.38000 97.000
60.39500 98.000
60.41000 93.000
60.42500 94.000
60.44000 82.000
60.45500 91.000
60.47000 91.000
60.48500 100.000
60.50000 101.000
60.51500 96.000
60.53000 88.000
60.54500 97.000
60.56000 101.000
60.57500 91.000
60.59000 98.000
60.60500 98.000
60.62000 97.000
60.63500 109.000
60.65000 100.000
60.66500 100.000
60.68000 100.000
60.69500 89.000
60.71000 83.000
60.72500 90.000
60.74000 110.000
60.75500 96.000
60.77000 85.000
60.78500 96.000
60.80000 91.000
60.81500 86.000
60.83000 101.000
60.84500 92.000
60.86000 90.000
60.87500 86.000
60.89000 89.000
60.90500 79.000
60.92000 85.000
60.93500 80.000
60.95000 90.000
60.96500 78.000
60.98000 95.000
60.99500 77.000
61.01000 84.000
61.02500 82.000
61.04000 72.000
61.05500 79.000
61.07000 87.000
61.08500 110.000
61.10000 90.000
61.11500 87.000
61.13000 89.000
61.14500 100.000
61.16000 92.000
61.17500 86.000
61.19000 91.000
61.20500 91.000
61.22000 86.000
61.23500 81.000
61.25000 93.000
61.26500 104.000
61.28000 102.000
61.29500 97.000
61.31000 111.000
61.32500 103.000
61.34000 107.000
61.35500 98.000
61.37000 105.000
61.38500 82.000
61.40000 84.000
61.41500 100.000
61.43000 98.000
61.44500 91.000
61.46000 96.000
61.47500 87.000
61.49000 99.000
61.50500 87.000
61.52000 89.000
61.53500 86.000
61.55000 99.000
61.56500 87.000
61.58000 90.000
61.59500 86.000
61.61000 74.000
61.62500 95.000
61.64000 92.000
61.65500 82.000
61.67000 91.000
61.68500 84.000
61.70000 84.000
61.71500 101.000
61.73000 103.000
61.74500 107.000
61.76000 92.000
61.77500 84.000
61.79000 91.000
61.80500 85.000
61.82000 84.000
61.83500 92.000
61.85000 97.000
61.86500 87.000
61.88000 94.000
61.89500 92.000
61.91000 96.000
61.92500 98.000
61.94000 100.000
61.95500 80.000
61.97000 78.000
61.98500 78.000
