2.00000 7.000
2.01500 3.000
2.03000 7.000
2.04500 4.000
2.06000 5.000
2.07500 5.000
2.09000 4.000
2.10500 4.000
2.12000 6.000
2.13500 6.000
2.15000 2.000
2.16500 2.000
2.18000 3.000
2.19500 3.000
2.21000 3.000
2.22500 2.000
2.24000 2.000
2.25500 4.000
2.27000 2.000
2.28500 4.000
2.30000 4.000
2.31500 3.000
2.33000 2.000
2.34500 2.000
2.36000 3.000
2.37500 3.000
2.39000 1.000
2.40500 4.000
2.42000 4.000
2.43500 4.000
2.45000 7.000
2.46500 2.000
2.48000 2.000
2.49500 2.000
2.51000 2.000
2.52500 2.000
2.54000 4.000
2.55500 3.000
2.57000 3.000
2.58500 2.000
2.60000 7.000
2.61500 7.000
2.63000 4.000
2.64500 5.000
2.66000 5.000
2.67500 6.000
2.69000 14.000
2.70500 20.000
2.72000 23.000
2.73500 48.000
2.75000 107.000
2.76500 192.000
2.78000 297.000
2.79500 437.000
2.81000 578.000
2.82500 765.000
2.84000 934.000
2.85500 964.000
2.87000 959.000
2.88500 987.000
2.90000 1014.000
2.91500 986.000
2.93000 955.000
2.94500 930.000
2.96000 907.000
2.97500 890.000
2.99000 878.000
3.00500 856.000
3.02000 903.000
3.03500 879.000
3.05000 847.000
3.06500 861.000
3.08000 853.000
3.09500 866.000
3.11000 854.000
3.12500 842.000
3.14000 805.000
3.15500 764.000
3.17000 765.000
3.18500 723.000
3.20000 756.000
3.21500 734.000
3.23000 714.000
3.24500 738.000
3.26000 731.000
3.27500 731.000
3.29000 716.000
3.30500 687.000
3.32000 697.000
3.33500 696.000
3.35000 695.000
3.36500 682.000
3.38000 672.000
3.39500 689.000
3.41000 686.000
3.42500 666.000
3.44000 665.000
3.45500 651.000
3.47000 647.000
3.48500 616.000
3.50000 687.000
3.51500 650.000
3.53000 619.000
3.54500 631.000
3.56000 597.000
3.57500 600.000
3.59000 619.000
3.60500 593.000
3.62000 634.000
3.63500 614.000
3.65000 586.000
3.66500 609.000
3.68000 576.000
3.69500 551.000
3.71000 595.000
3.72500 590.000
3.74000 553.000
3.75500 538.000
3.77000 547.000
3.78500 578.000
3.80000 543.000
3.81500 546.000
3.83000 537.000
3.84500 546.000
3.86000 520.000
3.87500 531.000
3.89000 548.000
3.90500 528.000
3.92000 542.000
3.93500 499.000
3.95000 520.000
3.96500 497.000
3.98000 512.000
3.99500 529.000
4.01000 530.000
4.02500 527.000
4.04000 526.000
4.05500 501.000
4.07000 520.000
4.08500 539.000
4.10000 503.000
4.11500 529.000
4.13000 502.000
4.14500 475.000
4.16000 478.000
4.17500 505.000
4.19000 494.000
4.20500 496.000
4.22000 504.000
4.23500 488.000
4.25000 485.000
4.26500 476.000
4.28000 475.000
4.29500 487.000
4.31000 498.000
4.32500 461.000
4.34000 468.000
4.35500 470.000
4.37000 471.000
4.38500 491.000
4.40000 468.000
4.41500 459.000
4.43000 483.000
4.44500 477.000
4.46000 440.000
4.47500 490.000
4.49000 489.000
4.50500 511.000
4.52000 448.000
4.53500 463.000
4.55000 482.000
4.56500 453.000
4.58000 458.000
4.59500 464.000
4.61000 460.000
4.62500 463.000
4.64000 455.000
4.65500 446.000
4.67000 451.000
4.68500 423.000
4.70000 446.000
4.71500 486.000
4.73000 469.000
4.74500 453.000
4.76000 406.000
4.77500 444.000
4.79000 440.000
4.80500 427.000
4.82000 436.000
4.83500 446.000
4.85000 442.000
4.86500 426.000
4.88000 441.000
4.89500 448.000
4.91000 423.000
4.92500 426.000
4.94000 462.000
4.95500 447.000
4.97000 431.000
4.98500 430.000
5.00000 416.000
5.01500 416.000
5.03000 435.000
5.04500 449.000
5.06000 455.000
5.07500 439.000
5.09000 446.000
5.10500 443.000
5.12000 448.000
5.13500 447.000
5.15000 431.000
5.16500 444.000
5.18000 466.000
5.19500 435.000
5.21000 417.000
5.22500 471.000
5.24000 454.000
5.25500 447.000
5.27000 452.000
5.28500 399.000
5.30000 421.000
5.31500 430.000
5.33000 421.000
5.34500 416.000
5.36000 429.000
5.37500 438.000
5.39000 419.000
5.40500 427.000
5.42000 406.000
5.43500 418.000
5.45000 428.000
5.46500 470.000
5.48000 440.000
5.49500 423.000
5.51000 413.000
5.52500 417.000
5.54000 458.000
5.55500 436.000
5.57000 430.000
5.58500 454.000
5.60000 457.000
5.61500 424.000
5.63000 424.000
5.64500 415.000
5.66000 409.000
5.67500 406.000
5.69000 419.000
5.70500 413.000
5.72000 414.000
5.73500 414.000
5.75000 410.000
5.76500 427.000
5.78000 436.000
5.79500 435.000
5.81000 395.000
5.82500 414.000
5.84000 430.000
5.85500 448.000
5.87000 410.000
5.88500 424.000
5.90000 447.000
5.91500 435.000
5.93000 419.000
5.94500 431.000
5.96000 445.000
5.97500 432.000
5.99000 425.000
6.00500 397.000
6.02000 421.000
6.03500 432.000
6.05000 438.000
6.06500 408.000
6.08000 423.000
6.09500 441.000
6.11000 437.000
6.12500 428.000
6.14000 415.000
6.15500 391.000
6.17000 430.000
6.18500 412.000
6.20000 398.000
6.21500 425.000
6.23000 412.000
6.24500 426.000
6.26000 438.000
6.27500 403.000
6.29000 429.000
6.30500 420.000
6.32000 420.000
6.33500 417.000
6.35000 435.000
6.36500 407.000
6.38000 460.000
6.39500 435.000
6.41000 429.000
6.42500 411.000
6.44000 422.000
6.45500 431.000
6.47000 433.000
6.48500 415.000
6.50000 416.000
6.51500 417.000
6.53000 401.000
6.54500 397.000
6.56000 420.000
6.57500 431.000
6.59000 400.000
6.60500 422.000
6.62000 454.000
6.63500 424.000
6.65000 441.000
6.66500 456.000
6.68000 464.000
6.69500 441.000
6.71000 397.000
6.72500 414.000
6.74000 426.000
6.75500 426.000
6.77000 436.000
6.78500 426.000
6.80000 453.000
6.81500 423.000
6.83000 395.000
6.84500 436.000
6.86000 413.000
6.87500 406.000
6.89000 437.000
6.90500 427.000
6.92000 469.000
6.93500 449.000
6.95000 424.000
6.96500 406.000
6.98000 426.000
6.99500 445.000
7.01000 451.000
7.02500 433.000
7.04000 470.000
7.05500 446.000
7.07000 447.000
7.08500 421.000
7.10000 434.000
7.11500 451.000
7.13000 449.000
7.14500 439.000
7.16000 428.000
7.17500 428.000
7.19000 431.000
7.20500 437.000
7.22000 463.000
7.23500 440.000
7.25000 467.000
7.26500 418.000
7.28000 449.000
7.29500 471.000
7.31000 462.000
7.32500 437.000
7.34000 447.000
7.35500 491.000
7.37000 443.000
7.38500 457.000
7.40000 473.000
7.41500 483.000
7.43000 481.000
7.44500 481.000
7.46000 478.000
7.47500 470.000
7.49000 441.000
7.50500 426.000
7.52000 486.000
7.53500 494.000
7.55000 458.000
7.56500 472.000
7.58000 462.000
7.59500 511.000
7.61000 466.000
7.62500 491.000
7.64000 494.000
7.65500 529.000
7.67000 518.000
7.68500 503.000
7.70000 528.000
7.71500 511.000
7.73000 546.000
7.74500 517.000
7.76000 539.000
7.77500 524.000
7.79000 533.000
7.80500 552.000
7.82000 574.000
7.83500 540.000
7.85000 573.000
7.86500 573.000
7.88000 546.000
7.89500 550.000
7.91000 569.000
7.92500 596.000
7.94000 593.000
7.95500 603.000
7.97000 626.000
7.98500 625.000
8.00000 610.000
8.01500 603.000
8.03000 619.000
8.04500 619.000
8.06000 636.000
8.07500 637.000
8.09000 637.000
8.10500 643.000
8.12000 634.000
8.13500 645.000
8.15000 673.000
8.16500 685.000
8.18000 678.000
8.19500 667.000
8.21000 627.000
8.22500 647.000
8.24000 648.000
8.25500 642.000
8.27000 624.000
8.28500 642.000
8.30000 626.000
8.31500 643.000
8.33000 643.000
8.34500 618.000
8.36000 611.000
8.37500 604.000
8.39000 621.000
8.40500 649.000
8.42000 613.000
8.43500 658.000
8.45000 620.000
8.46500 599.000
8.48000 607.000
8.49500 623.000
8.51000 634.000
8.52500 582.000
8.54000 591.000
8.55500 591.000
8.57000 552.000
8.58500 565.000
8.60000 537.000
8.61500 537.000
8.63000 528.000
8.64500 568.000
8.66000 544.000
8.67500 547.000
8.69000 532.000
8.70500 534.000
8.72000 496.000
8.73500 515.000
8.75000 497.000
8.76500 512.000
8.78000 496.000
8.79500 507.000
8.81000 490.000
8.82500 494.000
8.84000 492.000
8.85500 468.000
8.87000 501.000
8.88500 476.000
8.90000 507.000
8.91500 500.000
8.93000 478.000
8.94500 469.000
8.96000 494.000
8.97500 500.000
8.99000 490.000
9.00500 462.000
9.02000 461.000
9.03500 500.000
9.05000 446.000
9.06500 447.000
9.08000 453.000
9.09500 460.000
9.11000 450.000
9.12500 452.000
9.14000 437.000
9.15500 448.000
9.17000 486.000
9.18500 471.000
9.20000 475.000
9.21500 425.000
9.23000 437.000
9.24500 424.000
9.26000 421.000
9.27500 441.000
9.29000 427.000
9.30500 446.000
9.32000 472.000
9.33500 434.000
9.35000 418.000
9.36500 422.000
9.38000 411.000
9.39500 398.000
9.41000 434.000
9.42500 446.000
9.44000 433.000
9.45500 466.000
9.47000 458.000
9.48500 445.000
9.50000 420.000
9.51500 432.000
9.53000 467.000
9.54500 447.000
9.56000 435.000
9.57500 446.000
9.59000 415.000
9.60500 404.000
9.62000 415.000
9.63500 446.000
9.65000 433.000
9.66500 432.000
9.68000 442.000
9.69500 433.000
9.71000 416.000
9.72500 449.000
9.74000 428.000
9.75500 392.000
9.77000 443.000
9.78500 433.000
9.80000 401.000
9.81500 429.000
9.83000 417.000
9.84500 459.000
9.86000 405.000
9.87500 424.000
9.89000 445.000
9.90500 418.000
9.92000 430.000
9.93500 442.000
9.95000 440.000
9.96500 449.000
9.98000 404.000
9.99500 421.000
10.01000 442.000
10.02500 439.000
10.04000 420.000
10.05500 429.000
10.07000 430.000
10.08500 418.000
10.10000 419.000
10.11500 409.000
10.13000 477.000
10.14500 461.000
10.16000 418.000
10.17500 406.000
10.19000 446.000
10.20500 406.000
10.22000 393.000
10.23500 419.000
10.25000 417.000
10.26500 439.000
10.28000 462.000
10.29500 457.000
10.31000 433.000
10.32500 439.000
10.34000 451.000
10.35500 435.000
10.37000 407.000
10.38500 416.000
10.40000 404.000
10.41500 403.000
10.43000 424.000
10.44500 434.000
10.46000 444.000
10.47500 437.000
10.49000 450.000
10.50500 443.000
10.52000 434.000
10.53500 440.000
10.55000 459.000
10.56500 461.000
10.58000 440.000
10.59500 435.000
10.61000 427.000
10.62500 446.000
10.64000 429.000
10.65500 441.000
10.67000 435.000
10.68500 425.000
10.70000 404.000
10.71500 422.000
10.73000 428.000
10.74500 432.000
10.76000 465.000
10.77500 452.000
10.79000 447.000
10.80500 450.000
10.82000 442.000
10.83500 453.000
10.85000 468.000
10.86500 443.000
10.88000 461.000
10.89500 453.000
10.91000 456.000
10.92500 478.000
10.94000 465.000
10.95500 423.000
10.97000 466.000
10.98500 449.000
11.00000 402.000
11.01500 442.000
11.03000 479.000
11.04500 486.000
11.06000 460.000
11.07500 486.000
11.09000 485.000
11.10500 475.000
11.12000 485.000
11.13500 478.000
11.15000 472.000
11.16500 457.000
11.18000 483.000
11.19500 448.000
11.21000 471.000
11.22500 476.000
11.24000 479.000
11.25500 461.000
11.27000 454.000
11.28500 494.000
11.30000 480.000
11.31500 477.000
11.33000 478.000
11.34500 513.000
11.36000 519.000
11.37500 488.000
11.39000 468.000
11.40500 461.000
11.42000 465.000
11.43500 479.000
11.45000 526.000
11.46500 518.000
11.48000 524.000
11.49500 566.000
11.51000 568.000
11.52500 545.000
11.54000 524.000
11.55500 535.000
11.57000 564.000
11.58500 557.000
11.60000 559.000
11.61500 522.000
11.63000 515.000
11.64500 557.000
11.66000 558.000
11.67500 537.000
11.69000 550.000
11.70500 540.000
11.72000 561.000
11.73500 565.000
11.75000 575.000
11.76500 585.000
11.78000 566.000
11.79500 547.000
11.81000 574.000
11.82500 576.000
11.84000 564.000
11.85500 613.000
11.87000 621.000
11.88500 609.000
11.90000 623.000
11.91500 615.000
11.93000 584.000
11.94500 597.000
11.96000 611.000
11.97500 614.000
11.99000 630.000
12.00500 603.000
12.02000 590.000
12.03500 592.000
12.05000 626.000
12.06500 628.000
12.08000 608.000
12.09500 578.000
12.11000 588.000
12.12500 562.000
12.14000 563.000
12.15500 607.000
12.17000 574.000
12.18500 567.000
12.20000 588.000
12.21500 594.000
12.23000 567.000
12.24500 573.000
12.26000 567.000
12.27500 559.000
12.29000 587.000
12.30500 586.000
12.32000 600.000
12.33500 595.000
12.35000 566.000
12.36500 575.000
12.38000 545.000
12.39500 558.000
12.41000 558.000
12.42500 549.000
12.44000 547.000
12.45500 538.000
12.47000 540.000
12.48500 582.000
12.50000 543.000
12.51500 542.000
12.53000 525.000
12.54500 539.000
12.56000 535.000
12.57500 517.000
12.59000 528.000
12.60500 507.000
12.62000 493.000
12.63500 497.000
12.65000 554.000
12.66500 507.000
12.68000 487.000
12.69500 513.000
12.71000 511.000
12.72500 503.000
12.74000 496.000
12.75500 475.000
12.77000 471.000
12.78500 519.000
12.80000 485.000
12.81500 489.000
12.83000 507.000
12.84500 475.000
12.86000 436.000
12.87500 442.000
12.89000 470.000
12.90500 475.000
12.92000 465.000
12.93500 473.000
12.95000 468.000
12.96500 475.000
12.98000 447.000
12.99500 428.000
13.01000 454.000
13.02500 484.000
13.04000 475.000
13.05500 464.000
13.07000 456.000
13.08500 462.000
13.10000 487.000
13.11500 483.000
13.13000 439.000
13.14500 451.000
13.16000 436.000
13.17500 431.000
13.19000 451.000
13.20500 502.000
13.22000 461.000
13.23500 420.000
13.25000 435.000
13.26500 425.000
13.28000 466.000
13.29500 455.000
13.31000 444.000
13.32500 429.000
13.34000 427.000
13.35500 435.000
13.37000 439.000
13.38500 416.000
13.40000 428.000
13.41500 422.000
13.43000 440.000
13.44500 420.000
13.46000 443.000
13.47500 460.000
13.49000 409.000
13.50500 448.000
13.52000 434.000
13.53500 439.000
13.55000 415.000
13.56500 416.000
13.58000 411.000
13.59500 424.000
13.61000 426.000
13.62500 408.000
13.64000 417.000
13.65500 436.000
13.67000 435.000
13.68500 407.000
13.70000 413.000
13.71500 437.000
13.73000 431.000
13.74500 428.000
13.76000 448.000
13.77500 442.000
13.79000 440.000
13.80500 436.000
13.82000 417.000
13.83500 456.000
13.85000 451.000
13.86500 447.000
13.88000 439.000
13.89500 452.000
13.91000 451.000
13.92500 433.000
13.94000 446.000
13.95500 431.000
13.97000 465.000
13.98500 463.000
14.00000 421.000
14.01500 418.000
14.03000 431.000
14.04500 433.000
14.06000 454.000
14.07500 439.000
14.09000 503.000
14.10500 452.000
14.12000 454.000
14.13500 451.000
14.15000 426.000
14.16500 436.000
14.18000 452.000
14.19500 450.000
14.21000 445.000
14.22500 467.000
14.24000 435.000
14.25500 427.000
14.27000 421.000
14.28500 424.000
14.30000 421.000
14.31500 440.000
14.33000 453.000
14.34500 441.000
14.36000 415.000
14.37500 395.000
14.39000 415.000
14.40500 455.000
14.42000 450.000
14.43500 480.000
14.45000 444.000
14.46500 437.000
14.48000 423.000
14.49500 404.000
14.51000 437.000
14.52500 438.000
14.54000 401.000
14.55500 442.000
14.57000 440.000
14.58500 464.000
14.60000 425.000
14.61500 446.000
14.63000 406.000
14.64500 429.000
14.66000 424.000
14.67500 456.000
14.69000 409.000
14.70500 418.000
14.72000 424.000
14.73500 457.000
14.75000 438.000
14.76500 420.000
14.78000 415.000
14.79500 449.000
14.81000 438.000
14.82500 438.000
14.84000 414.000
14.85500 411.000
14.87000 399.000
14.88500 442.000
14.90000 412.000
14.91500 418.000
14.93000 411.000
14.94500 405.000
14.96000 421.000
14.97500 398.000
14.99000 406.000
15.00500 410.000
15.02000 405.000
15.03500 418.000
15.05000 407.000
15.06500 406.000
15.08000 421.000
15.09500 437.000
15.11000 430.000
15.12500 414.000
15.14000 426.000
15.15500 397.000
15.17000 412.000
15.18500 403.000
15.20000 419.000
15.21500 418.000
15.23000 410.000
15.24500 420.000
15.26000 414.000
15.27500 404.000
15.29000 417.000
15.30500 460.000
15.32000 455.000
15.33500 440.000
15.35000 409.000
15.36500 394.000
15.38000 398.000
15.39500 395.000
15.41000 409.000
15.42500 427.000
15.44000 421.000
15.45500 413.000
15.47000 427.000
15.48500 419.000
15.50000 430.000
15.51500 430.000
15.53000 402.000
15.54500 417.000
15.56000 397.000
15.57500 430.000
15.59000 416.000
15.60500 390.000
15.62000 415.000
15.63500 391.000
15.65000 418.000
15.66500 397.000
15.68000 410.000
15.69500 435.000
15.71000 406.000
15.72500 409.000
15.74000 429.000
15.75500 455.000
15.77000 400.000
15.78500 425.000
15.80000 408.000
15.81500 399.000
15.83000 387.000
15.84500 443.000
15.86000 409.000
15.87500 421.000
15.89000 437.000
15.90500 385.000
15.92000 421.000
15.93500 421.000
15.95000 439.000
15.96500 420.000
15.98000 388.000
15.99500 424.000
16.01000 417.000
16.02500 424.000
16.04000 416.000
16.05500 403.000
16.07000 409.000
16.08500 418.000
16.10000 434.000
16.11500 395.000
16.13000 378.000
16.14500 393.000
16.16000 406.000
16.17500 413.000
16.19000 430.000
16.20500 430.000
16.22000 405.000
16.23500 411.000
16.25000 397.000
16.26500 437.000
16.28000 419.000
16.29500 393.000
16.31000 435.000
16.32500 408.000
16.34000 409.000
16.35500 407.000
16.37000 396.000
16.38500 419.000
16.40000 428.000
16.41500 431.000
16.43000 419.000
16.44500 399.000
16.46000 398.000
16.47500 380.000
16.49000 420.000
16.50500 412.000
16.52000 405.000
16.53500 416.000
16.55000 409.000
16.56500 411.000
16.58000 401.000
16.59500 430.000
16.61000 447.000
16.62500 411.000
16.64000 399.000
16.65500 410.000
16.67000 444.000
16.68500 432.000
16.70000 402.000
16.71500 424.000
16.73000 419.000
16.74500 392.000
16.76000 433.000
16.77500 451.000
16.79000 371.000
16.80500 405.000
16.82000 404.000
16.83500 413.000
16.85000 420.000
16.86500 396.000
16.88000 407.000
16.89500 418.000
16.91000 408.000
16.92500 423.000
16.94000 429.000
16.95500 415.000
16.97000 447.000
16.98500 413.000
17.00000 410.000
17.01500 381.000
17.03000 385.000
17.04500 403.000
17.06000 433.000
17.07500 377.000
17.09000 414.000
17.10500 409.000
17.12000 438.000
17.13500 438.000
17.15000 430.000
17.16500 402.000
17.18000 425.000
17.19500 363.000
17.21000 428.000
17.22500 450.000
17.24000 413.000
17.25500 406.000
17.27000 403.000
17.28500 398.000
17.30000 380.000
17.31500 429.000
17.33000 422.000
17.34500 397.000
17.36000 410.000
17.37500 416.000
17.39000 429.000
17.40500 395.000
17.42000 430.000
17.43500 393.000
17.45000 376.000
17.46500 417.000
17.48000 396.000
17.49500 425.000
17.51000 423.000
17.52500 428.000
17.54000 425.000
17.55500 421.000
17.57000 420.000
17.58500 441.000
17.60000 429.000
17.61500 434.000
17.63000 425.000
17.64500 395.000
17.66000 398.000
17.67500 386.000
17.69000 380.000
17.70500 384.000
17.72000 407.000
17.73500 388.000
17.75000 421.000
17.76500 404.000
17.78000 405.000
17.79500 414.000
17.81000 403.000
17.82500 399.000
17.84000 428.000
17.85500 425.000
17.87000 396.000
17.88500 411.000
17.90000 400.000
17.91500 402.000
17.93000 423.000
17.94500 411.000
17.96000 405.000
17.97500 457.000
17.99000 426.000
18.00500 408.000
18.02000 399.000
18.03500 393.000
18.05000 394.000
18.06500 396.000
18.08000 394.000
18.09500 397.000
18.11000 435.000
18.12500 422.000
18.14000 441.000
18.15500 412.000
18.17000 425.000
18.18500 449.000
18.20000 435.000
18.21500 418.000
18.23000 435.000
18.24500 402.000
18.26000 405.000
18.27500 421.000
18.29000 388.000
18.30500 402.000
18.32000 416.000
18.33500 400.000
18.35000 442.000
18.36500 421.000
18.38000 410.000
18.39500 404.000
18.41000 433.000
18.42500 398.000
18.44000 423.000
18.45500 425.000
18.47000 403.000
18.48500 439.000
18.50000 401.000
18.51500 391.000
18.53000 395.000
18.54500 401.000
18.56000 422.000
18.57500 432.000
18.59000 442.000
18.60500 442.000
18.62000 427.000
18.63500 438.000
18.65000 411.000
18.66500 417.000
18.68000 430.000
18.69500 416.000
18.71000 430.000
18.72500 440.000
18.74000 444.000
18.75500 427.000
18.77000 409.000
18.78500 437.000
18.80000 450.000
18.81500 449.000
18.83000 427.000
18.84500 428.000
18.86000 407.000
18.87500 416.000
18.89000 418.000
18.90500 429.000
18.92000 428.000
18.93500 444.000
18.95000 440.000
18.96500 428.000
18.98000 447.000
18.99500 426.000
19.01000 426.000
19.02500 433.000
19.04000 422.000
19.05500 420.000
19.07000 415.000
19.08500 418.000
19.10000 441.000
19.11500 434.000
19.13000 428.000
19.14500 426.000
19.16000 454.000
19.17500 446.000
19.19000 449.000
19.20500 410.000
19.22000 434.000
19.23500 438.000
19.25000 397.000
19.26500 432.000
19.28000 444.000
19.29500 437.000
19.31000 437.000
19.32500 442.000
19.34000 433.000
19.35500 405.000
19.37000 420.000
19.38500 405.000
19.40000 452.000
19.41500 453.000
19.43000 429.000
19.44500 394.000
19.46000 415.000
19.47500 458.000
19.49000 455.000
19.50500 472.000
19.52000 467.000
19.53500 456.000
19.55000 463.000
19.56500 450.000
19.58000 436.000
19.59500 453.000
19.61000 455.000
19.62500 454.000
19.64000 441.000
19.65500 443.000
19.67000 454.000
19.68500 431.000
19.70000 438.000
19.71500 455.000
19.73000 458.000
19.74500 451.000
19.76000 435.000
19.77500 431.000
19.79000 410.000
19.80500 449.000
19.82000 487.000
19.83500 450.000
19.85000 438.000
19.86500 438.000
19.88000 443.000
19.89500 469.000
19.91000 485.000
19.92500 461.000
19.94000 457.000
19.95500 454.000
19.97000 451.000
19.98500 470.000
20.00000 460.000
20.01500 433.000
20.03000 460.000
20.04500 448.000
20.06000 477.000
20.07500 453.000
20.09000 490.000
20.10500 493.000
20.12000 479.000
20.13500 479.000
20.15000 467.000
20.16500 470.000
20.18000 501.000
20.19500 529.000
20.21000 479.000
20.22500 456.000
20.24000 490.000
20.25500 491.000
20.27000 504.000
20.28500 484.000
20.30000 458.000
20.31500 476.000
20.33000 474.000
20.34500 453.000
20.36000 465.000
20.37500 486.000
20.39000 502.000
20.40500 481.000
20.42000 500.000
20.43500 458.000
20.45000 477.000
20.46500 472.000
20.48000 491.000
20.49500 533.000
20.51000 509.000
20.52500 467.000
20.54000 478.000
20.55500 503.000
20.57000 524.000
20.58500 505.000
20.60000 498.000
20.61500 507.000
20.63000 484.000
20.64500 487.000
20.66000 490.000
20.67500 496.000
20.69000 525.000
20.70500 496.000
20.72000 531.000
20.73500 541.000
20.75000 532.000
20.76500 508.000
20.78000 507.000
20.79500 502.000
20.81000 502.000
20.82500 542.000
20.84000 548.000
20.85500 540.000
20.87000 551.000
20.88500 547.000
20.90000 514.000
20.91500 540.000
20.93000 548.000
20.94500 508.000
20.96000 552.000
20.97500 556.000
20.99000 509.000
21.00500 518.000
21.02000 527.000
21.03500 504.000
21.05000 535.000
21.06500 529.000
21.08000 562.000
21.09500 528.000
21.11000 535.000
21.12500 516.000
21.14000 515.000
21.15500 509.000
21.17000 483.000
21.18500 509.000
21.20000 503.000
21.21500 508.000
21.23000 518.000
21.24500 531.000
21.26000 530.000
21.27500 473.000
21.29000 483.000
21.30500 540.000
21.32000 544.000
21.33500 539.000
21.35000 535.000
21.36500 531.000
21.38000 509.000
21.39500 515.000
21.41000 516.000
21.42500 520.000
21.44000 521.000
21.45500 545.000
21.47000 522.000
21.48500 520.000
21.50000 538.000
21.51500 533.000
21.53000 536.000
21.54500 512.000
21.56000 497.000
21.57500 511.000
21.59000 530.000
21.60500 499.000
21.62000 498.000
21.63500 500.000
21.65000 486.000
21.66500 517.000
21.68000 488.000
21.69500 501.000
21.71000 499.000
21.72500 512.000
21.74000 515.000
21.75500 508.000
21.77000 539.000
21.78500 502.000
21.80000 501.000
21.81500 545.000
21.83000 494.000
21.84500 518.000
21.86000 509.000
21.87500 495.000
21.89000 486.000
21.90500 515.000
21.92000 511.000
21.93500 512.000
21.95000 468.000
21.96500 494.000
21.98000 520.000
21.99500 521.000
22.01000 492.000
22.02500 516.000
22.04000 485.000
22.05500 491.000
22.07000 530.000
22.08500 542.000
22.10000 533.000
22.11500 491.000
22.13000 501.000
22.14500 507.000
22.16000 487.000
22.17500 502.000
22.19000 496.000
22.20500 518.000
22.22000 488.000
22.23500 507.000
22.25000 507.000
22.26500 501.000
22.28000 471.000
22.29500 496.000
22.31000 527.000
22.32500 497.000
22.34000 472.000
22.35500 494.000
22.37000 475.000
22.38500 499.000
22.40000 503.000
22.41500 513.000
22.43000 532.000
22.44500 495.000
22.46000 480.000
22.47500 476.000
22.49000 510.000
22.50500 518.000
22.52000 508.000
22.53500 503.000
22.55000 502.000
22.56500 502.000
22.58000 509.000
22.59500 510.000
22.61000 499.000
22.62500 493.000
22.64000 496.000
22.65500 488.000
22.67000 529.000
22.68500 481.000
22.70000 513.000
22.71500 542.000
22.73000 499.000
22.74500 503.000
22.76000 525.000
22.77500 489.000
22.79000 500.000
22.80500 508.000
22.82000 492.000
22.83500 522.000
22.85000 504.000
22.86500 494.000
22.88000 472.000
22.89500 486.000
22.91000 509.000
22.92500 515.000
22.94000 488.000
22.95500 504.000
22.97000 519.000
22.98500 533.000
23.00000 485.000
23.01500 516.000
23.03000 535.000
23.04500 546.000
23.06000 486.000
23.07500 469.000
23.09000 494.000
23.10500 524.000
23.12000 500.000
23.13500 502.000
23.15000 497.000
23.16500 496.000
23.18000 499.000
23.19500 516.000
23.21000 522.000
23.22500 531.000
23.24000 545.000
23.25500 502.000
23.27000 479.000
23.28500 494.000
23.30000 541.000
23.31500 538.000
23.33000 507.000
23.34500 517.000
23.36000 517.000
23.37500 492.000
23.39000 480.000
23.40500 508.000
23.42000 528.000
23.43500 518.000
23.45000 555.000
23.46500 502.000
23.48000 518.000
23.49500 514.000
23.51000 531.000
23.52500 510.000
23.54000 508.000
23.55500 495.000
23.57000 493.000
23.58500 498.000
23.60000 508.000
23.61500 515.000
23.63000 538.000
23.64500 523.000
23.66000 531.000
23.67500 497.000
23.69000 516.000
23.70500 515.000
23.72000 526.000
23.73500 523.000
23.75000 510.000
23.76500 508.000
23.78000 509.000
23.79500 526.000
23.81000 497.000
23.82500 519.000
23.84000 542.000
23.85500 540.000
23.87000 539.000
23.88500 535.000
23.90000 546.000
23.91500 552.000
23.93000 539.000
23.94500 521.000
23.96000 515.000
23.97500 548.000
23.99000 546.000
24.00500 504.000
24.02000 562.000
24.03500 558.000
24.05000 542.000
24.06500 530.000
24.08000 586.000
24.09500 563.000
24.11000 521.000
24.12500 541.000
24.14000 552.000
24.15500 542.000
24.17000 506.000
24.18500 536.000
24.20000 524.000
24.21500 551.000
24.23000 552.000
24.24500 528.000
24.26000 541.000
24.27500 511.000
24.29000 568.000
24.30500 565.000
24.32000 588.000
24.33500 580.000
24.35000 558.000
24.36500 550.000
24.38000 544.000
24.39500 563.000
24.41000 553.000
24.42500 552.000
24.44000 554.000
24.45500 574.000
24.47000 568.000
24.48500 570.000
24.50000 538.000
24.51500 543.000
24.53000 535.000
24.54500 533.000
24.56000 549.000
24.57500 579.000
24.59000 570.000
24.60500 567.000
24.62000 551.000
24.63500 556.000
24.65000 565.000
24.66500 571.000
24.68000 547.000
24.69500 602.000
24.71000 581.000
24.72500 575.000
24.74000 566.000
24.75500 574.000
24.77000 586.000
24.78500 544.000
24.80000 555.000
24.81500 554.000
24.83000 553.000
24.84500 585.000
24.86000 617.000
24.87500 610.000
24.89000 585.000
24.90500 585.000
24.92000 602.000
24.93500 580.000
24.95000 598.000
24.96500 565.000
24.98000 545.000
24.99500 572.000
25.01000 616.000
25.02500 611.000
25.04000 570.000
25.05500 577.000
25.07000 630.000
25.08500 589.000
25.10000 573.000
25.11500 593.000
25.13000 583.000
25.14500 565.000
25.16000 577.000
25.17500 615.000
25.19000 584.000
25.20500 627.000
25.22000 594.000
25.23500 601.000
25.25000 622.000
25.26500 633.000
25.28000 607.000
25.29500 589.000
25.31000 632.000
25.32500 619.000
25.34000 617.000
25.35500 602.000
25.37000 619.000
25.38500 599.000
25.40000 616.000
25.41500 610.000
25.43000 651.000
25.44500 596.000
25.46000 622.000
25.47500 643.000
25.49000 614.000
25.50500 660.000
25.52000 614.000
25.53500 595.000
25.55000 598.000
25.56500 594.000
25.58000 625.000
25.59500 624.000
25.61000 643.000
25.62500 631.000
25.64000 617.000
25.65500 676.000
25.67000 613.000
25.68500 614.000
25.70000 680.000
25.71500 663.000
25.73000 695.000
25.74500 657.000
25.76000 661.000
25.77500 673.000
25.79000 711.000
25.80500 670.000
25.82000 677.000
25.83500 669.000
25.85000 714.000
25.86500 705.000
25.88000 710.000
25.89500 718.000
25.91000 715.000
25.92500 690.000
25.94000 714.000
25.95500 723.000
25.97000 746.000
25.98500 723.000
26.00000 762.000
26.01500 750.000
26.03000 740.000
26.04500 768.000
26.06000 740.000
26.07500 749.000
26.09000 731.000
26.10500 729.000
26.12000 759.000
26.13500 748.000
26.15000 795.000
26.16500 791.000
26.18000 742.000
26.19500 826.000
26.21000 827.000
26.22500 806.000
26.24000 835.000
26.25500 844.000
26.27000 850.000
26.28500 841.000
26.30000 861.000
26.31500 882.000
26.33000 829.000
26.34500 869.000
26.36000 871.000
26.37500 830.000
26.39000 898.000
26.40500 961.000
26.42000 920.000
26.43500 901.000
26.45000 897.000
26.46500 931.000
26.48000 948.000
26.49500 967.000
26.51000 970.000
26.52500 1009.000
26.54000 963.000
26.55500 1019.000
26.57000 1005.000
26.58500 1020.000
26.60000 1006.000
26.61500 1024.000
26.63000 1016.000
26.64500 982.000
26.66000 1014.000
26.67500 988.000
26.69000 1037.000
26.70500 1035.000
26.72000 1005.000
26.73500 1052.000
26.75000 1040.000
26.76500 1022.000
26.78000 1022.000
26.79500 1001.000
26.81000 1059.000
26.82500 1066.000
26.84000 1052.000
26.85500 1023.000
26.87000 1056.000
26.88500 1054.000
26.90000 1068.000
26.91500 1045.000
26.93000 1044.000
26.94500 1059.000
26.96000 1061.000
26.97500 1051.000
26.99000 1069.000
27.00500 1076.000
27.02000 1025.000
27.03500 1077.000
27.05000 1041.000
27.06500 1063.000
27.08000 1038.000
27.09500 1072.000
27.11000 1065.000
27.12500 1038.000
27.14000 1011.000
27.15500 1037.000
27.17000 1026.000
27.18500 1034.000
27.20000 1040.000
27.21500 1016.000
27.23000 1017.000
27.24500 1054.000
27.26000 1043.000
27.27500 993.000
27.29000 1042.000
27.30500 1049.000
27.32000 1008.000
27.33500 1034.000
27.35000 1013.000
27.36500 978.000
27.38000 1036.000
27.39500 1001.000
27.41000 974.000
27.42500 975.000
27.44000 1025.000
27.45500 1004.000
27.47000 987.000
27.48500 1021.000
27.50000 1019.000
27.51500 986.000
27.53000 971.000
27.54500 1045.000
27.56000 995.000
27.57500 985.000
27.59000 1007.000
27.60500 950.000
27.62000 980.000
27.63500 999.000
27.65000 999.000
27.66500 999.000
27.68000 991.000
27.69500 998.000
27.71000 960.000
27.72500 1052.000
27.74000 1030.000
27.75500 974.000
27.77000 934.000
27.78500 929.000
27.80000 983.000
27.81500 933.000
27.83000 957.000
27.84500 983.000
27.86000 958.000
27.87500 961.000
27.89000 962.000
27.90500 973.000
27.92000 956.000
27.93500 920.000
27.95000 937.000
27.96500 955.000
27.98000 980.000
27.99500 996.000
28.01000 953.000
28.02500 931.000
28.04000 930.000
28.05500 959.000
28.07000 946.000
28.08500 943.000
28.10000 945.000
28.11500 873.000
28.13000 922.000
28.14500 865.000
28.16000 871.000
28.17500 897.000
28.19000 916.000
28.20500 891.000
28.22000 869.000
28.23500 878.000
28.25000 918.000
28.26500 866.000
28.28000 903.000
28.29500 907.000
28.31000 905.000
28.32500 900.000
28.34000 940.000
28.35500 950.000
28.37000 909.000
28.38500 891.000
28.40000 918.000
28.41500 826.000
28.43000 834.000
28.44500 849.000
28.46000 867.000
28.47500 809.000
28.49000 797.000
28.50500 787.000
28.52000 782.000
28.53500 799.000
28.55000 767.000
28.56500 809.000
28.58000 835.000
28.59500 799.000
28.61000 784.000
28.62500 754.000
28.64000 758.000
28.65500 766.000
28.67000 757.000
28.68500 745.000
28.70000 743.000
28.71500 695.000
28.73000 747.000
28.74500 770.000
28.76000 755.000
28.77500 722.000
28.79000 753.000
28.80500 748.000
28.82000 746.000
28.83500 728.000
28.85000 711.000
28.86500 737.000
28.88000 670.000
28.89500 721.000
28.91000 738.000
28.92500 737.000
28.94000 722.000
28.95500 698.000
28.97000 708.000
28.98500 720.000
29.00000 735.000
29.01500 727.000
29.03000 684.000
29.04500 701.000
29.06000 706.000
29.07500 699.000
29.09000 694.000
29.10500 680.000
29.12000 683.000
29.13500 679.000
29.15000 721.000
29.16500 681.000
29.18000 711.000
29.19500 711.000
29.21000 694.000
29.22500 725.000
29.24000 686.000
29.25500 673.000
29.27000 671.000
29.28500 690.000
29.30000 689.000
29.31500 683.000
29.33000 657.000
29.34500 671.000
29.36000 692.000
29.37500 700.000
29.39000 689.000
29.40500 694.000
29.42000 695.000
29.43500 665.000
29.45000 667.000
29.46500 658.000
29.48000 653.000
29.49500 694.000
29.51000 663.000
29.52500 625.000
29.54000 620.000
29.55500 636.000
29.57000 638.000
29.58500 642.000
29.60000 631.000
29.61500 612.000
29.63000 613.000
29.64500 638.000
29.66000 620.000
29.67500 604.000
29.69000 630.000
29.70500 633.000
29.72000 626.000
29.73500 606.000
29.75000 647.000
29.76500 593.000
29.78000 576.000
29.79500 613.000
29.81000 614.000
29.82500 578.000
29.84000 587.000
29.85500 548.000
29.87000 562.000
29.88500 652.000
29.90000 611.000
29.91500 569.000
29.93000 580.000
29.94500 589.000
29.96000 565.000
29.97500 541.000
29.99000 572.000
30.00500 578.000
30.02000 550.000
30.03500 532.000
30.05000 554.000
30.06500 553.000
30.08000 566.000
30.09500 563.000
30.11000 550.000
30.12500 552.000
30.14000 504.000
30.15500 547.000
30.17000 553.000
30.18500 534.000
30.20000 529.000
30.21500 529.000
30.23000 487.000
30.24500 530.000
30.26000 507.000
30.27500 517.000
30.29000 497.000
30.30500 488.000
30.32000 531.000
30.33500 489.000
30.35000 512.000
30.36500 505.000
30.38000 517.000
30.39500 539.000
30.41000 515.000
30.42500 510.000
30.44000 516.000
30.45500 523.000
30.47000 488.000
30.48500 501.000
30.50000 495.000
30.51500 491.000
30.53000 490.000
30.54500 487.000
30.56000 501.000
30.57500 493.000
30.59000 475.000
30.60500 471.000
30.62000 487.000
30.63500 475.000
30.65000 470.000
30.66500 484.000
30.68000 507.000
30.69500 467.000
30.71000 474.000
30.72500 452.000
30.74000 440.000
30.75500 493.000
30.77000 477.000
30.78500 486.000
30.80000 455.000
30.81500 441.000
30.83000 444.000
30.84500 475.000
30.86000 484.000
30.87500 497.000
30.89000 481.000
30.90500 477.000
30.92000 484.000
30.93500 475.000
30.95000 460.000
30.96500 467.000
30.98000 494.000
30.99500 491.000
31.01000 493.000
31.02500 469.000
31.04000 458.000
31.05500 474.000
31.07000 493.000
31.08500 468.000
31.10000 462.000
31.11500 460.000
31.13000 440.000
31.14500 464.000
31.16000 454.000
31.17500 437.000
31.19000 482.000
31.20500 473.000
31.22000 441.000
31.23500 461.000
31.25000 438.000
31.26500 452.000
31.28000 462.000
31.29500 450.000
31.31000 449.000
31.32500 468.000
31.34000 458.000
31.35500 449.000
31.37000 451.000
31.38500 463.000
31.40000 460.000
31.41500 468.000
31.43000 470.000
31.44500 447.000
31.46000 454.000
31.47500 455.000
31.49000 456.000
31.50500 478.000
31.52000 459.000
31.53500 446.000
31.55000 442.000
31.56500 406.000
31.58000 401.000
31.59500 409.000
31.61000 447.000
31.62500 437.000
31.64000 428.000
31.65500 437.000
31.67000 447.000
31.68500 450.000
31.70000 444.000
31.71500 426.000
31.73000 433.000
31.74500 419.000
31.76000 454.000
31.77500 452.000
31.79000 444.000
31.80500 420.000
31.82000 424.000
31.83500 433.000
31.85000 437.000
31.86500 427.000
31.88000 428.000
31.89500 429.000
31.91000 418.000
31.92500 444.000
31.94000 429.000
31.95500 418.000
31.97000 415.000
31.98500 439.000
32.00000 450.000
32.01500 434.000
32.03000 455.000
32.04500 451.000
32.06000 470.000
32.07500 399.000
32.09000 429.000
32.10500 454.000
32.12000 448.000
32.13500 459.000
32.15000 419.000
32.16500 447.000
32.18000 467.000
32.19500 461.000
32.21000 471.000
32.22500 467.000
32.24000 452.000
32.25500 448.000
32.27000 471.000
32.28500 446.000
32.30000 428.000
32.31500 448.000
32.33000 456.000
32.34500 458.000
32.36000 436.000
32.37500 441.000
32.39000 434.000
32.40500 439.000
32.42000 424.000
32.43500 433.000
32.45000 430.000
32.46500 433.000
32.48000 463.000
32.49500 463.000
32.51000 480.000
32.52500 419.000
32.54000 425.000
32.55500 436.000
32.57000 475.000
32.58500 437.000
32.60000 427.000
32.61500 418.000
32.63000 405.000
32.64500 453.000
32.66000 430.000
32.67500 443.000
32.69000 436.000
32.70500 428.000
32.72000 429.000
32.73500 425.000
32.75000 422.000
32.76500 393.000
32.78000 404.000
32.79500 409.000
32.81000 413.000
32.82500 376.000
32.84000 385.000
32.85500 398.000
32.87000 404.000
32.88500 409.000
32.90000 385.000
32.91500 388.000
32.93000 410.000
32.94500 375.000
32.96000 390.000
32.97500 437.000
32.99000 408.000
33.00500 399.000
33.02000 393.000
33.03500 407.000
33.05000 389.000
33.06500 390.000
33.08000 403.000
33.09500 404.000
33.11000 368.000
33.12500 379.000
33.14000 355.000
33.15500 391.000
33.17000 381.000
33.18500 376.000
33.20000 394.000
33.21500 396.000
33.23000 405.000
33.24500 380.000
33.26000 365.000
33.27500 353.000
33.29000 398.000
33.30500 363.000
33.32000 350.000
33.33500 351.000
33.35000 388.000
33.36500 353.000
33.38000 351.000
33.39500 366.000
33.41000 364.000
33.42500 371.000
33.44000 339.000
33.45500 369.000
33.47000 387.000
33.48500 383.000
33.50000 364.000
33.51500 353.000
33.53000 361.000
33.54500 358.000
33.56000 363.000
33.57500 379.000
33.59000 336.000
33.60500 354.000
33.62000 370.000
33.63500 398.000
33.65000 379.000
33.66500 370.000
33.68000 356.000
33.69500 387.000
33.71000 377.000
33.72500 364.000
33.74000 344.000
33.75500 356.000
33.77000 373.000
33.78500 371.000
33.80000 343.000
33.81500 333.000
33.83000 360.000
33.84500 351.000
33.86000 387.000
33.87500 373.000
33.89000 355.000
33.90500 365.000
33.92000 374.000
33.93500 341.000
33.95000 338.000
33.96500 343.000
33.98000 358.000
33.99500 349.000
34.01000 335.000
34.02500 353.000
34.04000 345.000
34.05500 363.000
34.07000 370.000
34.08500 361.000
34.10000 330.000
34.11500 310.000
34.13000 316.000
34.14500 362.000
34.16000 348.000
34.17500 349.000
34.19000 344.000
34.20500 350.000
34.22000 356.000
34.23500 357.000
34.25000 336.000
34.26500 343.000
34.28000 345.000
34.29500 341.000
34.31000 341.000
34.32500 331.000
34.34000 361.000
34.35500 344.000
34.37000 321.000
34.38500 346.000
34.40000 334.000
34.41500 332.000
34.43000 330.000
34.44500 325.000
34.46000 328.000
34.47500 353.000
34.49000 354.000
34.50500 344.000
34.52000 330.000
34.53500 311.000
34.55000 333.000
34.56500 338.000
34.58000 318.000
34.59500 325.000
34.61000 362.000
34.62500 393.000
34.64000 344.000
34.65500 329.000
34.67000 349.000
34.68500 331.000
34.70000 317.000
34.71500 326.000
34.73000 328.000
34.74500 331.000
34.76000 321.000
34.77500 332.000
34.79000 319.000
34.80500 316.000
34.82000 328.000
34.83500 339.000
34.85000 324.000
34.86500 338.000
34.88000 338.000
34.89500 327.000
34.91000 321.000
34.92500 330.000
34.94000 371.000
34.95500 330.000
34.97000 315.000
34.98500 328.000
35.00000 332.000
35.01500 341.000
35.03000 322.000
35.04500 330.000
35.06000 330.000
35.07500 325.000
35.09000 324.000
35.10500 341.000
35.12000 330.000
35.13500 327.000
35.15000 344.000
35.16500 339.000
35.18000 331.000
35.19500 353.000
35.21000 332.000
35.22500 326.000
35.24000 337.000
35.25500 339.000
35.27000 325.000
35.28500 321.000
35.30000 326.000
35.31500 339.000
35.33000 352.000
35.34500 328.000
35.36000 326.000
35.37500 326.000
35.39000 319.000
35.40500 317.000
35.42000 324.000
35.43500 339.000
35.45000 322.000
35.46500 339.000
35.48000 340.000
35.49500 334.000
35.51000 357.000
35.52500 347.000
35.54000 325.000
35.55500 319.000
35.57000 354.000
35.58500 334.000
35.60000 313.000
35.61500 332.000
35.63000 333.000
35.64500 327.000
35.66000 346.000
35.67500 350.000
35.69000 347.000
35.70500 324.000
35.72000 325.000
35.73500 331.000
35.75000 325.000
35.76500 306.000
35.78000 326.000
35.79500 328.000
35.81000 328.000
35.82500 346.000
35.84000 362.000
35.85500 332.000
35.87000 307.000
35.88500 340.000
35.90000 336.000
35.91500 322.000
35.93000 333.000
35.94500 328.000
35.96000 335.000
35.97500 312.000
35.99000 330.000
36.00500 323.000
36.02000 325.000
36.03500 319.000
36.05000 295.000
36.06500 317.000
36.08000 302.000
36.09500 320.000
36.11000 313.000
36.12500 331.000
36.14000 334.000
36.15500 321.000
36.17000 299.000
36.18500 316.000
36.20000 339.000
36.21500 330.000
36.23000 343.000
36.24500 305.000
36.26000 321.000
36.27500 314.000
36.29000 309.000
36.30500 328.000
36.32000 310.000
36.33500 305.000
36.35000 329.000
36.36500 311.000
36.38000 316.000
36.39500 306.000
36.41000 275.000
36.42500 303.000
36.44000 327.000
36.45500 282.000
36.47000 290.000
36.48500 322.000
36.50000 322.000
36.51500 327.000
36.53000 299.000
36.54500 317.000
36.56000 329.000
36.57500 318.000
36.59000 306.000
36.60500 304.000
36.62000 329.000
36.63500 321.000
36.65000 293.000
36.66500 334.000
36.68000 341.000
36.69500 326.000
36.71000 306.000
36.72500 332.000
36.74000 312.000
36.75500 296.000
36.77000 323.000
36.78500 326.000
36.80000 298.000
36.81500 286.000
36.83000 302.000
36.84500 306.000
36.86000 310.000
36.87500 318.000
36.89000 321.000
36.90500 323.000
36.92000 305.000
36.93500 311.000
36.95000 321.000
36.96500 330.000
36.98000 306.000
36.99500 321.000
37.01000 317.000
37.02500 311.000
37.04000 284.000
37.05500 302.000
37.07000 297.000
37.08500 299.000
37.10000 305.000
37.11500 300.000
37.13000 306.000
37.14500 305.000
37.16000 313.000
37.17500 316.000
37.19000 310.000
37.20500 311.000
37.22000 289.000
37.23500 325.000
37.25000 300.000
37.26500 297.000
37.28000 275.000
37.29500 271.000
37.31000 301.000
37.32500 290.000
37.34000 295.000
37.35500 302.000
37.37000 280.000
37.38500 272.000
37.40000 264.000
37.41500 278.000
37.43000 304.000
37.44500 286.000
37.46000 270.000
37.47500 290.000
37.49000 299.000
37.50500 314.000
37.52000 295.000
37.53500 302.000
37.55000 260.000
37.56500 284.000
37.58000 280.000
37.59500 271.000
37.61000 277.000
37.62500 303.000
37.64000 276.000
37.65500 284.000
37.67000 272.000
37.68500 287.000
37.70000 316.000
37.71500 295.000
37.73000 284.000
37.74500 294.000
37.76000 269.000
37.77500 270.000
37.79000 265.000
37.80500 286.000
37.82000 292.000
37.83500 288.000
37.85000 288.000
37.86500 255.000
37.88000 266.000
37.89500 285.000
37.91000 277.000
37.92500 294.000
37.94000 289.000
37.95500 294.000
37.97000 279.000
37.98500 268.000
38.00000 290.000
38.01500 276.000
38.03000 292.000
38.04500 327.000
38.06000 291.000
38.07500 291.000
38.09000 302.000
38.10500 289.000
38.12000 275.000
38.13500 280.000
38.15000 262.000
38.16500 264.000
38.18000 268.000
38.19500 283.000
38.21000 281.000
38.22500 271.000
38.24000 278.000
38.25500 266.000
38.27000 278.000
38.28500 269.000
38.30000 264.000
38.31500 290.000
38.33000 259.000
38.34500 270.000
38.36000 248.000
38.37500 276.000
38.39000 279.000
38.40500 289.000
38.42000 266.000
38.43500 264.000
38.45000 285.000
38.46500 260.000
38.48000 267.000
38.49500 271.000
38.51000 256.000
38.52500 274.000
38.54000 280.000
38.55500 285.000
38.57000 288.000
38.58500 251.000
38.60000 278.000
38.61500 272.000
38.63000 269.000
38.64500 272.000
38.66000 274.000
38.67500 285.000
38.69000 294.000
38.70500 272.000
38.72000 285.000
38.73500 269.000
38.75000 254.000
38.76500 276.000
38.78000 272.000
38.79500 264.000
38.81000 257.000
38.82500 297.000
38.84000 302.000
38.85500 263.000
38.87000 265.000
38.88500 270.000
38.90000 253.000
38.91500 273.000
38.93000 252.000
38.94500 258.000
38.96000 260.000
38.97500 284.000
38.99000 269.000
39.00500 268.000
39.02000 268.000
39.03500 277.000
39.05000 261.000
39.06500 276.000
39.08000 263.000
39.09500 271.000
39.11000 257.000
39.12500 271.000
39.14000 264.000
39.15500 254.000
39.17000 279.000
39.18500 252.000
39.20000 274.000
39.21500 258.000
39.23000 250.000
39.24500 260.000
39.26000 245.000
39.27500 276.000
39.29000 248.000
39.30500 235.000
39.32000 252.000
39.33500 238.000
39.35000 262.000
39.36500 245.000
39.38000 253.000
39.39500 234.000
39.41000 275.000
39.42500 269.000
39.44000 256.000
39.45500 267.000
39.47000 245.000
39.48500 265.000
39.50000 256.000
39.51500 288.000
39.53000 259.000
39.54500 258.000
39.56000 249.000
39.57500 249.000
39.59000 287.000
39.60500 250.000
39.62000 270.000
39.63500 260.000
39.65000 254.000
39.66500 256.000
39.68000 246.000
39.69500 244.000
39.71000 248.000
39.72500 256.000
39.74000 267.000
39.75500 261.000
39.77000 260.000
39.78500 259.000
39.80000 270.000
39.81500 240.000
39.83000 263.000
39.84500 256.000
39.86000 253.000
39.87500 255.000
39.89000 279.000
39.90500 276.000
39.92000 245.000
39.93500 255.000
39.95000 270.000
39.96500 242.000
39.98000 255.000
39.99500 261.000
40.01000 273.000
40.02500 263.000
40.04000 258.000
40.05500 270.000
40.07000 256.000
40.08500 258.000
40.10000 267.000
40.11500 261.000
40.13000 252.000
40.14500 229.000
40.16000 251.000
40.17500 249.000
40.19000 237.000
40.20500 233.000
40.22000 239.000
40.23500 257.000
40.25000 232.000
40.26500 255.000
40.28000 269.000
40.29500 256.000
40.31000 248.000
40.32500 263.000
40.34000 285.000
40.35500 278.000
40.37000 270.000
40.38500 258.000
40.40000 259.000
40.41500 255.000
40.43000 267.000
40.44500 260.000
40.46000 266.000
40.47500 297.000
40.49000 275.000
40.50500 268.000
40.52000 259.000
40.53500 268.000
40.55000 273.000
40.56500 286.000
40.58000 293.000
40.59500 262.000
40.61000 259.000
40.62500 255.000
40.64000 245.000
40.65500 282.000
40.67000 251.000
40.68500 236.000
40.70000 252.000
40.71500 248.000
40.73000 254.000
40.74500 256.000
40.76000 257.000
40.77500 225.000
40.79000 250.000
40.80500 272.000
40.82000 273.000
40.83500 234.000
40.85000 242.000
40.86500 241.000
40.88000 255.000
40.89500 237.000
40.91000 253.000
40.92500 249.000
40.94000 260.000
40.95500 249.000
40.97000 256.000
40.98500 268.000
41.00000 248.000
41.01500 253.000
41.03000 278.000
41.04500 251.000
41.06000 241.000
41.07500 254.000
41.09000 247.000
41.10500 243.000
41.12000 227.000
41.13500 251.000
41.15000 266.000
41.16500 245.000
41.18000 253.000
41.19500 246.000
41.21000 242.000
41.22500 242.000
41.24000 249.000
41.25500 242.000
41.27000 244.000
41.28500 251.000
41.30000 256.000
41.31500 257.000
41.33000 247.000
41.34500 250.000
41.36000 248.000
41.37500 235.000
41.39000 261.000
41.40500 248.000
41.42000 273.000
41.43500 259.000
41.45000 242.000
41.46500 255.000
41.48000 268.000
41.49500 258.000
41.51000 237.000
41.52500 262.000
41.54000 241.000
41.55500 237.000
41.57000 258.000
41.58500 245.000
41.60000 253.000
41.61500 250.000
41.63000 262.000
41.64500 260.000
41.66000 245.000
41.67500 231.000
41.69000 236.000
41.70500 239.000
41.72000 254.000
41.73500 247.000
41.75000 244.000
41.76500 245.000
41.78000 273.000
41.79500 248.000
41.81000 252.000
41.82500 247.000
41.84000 253.000
41.85500 251.000
41.87000 252.000
41.88500 249.000
41.90000 263.000
41.91500 255.000
41.93000 255.000
41.94500 266.000
41.96000 265.000
41.97500 260.000
41.99000 246.000
42.00500 248.000
42.02000 263.000
42.03500 265.000
42.05000 272.000
42.06500 243.000
42.08000 242.000
42.09500 285.000
42.11000 264.000
42.12500 257.000
42.14000 246.000
42.15500 264.000
42.17000 288.000
42.18500 272.000
42.20000 256.000
42.21500 281.000
42.23000 280.000
42.24500 254.000
42.26000 243.000
42.27500 289.000
42.29000 271.000
42.30500 276.000
42.32000 264.000
42.33500 267.000
42.35000 256.000
42.36500 269.000
42.38000 263.000
42.39500 269.000
42.41000 269.000
42.42500 278.000
42.44000 273.000
42.45500 256.000
42.47000 272.000
42.48500 288.000
42.50000 257.000
42.51500 256.000
42.53000 289.000
42.54500 283.000
42.56000 282.000
42.57500 279.000
42.59000 270.000
42.60500 275.000
42.62000 272.000
42.63500 260.000
42.65000 248.000
42.66500 284.000
42.68000 280.000
42.69500 261.000
42.71000 266.000
42.72500 273.000
42.74000 274.000
42.75500 280.000
42.77000 292.000
42.78500 268.000
42.80000 262.000
42.81500 296.000
42.83000 293.000
42.84500 283.000
42.86000 288.000
42.87500 272.000
42.89000 279.000
42.90500 283.000
42.92000 292.000
42.93500 280.000
42.95000 285.000
42.96500 268.000
42.98000 279.000
42.99500 296.000
43.01000 278.000
43.02500 272.000
43.04000 296.000
43.05500 293.000
43.07000 282.000
43.08500 278.000
43.10000 288.000
43.11500 258.000
43.13000 274.000
43.14500 279.000
43.16000 287.000
43.17500 265.000
43.19000 285.000
43.20500 273.000
43.22000 274.000
43.23500 261.000
43.25000 257.000
43.26500 278.000
43.28000 276.000
43.29500 286.000
43.31000 273.000
43.32500 252.000
43.34000 293.000
43.35500 273.000
43.37000 288.000
43.38500 268.000
43.40000 287.000
43.41500 269.000
43.43000 292.000
43.44500 273.000
43.46000 273.000
43.47500 270.000
43.49000 272.000
43.50500 307.000
43.52000 281.000
43.53500 284.000
43.55000 284.000
43.56500 257.000
43.58000 237.000
43.59500 262.000
43.61000 248.000
43.62500 254.000
43.64000 258.000
43.65500 268.000
43.67000 289.000
43.68500 279.000
43.70000 270.000
43.71500 271.000
43.73000 316.000
43.74500 312.000
43.76000 292.000
43.77500 271.000
43.79000 303.000
43.80500 281.000
43.82000 268.000
43.83500 280.000
43.85000 298.000
43.86500 269.000
43.88000 247.000
43.89500 257.000
43.91000 272.000
43.92500 290.000
43.94000 279.000
43.95500 275.000
43.97000 277.000
43.98500 276.000
44.00000 262.000
44.01500 255.000
44.03000 261.000
44.04500 282.000
44.06000 286.000
44.07500 259.000
44.09000 279.000
44.10500 278.000
44.12000 265.000
44.13500 282.000
44.15000 281.000
44.16500 277.000
44.18000 280.000
44.19500 271.000
44.21000 255.000
44.22500 281.000
44.24000 268.000
44.25500 288.000
44.27000 264.000
44.28500 267.000
44.30000 279.000
44.31500 267.000
44.33000 269.000
44.34500 247.000
44.36000 272.000
44.37500 264.000
44.39000 266.000
44.40500 292.000
44.42000 275.000
44.43500 273.000
44.45000 278.000
44.46500 280.000
44.48000 282.000
44.49500 273.000
44.51000 286.000
44.52500 256.000
44.54000 256.000
44.55500 276.000
44.57000 280.000
44.58500 315.000
44.60000 279.000
44.61500 259.000
44.63000 282.000
44.64500 269.000
44.66000 256.000
44.67500 278.000
44.69000 277.000
44.70500 268.000
44.72000 273.000
44.73500 284.000
44.75000 261.000
44.76500 261.000
44.78000 268.000
44.79500 282.000
44.81000 267.000
44.82500 276.000
44.84000 256.000
44.85500 245.000
44.87000 275.000
44.88500 276.000
44.90000 283.000
44.91500 265.000
44.93000 265.000
44.94500 263.000
44.96000 246.000
44.97500 239.000
44.99000 252.000
45.00500 246.000
45.02000 251.000
45.03500 271.000
45.05000 259.000
45.06500 253.000
45.08000 259.000
45.09500 264.000
45.11000 264.000
45.12500 252.000
45.14000 261.000
45.15500 254.000
45.17000 264.000
45.18500 258.000
45.20000 272.000
45.21500 255.000
45.23000 258.000
45.24500 271.000
45.26000 263.000
45.27500 271.000
45.29000 263.000
45.30500 251.000
45.32000 250.000
45.33500 248.000
45.35000 266.000
45.36500 256.000
45.38000 241.000
45.39500 261.000
45.41000 278.000
45.42500 246.000
45.44000 254.000
45.45500 243.000
45.47000 253.000
45.48500 241.000
45.50000 248.000
45.51500 262.000
45.53000 260.000
45.54500 249.000
45.56000 243.000
45.57500 237.000
45.59000 253.000
45.60500 237.000
45.62000 246.000
45.63500 247.000
45.65000 247.000
45.66500 257.000
45.68000 255.000
45.69500 256.000
45.71000 247.000
45.72500 242.000
45.74000 228.000
45.75500 232.000
45.77000 233.000
45.78500 219.000
45.80000 257.000
45.81500 260.000
45.83000 247.000
45.84500 232.000
45.86000 229.000
45.87500 228.000
45.89000 229.000
45.90500 221.000
45.92000 244.000
45.93500 233.000
45.95000 248.000
45.96500 249.000
45.98000 257.000
45.99500 251.000
46.01000 231.000
46.02500 238.000
46.04000 236.000
46.05500 242.000
46.07000 232.000
46.08500 231.000
46.10000 231.000
46.11500 245.000
46.13000 247.000
46.14500 235.000
46.16000 240.000
46.17500 253.000
46.19000 242.000
46.20500 243.000
46.22000 251.000
46.23500 252.000
46.25000 243.000
46.26500 212.000
46.28000 231.000
46.29500 229.000
46.31000 247.000
46.32500 243.000
46.34000 220.000
46.35500 241.000
46.37000 228.000
46.38500 228.000
46.40000 231.000
46.41500 236.000
46.43000 261.000
46.44500 226.000
46.46000 220.000
46.47500 221.000
46.49000 221.000
46.50500 232.000
46.52000 233.000
46.53500 244.000
46.55000 223.000
46.56500 225.000
46.58000 208.000
46.59500 243.000
46.61000 232.000
46.62500 230.000
46.64000 228.000
46.65500 232.000
46.67000 236.000
46.68500 226.000
46.70000 225.000
46.71500 218.000
46.73000 244.000
46.74500 255.000
46.76000 234.000
46.77500 245.000
46.79000 223.000
46.80500 212.000
46.82000 211.000
46.83500 227.000
46.85000 262.000
46.86500 242.000
46.88000 226.000
46.89500 215.000
46.91000 227.000
46.92500 244.000
46.94000 233.000
46.95500 224.000
46.97000 250.000
46.98500 227.000
47.00000 212.000
47.01500 216.000
47.03000 212.000
47.04500 246.000
47.06000 225.000
47.07500 222.000
47.09000 219.000
47.10500 243.000
47.12000 234.000
47.13500 216.000
47.15000 214.000
47.16500 222.000
47.18000 204.000
47.19500 215.000
47.21000 212.000
47.22500 207.000
47.24000 211.000
47.25500 225.000
47.27000 216.000
47.28500 220.000
47.30000 223.000
47.31500 212.000
47.33000 222.000
47.34500 214.000
47.36000 210.000
47.37500 243.000
47.39000 226.000
47.40500 222.000
47.42000 220.000
47.43500 217.000
47.45000 223.000
47.46500 208.000
47.48000 215.000
47.49500 246.000
47.51000 192.000
47.52500 215.000
47.54000 193.000
47.55500 218.000
47.57000 218.000
47.58500 212.000
47.60000 189.000
47.61500 194.000
47.63000 201.000
47.64500 187.000
47.66000 219.000
47.67500 227.000
47.69000 211.000
47.70500 187.000
47.72000 211.000
47.73500 186.000
47.75000 192.000
47.76500 187.000
47.78000 205.000
47.79500 206.000
47.81000 195.000
47.82500 194.000
47.84000 190.000
47.85500 213.000
47.87000 223.000
47.88500 203.000
47.90000 199.000
47.91500 209.000
47.93000 212.000
47.94500 196.000
47.96000 210.000
47.97500 226.000
47.99000 210.000
48.00500 218.000
48.02000 208.000
48.03500 231.000
48.05000 204.000
48.06500 192.000
48.08000 207.000
48.09500 202.000
48.11000 201.000
48.12500 211.000
48.14000 207.000
48.15500 198.000
48.17000 222.000
48.18500 199.000
48.20000 207.000
48.21500 219.000
48.23000 215.000
48.24500 206.000
48.26000 188.000
48.27500 206.000
48.29000 187.000
48.30500 205.000
48.32000 216.000
48.33500 234.000
48.35000 214.000
48.36500 192.000
48.38000 197.000
48.39500 187.000
48.41000 196.000
48.42500 195.000
48.44000 200.000
48.45500 196.000
48.47000 213.000
48.48500 203.000
48.50000 199.000
48.51500 208.000
48.53000 170.000
48.54500 189.000
48.56000 213.000
48.57500 197.000
48.59000 205.000
48.60500 195.000
48.62000 204.000
48.63500 219.000
48.65000 230.000
48.66500 206.000
48.68000 190.000
48.69500 200.000
48.71000 186.000
48.72500 201.000
48.74000 192.000
48.75500 227.000
48.77000 210.000
48.78500 195.000
48.80000 199.000
48.81500 187.000
48.83000 180.000
48.84500 203.000
48.86000 179.000
48.87500 195.000
48.89000 197.000
48.90500 212.000
48.92000 197.000
48.93500 197.000
48.95000 201.000
48.96500 209.000
48.98000 203.000
48.99500 188.000
49.01000 178.000
49.02500 191.000
49.04000 197.000
49.05500 211.000
49.07000 215.000
49.08500 205.000
49.10000 196.000
49.11500 216.000
49.13000 208.000
49.14500 192.000
49.16000 202.000
49.17500 187.000
49.19000 195.000
49.20500 220.000
49.22000 175.000
49.23500 205.000
49.25000 202.000
49.26500 208.000
49.28000 209.000
49.29500 220.000
49.31000 207.000
49.32500 197.000
49.34000 194.000
49.35500 188.000
49.37000 195.000
49.38500 221.000
49.40000 184.000
49.41500 190.000
49.43000 206.000
49.44500 208.000
49.46000 208.000
49.47500 222.000
49.49000 227.000
49.50500 204.000
49.52000 177.000
49.53500 193.000
49.55000 211.000
49.56500 205.000
49.58000 206.000
49.59500 201.000
49.61000 181.000
49.62500 195.000
49.64000 196.000
49.65500 209.000
49.67000 192.000
49.68500 198.000
49.70000 198.000
49.71500 209.000
49.73000 236.000
49.74500 191.000
49.76000 195.000
49.77500 182.000
49.79000 197.000
49.80500 201.000
49.82000 199.000
49.83500 209.000
49.85000 202.000
49.86500 198.000
49.88000 189.000
49.89500 208.000
49.91000 206.000
49.92500 206.000
49.94000 189.000
49.95500 199.000
49.97000 209.000
49.98500 202.000
50.00000 204.000
50.01500 202.000
50.03000 205.000
50.04500 210.000
50.06000 201.000
50.07500 202.000
50.09000 207.000
50.10500 191.000
50.12000 166.000
50.13500 197.000
50.15000 198.000
50.16500 205.000
50.18000 206.000
50.19500 208.000
50.21000 203.000
50.22500 184.000
50.24000 190.000
50.25500 198.000
50.27000 194.000
50.28500 202.000
50.30000 192.000
50.31500 180.000
50.33000 203.000
50.34500 209.000
50.36000 198.000
50.37500 204.000
50.39000 226.000
50.40500 199.000
50.42000 187.000
50.43500 194.000
50.45000 185.000
50.46500 200.000
50.48000 188.000
50.49500 219.000
50.51000 220.000
50.52500 198.000
50.54000 196.000
50.55500 188.000
50.57000 199.000
50.58500 226.000
50.60000 210.000
50.61500 191.000
50.63000 190.000
50.64500 199.000
50.66000 204.000
50.67500 228.000
50.69000 217.000
50.70500 200.000
50.72000 206.000
50.73500 201.000
50.75000 191.000
50.76500 208.000
50.78000 204.000
50.79500 208.000
50.81000 195.000
50.82500 185.000
50.84000 169.000
50.85500 202.000
50.87000 201.000
50.88500 178.000
50.90000 206.000
50.91500 207.000
50.93000 205.000
50.94500 201.000
50.96000 202.000
50.97500 210.000
50.99000 199.000
51.00500 185.000
51.02000 199.000
51.03500 190.000
51.05000 196.000
51.06500 197.000
51.08000 202.000
51.09500 180.000
51.11000 218.000
51.12500 207.000
51.14000 219.000
51.15500 219.000
51.17000 208.000
51.18500 199.000
51.20000 194.000
51.21500 191.000
51.23000 193.000
51.24500 199.000
51.26000 181.000
51.27500 202.000
51.29000 213.000
51.30500 224.000
51.32000 213.000
51.33500 217.000
51.35000 215.000
51.36500 198.000
51.38000 185.000
51.39500 196.000
51.41000 186.000
51.42500 214.000
51.44000 205.000
51.45500 175.000
51.47000 173.000
51.48500 187.000
51.50000 215.000
51.51500 216.000
51.53000 213.000
51.54500 224.000
51.56000 195.000
51.57500 197.000
51.59000 178.000
51.60500 171.000
51.62000 186.000
51.63500 190.000
51.65000 212.000
51.66500 203.000
51.68000 212.000
51.69500 194.000
51.71000 199.000
51.72500 206.000
51.74000 191.000
51.75500 183.000
51.77000 179.000
51.78500 168.000
51.80000 193.000
51.81500 187.000
51.83000 181.000
51.84500 202.000
51.86000 198.000
51.87500 213.000
51.89000 201.000
51.90500 202.000
51.92000 184.000
51.93500 192.000
51.95000 180.000
51.96500 191.000
51.98000 199.000
51.99500 174.000
52.01000 177.000
52.02500 212.000
52.04000 176.000
52.05500 195.000
52.07000 210.000
52.08500 197.000
52.10000 188.000
52.11500 200.000
52.13000 188.000
52.14500 202.000
52.16000 204.000
52.17500 203.000
52.19000 192.000
52.20500 195.000
52.22000 201.000
52.23500 202.000
52.25000 187.000
52.26500 202.000
52.28000 188.000
52.29500 182.000
52.31000 192.000
52.32500 197.000
52.34000 208.000
52.35500 180.000
52.37000 191.000
52.38500 209.000
52.40000 193.000
52.41500 212.000
52.43000 209.000
52.44500 183.000
52.46000 171.000
52.47500 178.000
52.49000 187.000
52.50500 184.000
52.52000 181.000
52.53500 186.000
52.55000 191.000
52.56500 179.000
52.58000 205.000
52.59500 187.000
52.61000 179.000
52.62500 183.000
52.64000 165.000
52.65500 173.000
52.67000 183.000
52.68500 211.000
52.70000 183.000
52.71500 178.000
52.73000 195.000
52.74500 186.000
52.76000 179.000
52.77500 176.000
52.79000 190.000
52.80500 173.000
52.82000 192.000
52.83500 211.000
52.85000 211.000
52.86500 189.000
52.88000 193.000
52.89500 214.000
52.91000 195.000
52.92500 171.000
52.94000 187.000
52.95500 172.000
52.97000 185.000
52.98500 189.000
53.00000 168.000
53.01500 176.000
53.03000 190.000
53.04500 197.000
53.06000 206.000
53.07500 205.000
53.09000 193.000
53.10500 176.000
53.12000 194.000
53.13500 177.000
53.15000 200.000
53.16500 199.000
53.18000 199.000
53.19500 197.000
53.21000 175.000
53.22500 193.000
53.24000 191.000
53.25500 177.000
53.27000 192.000
53.28500 198.000
53.30000 191.000
53.31500 194.000
53.33000 180.000
53.34500 173.000
53.36000 201.000
53.37500 177.000
53.39000 201.000
53.40500 192.000
53.42000 183.000
53.43500 201.000
53.45000 205.000
53.46500 195.000
53.48000 186.000
53.49500 199.000
53.51000 188.000
53.52500 197.000
53.54000 204.000
53.55500 199.000
53.57000 194.000
53.58500 203.000
53.60000 195.000
53.61500 194.000
53.63000 196.000
53.64500 212.000
53.66000 205.000
53.67500 191.000
53.69000 193.000
53.70500 204.000
53.72000 183.000
53.73500 179.000
53.75000 188.000
53.76500 204.000
53.78000 190.000
53.79500 197.000
53.81000 211.000
53.82500 214.000
53.84000 192.000
53.85500 180.000
53.87000 192.000
53.88500 208.000
53.90000 207.000
53.91500 203.000
53.93000 204.000
53.94500 185.000
53.96000 183.000
53.97500 206.000
53.99000 197.000
54.00500 184.000
54.02000 184.000
54.03500 178.000
54.05000 191.000
54.06500 216.000
54.08000 189.000
54.09500 189.000
54.11000 203.000
54.12500 176.000
54.14000 204.000
54.15500 193.000
54.17000 206.000
54.18500 199.000
54.20000 181.000
54.21500 204.000
54.23000 197.000
54.24500 188.000
54.26000 192.000
54.27500 198.000
54.29000 207.000
54.30500 207.000
54.32000 196.000
54.33500 208.000
54.35000 198.000
54.36500 201.000
54.38000 227.000
54.39500 215.000
54.41000 212.000
54.42500 199.000
54.44000 202.000
54.45500 195.000
54.47000 203.000
54.48500 218.000
54.50000 201.000
54.51500 210.000
54.53000 199.000
54.54500 201.000
54.56000 199.000
54.57500 205.000
54.59000 217.000
54.60500 216.000
54.62000 206.000
54.63500 191.000
54.65000 226.000
54.66500 207.000
54.68000 188.000
54.69500 219.000
54.71000 215.000
54.72500 177.000
54.74000 197.000
54.75500 197.000
54.77000 207.000
54.78500 205.000
54.80000 208.000
54.81500 227.000
54.83000 217.000
54.84500 216.000
54.86000 191.000
54.87500 194.000
54.89000 202.000
54.90500 180.000
54.92000 199.000
54.93500 217.000
54.95000 204.000
54.96500 198.000
54.98000 217.000
54.99500 202.000
55.01000 216.000
55.02500 201.000
55.04000 198.000
55.05500 222.000
55.07000 198.000
55.08500 199.000
55.10000 182.000
55.11500 203.000
55.13000 188.000
55.14500 210.000
55.16000 209.000
55.17500 204.000
55.19000 219.000
55.20500 172.000
55.22000 190.000
55.23500 200.000
55.25000 211.000
55.26500 199.000
55.28000 197.000
55.29500 205.000
55.31000 182.000
55.32500 201.000
55.34000 197.000
55.35500 188.000
55.37000 182.000
55.38500 196.000
55.40000 202.000
55.41500 199.000
55.43000 182.000
55.44500 189.000
55.46000 193.000
55.47500 181.000
55.49000 183.000
55.50500 187.000
55.52000 180.000
55.53500 208.000
55.55000 210.000
55.56500 212.000
55.58000 200.000
55.59500 206.000
55.61000 203.000
55.62500 187.000
55.64000 191.000
55.65500 220.000
55.67000 192.000
55.68500 208.000
55.70000 196.000
55.71500 200.000
55.73000 201.000
55.74500 212.000
55.76000 221.000
55.77500 198.000
55.79000 187.000
55.80500 195.000
55.82000 181.000
55.83500 192.000
55.85000 177.000
55.86500 180.000
55.88000 196.000
55.89500 210.000
55.91000 203.000
55.92500 228.000
55.94000 184.000
55.95500 175.000
55.97000 195.000
55.98500 185.000
56.00000 209.000
56.01500 183.000
56.03000 198.000
56.04500 205.000
56.06000 178.000
56.07500 164.000
56.09000 184.000
56.10500 194.000
56.12000 194.000
56.13500 197.000
56.15000 188.000
56.16500 187.000
56.18000 202.000
56.19500 208.000
56.21000 186.000
56.22500 186.000
56.24000 199.000
56.25500 206.000
56.27000 197.000
56.28500 185.000
56.30000 194.000
56.31500 199.000
56.33000 196.000
56.34500 211.000
56.36000 209.000
56.37500 184.000
56.39000 194.000
56.40500 184.000
56.42000 186.000
56.43500 187.000
56.45000 190.000
56.46500 184.000
56.48000 170.000
56.49500 174.000
56.51000 175.000
56.52500 172.000
56.54000 172.000
56.55500 176.000
56.57000 194.000
56.58500 193.000
56.60000 177.000
56.61500 200.000
56.63000 177.000
56.64500 183.000
56.66000 186.000
56.67500 198.000
56.69000 219.000
56.70500 203.000
56.72000 193.000
56.73500 212.000
56.75000 189.000
56.76500 173.000
56.78000 178.000
56.79500 186.000
56.81000 192.000
56.82500 216.000
56.84000 193.000
56.85500 197.000
56.87000 200.000
56.88500 193.000
56.90000 196.000
56.91500 173.000
56.93000 164.000
56.94500 181.000
56.96000 188.000
56.97500 183.000
56.99000 187.000
57.00500 181.000
57.02000 193.000
57.03500 188.000
57.05000 176.000
57.06500 194.000
57.08000 209.000
57.09500 188.000
57.11000 189.000
57.12500 201.000
57.14000 181.000
57.15500 182.000
57.17000 177.000
57.18500 172.000
57.20000 182.000
57.21500 185.000
57.23000 191.000
57.24500 183.000
57.26000 181.000
57.27500 177.000
57.29000 160.000
57.30500 175.000
57.32000 206.000
57.33500 213.000
57.35000 193.000
57.36500 181.000
57.38000 175.000
57.39500 177.000
57.41000 180.000
57.42500 180.000
57.44000 192.000
57.45500 193.000
57.47000 185.000
57.48500 187.000
57.50000 172.000
57.51500 164.000
57.53000 186.000
57.54500 185.000
57.56000 186.000
57.57500 176.000
57.59000 195.000
57.60500 195.000
57.62000 199.000
57.63500 164.000
57.65000 178.000
57.66500 190.000
57.68000 185.000
57.69500 184.000
57.71000 188.000
57.72500 190.000
57.74000 202.000
57.75500 171.000
57.77000 187.000
57.78500 179.000
57.80000 188.000
57.81500 198.000
57.83000 178.000
57.84500 175.000
57.86000 192.000
57.87500 176.000
57.89000 188.000
57.90500 158.000
57.92000 185.000
57.93500 188.000
57.95000 184.000
57.96500 174.000
57.98000 179.000
57.99500 191.000
58.01000 186.000
58.02500 166.000
58.04000 186.000
58.05500 175.000
58.07000 162.000
58.08500 190.000
58.10000 192.000
58.11500 198.000
58.13000 190.000
58.14500 163.000
58.16000 178.000
58.17500 188.000
58.19000 179.000
58.20500 179.000
58.22000 193.000
58.23500 198.000
58.25000 194.000
58.26500 178.000
58.28000 157.000
58.29500 180.000
58.31000 182.000
58.32500 179.000
58.34000 181.000
58.35500 173.000
58.37000 176.000
58.38500 217.000
58.40000 208.000
58.41500 177.000
58.43000 176.000
58.44500 180.000
58.46000 168.000
58.47500 150.000
58.49000 175.000
58.50500 185.000
58.52000 170.000
58.53500 185.000
58.55000 173.000
58.56500 175.000
58.58000 166.000
58.59500 178.000
58.61000 177.000
58.62500 165.000
58.64000 178.000
58.65500 187.000
58.67000 191.000
58.68500 171.000
58.70000 176.000
58.71500 169.000
58.73000 174.000
58.74500 170.000
58.76000 186.000
58.77500 206.000
58.79000 184.000
58.80500 189.000
58.82000 186.000
58.83500 194.000
58.85000 189.000
58.86500 170.000
58.88000 157.000
58.89500 177.000
58.91000 179.000
58.92500 155.000
58.94000 171.000
58.95500 182.000
58.97000 176.000
58.98500 172.000
59.00000 193.000
59.01500 177.000
59.03000 157.000
59.04500 181.000
59.06000 171.000
59.07500 158.000
59.09000 174.000
59.10500 171.000
59.12000 167.000
59.13500 187.000
59.15000 175.000
59.16500 155.000
59.18000 161.000
59.19500 159.000
59.21000 183.000
59.22500 193.000
59.24000 190.000
59.25500 174.000
59.27000 172.000
59.28500 166.000
59.30000 172.000
59.31500 180.000
59.33000 177.000
59.34500 159.000
59.36000 167.000
59.37500 171.000
59.39000 164.000
59.40500 172.000
59.42000 177.000
59.43500 183.000
59.45000 186.000
59.46500 170.000
59.48000 168.000
59.49500 175.000
59.51000 172.000
59.52500 162.000
59.54000 178.000
59.55500 176.000
59.57000 161.000
59.58500 172.000
59.60000 186.000
59.61500 167.000
59.63000 154.000
59.64500 152.000
59.66000 166.000
59.67500 176.000
59.69000 168.000
59.70500 169.000
59.72000 169.000
59.73500 167.000
59.75000 154.000
59.76500 158.000
59.78000 175.000
59.79500 167.000
59.81000 180.000
59.82500 193.000
59.84000 164.000
59.85500 175.000
59.87000 162.000
59.88500 172.000
59.90000 175.000
59.91500 167.000
59.93000 169.000
59.94500 166.000
59.96000 170.000
59.97500 174.000
59.99000 159.000
60.00500 161.000
60.02000 160.000
60.03500 165.000
60.05000 184.000
60.06500 169.000
60.08000 176.000
60.09500 152.000
60.11000 157.000
60.12500 172.000
60.14000 179.000
60.15500 172.000
60.17000 164.000
60.18500 154.000
60.20000 157.000
60.21500 169.000
60.23000 147.000
60.24500 179.000
60.26000 189.000
60.27500 167.000
60.29000 170.000
60.30500 152.000
60.32000 181.000
60.33500 180.000
60.35000 196.000
60.36500 181.000
60.38000 172.000
60.39500 171.000
60.41000 166.000
60.42500 162.000
60.44000 191.000
60.45500 177.000
60.47000 172.000
60.48500 175.000
60.50000 172.000
60.51500 180.000
60.53000 174.000
60.54500 152.000
60.56000 161.000
60.57500 146.000
60.59000 154.000
60.60500 152.000
60.62000 157.000
60.63500 178.000
60.65000 168.000
60.66500 178.000
60.68000 174.000
60.69500 151.000
60.71000 166.000
60.72500 177.000
60.74000 168.000
60.75500 164.000
60.77000 178.000
60.78500 171.000
60.80000 165.000
60.81500 161.000
60.83000 157.000
60.84500 154.000
60.86000 159.000
60.87500 170.000
60.89000 162.000
60.90500 183.000
60.92000 167.000
60.93500 181.000
60.95000 163.000
60.96500 169.000
60.98000 173.000
60.99500 186.000
61.01000 167.000
61.02500 181.000
61.04000 180.000
61.05500 163.000
61.07000 152.000
61.08500 158.000
61.10000 166.000
61.11500 148.000
61.13000 161.000
61.14500 160.000
61.16000 162.000
61.17500 170.000
61.19000 165.000
61.20500 178.000
61.22000 170.000
61.23500 170.000
61.25000 161.000
61.26500 154.000
61.28000 163.000
61.29500 180.000
61.31000 164.000
61.32500 167.000
61.34000 167.000
61.35500 151.000
61.37000 148.000
61.38500 150.000
61.40000 166.000
61.41500 186.000
61.43000 154.000
61.44500 143.000
61.46000 152.000
61.47500 166.000
61.49000 162.000
61.50500 172.000
61.52000 172.000
61.53500 177.000
61.55000 139.000
61.56500 174.000
61.58000 149.000
61.59500 153.000
61.61000 161.000
61.62500 146.000
61.64000 153.000
61.65500 165.000
61.67000 156.000
61.68500 174.000
61.70000 175.000
61.71500 159.000
61.73000 154.000
61.74500 150.000
61.76000 159.000
61.77500 170.000
61.79000 162.000
61.80500 149.000
61.82000 169.000
61.83500 166.000
61.85000 162.000
61.86500 156.000
61.88000 163.000
61.89500 145.000
61.91000 166.000
61.92500 160.000
61.94000 168.000
61.95500 156.000
61.97000 155.000
61.98500 176.000
