2.0 627.0
2.015 605.0
2.03 620.0
2.045 626.0
2.06 557.0
2.075 553.0
2.09 551.0
2.105 556.0
2.12 551.0
2.135 544.0
2.15 531.0
2.165 550.0
2.18 537.0
2.195 538.0
2.21 497.0
2.225 515.0
2.24 477.0
2.255 491.0
2.27 479.0
2.285 463.0
2.3 465.0
2.315 443.0
2.33 462.0
2.345 470.0
2.36 440.0
2.375 442.0
2.39 429.0
2.405 391.0
2.42 418.0
2.435 423.0
2.45 412.0
2.465 395.0
2.48 399.0
2.495 412.0
2.51 414.0
2.525 389.0
2.54 437.0
2.555 407.0
2.57 402.0
2.585 361.0
2.6 399.0
2.615 436.0
2.63 376.0
2.645 383.0
2.66 375.0
2.675 365.0
2.69 367.0
2.705 346.0
2.72 361.0
2.735 377.0
2.75 367.0
2.765 378.0
2.78 353.0
2.795 355.0
2.81 375.0
2.825 345.0
2.84 374.0
2.855 368.0
2.87 354.0
2.885 347.0
2.9 336.0
2.915 366.0
2.93 374.0
2.945 373.0
2.96 354.0
2.975 351.0
2.99 329.0
3.005 330.0
3.02 368.0
3.035 359.0
3.05 345.0
3.065 329.0
3.08 322.0
3.095 360.0
3.11 325.0
3.125 297.0
3.14 329.0
3.155 340.0
3.17 321.0
3.185 328.0
3.2 335.0
3.215 319.0
3.23 321.0
3.245 305.0
3.26 310.0
3.275 330.0
3.29 316.0
3.305 326.0
3.32 317.0
3.335 335.0
3.35 334.0
3.365 321.0
3.38 325.0
3.395 332.0
3.41 348.0
3.425 340.0
3.44 328.0
3.455 304.0
3.47 330.0
3.485 311.0
3.5 315.0
3.515 297.0
3.53 290.0
3.545 285.0
3.56 296.0
3.575 305.0
3.59 325.0
3.605 304.0
3.62 318.0
3.635 281.0
3.65 326.0
3.665 303.0
3.68 311.0
3.695 308.0
3.71 318.0
3.725 320.0
3.74 323.0
3.755 340.0
3.77 294.0
3.785 322.0
3.8 282.0
3.815 294.0
3.83 321.0
3.845 342.0
3.86 321.0
3.875 321.0
3.89 326.0
3.905 309.0
3.92 307.0
3.935 318.0
3.95 301.0
3.965 315.0
3.98 314.0
3.995 308.0
4.01 332.0
4.025 347.0
4.04 320.0
4.055 319.0
4.07 320.0
4.085 316.0
4.1 308.0
4.115 302.0
4.13 311.0
4.145 327.0
4.16 307.0
4.175 316.0
4.19 333.0
4.205 290.0
4.22 298.0
4.235 309.0
4.25 329.0
4.265 307.0
4.28 324.0
4.295 321.0
4.31 343.0
4.325 329.0
4.34 302.0
4.355 323.0
4.37 298.0
4.385 306.0
4.4 318.0
4.415 302.0
4.43 280.0
4.445 314.0
4.46 317.0
4.475 317.0
4.49 312.0
4.505 313.0
4.52 303.0
4.535 318.0
4.55 316.0
4.565 305.0
4.58 308.0
4.595 313.0
4.61 308.0
4.625 320.0
4.64 294.0
4.655 303.0
4.67 308.0
4.685 317.0
4.7 309.0
4.715 290.0
4.73 312.0
4.745 309.0
4.76 299.0
4.775 313.0
4.79 320.0
4.805 315.0
4.82 306.0
4.835 295.0
4.85 316.0
4.865 309.0
4.88 302.0
4.895 294.0
4.91 296.0
4.925 322.0
4.94 307.0
4.955 306.0
4.97 312.0
4.985 315.0
5.0 306.0
5.015 315.0
5.03 301.0
5.045 301.0
5.06 320.0
5.075 316.0
5.09 350.0
5.105 317.0
5.12 314.0
5.135 316.0
5.15 326.0
5.165 308.0
5.18 302.0
5.195 326.0
5.21 313.0
5.225 323.0
5.24 355.0
5.255 332.0
5.27 327.0
5.285 310.0
5.3 316.0
5.315 323.0
5.33 317.0
5.345 291.0
5.36 306.0
5.375 284.0
5.39 304.0
5.405 311.0
5.42 290.0
5.435 329.0
5.45 327.0
5.465 301.0
5.48 284.0
5.495 322.0
5.51 336.0
5.525 337.0
5.54 313.0
5.555 321.0
5.57 332.0
5.585 328.0
5.6 315.0
5.615 302.0
5.63 313.0
5.645 325.0
5.66 335.0
5.675 315.0
5.69 327.0
5.705 310.0
5.72 324.0
5.735 317.0
5.75 314.0
5.765 337.0
5.78 362.0
5.795 323.0
5.81 333.0
5.825 334.0
5.84 319.0
5.855 321.0
5.87 316.0
5.885 323.0
5.9 332.0
5.915 334.0
5.93 343.0
5.945 330.0
5.96 348.0
5.975 349.0
5.99 337.0
6.005 309.0
6.02 307.0
6.035 347.0
6.05 363.0
6.065 336.0
6.08 347.0
6.095 341.0
6.11 332.0
6.125 330.0
6.14 331.0
6.155 334.0
6.17 372.0
6.185 347.0
6.2 344.0
6.215 358.0
6.23 367.0
6.245 341.0
6.26 350.0
6.275 347.0
6.29 334.0
6.305 343.0
6.32 343.0
6.335 327.0
6.35 352.0
6.365 332.0
6.38 340.0
6.395 327.0
6.41 347.0
6.425 327.0
6.44 327.0
6.455 365.0
6.47 346.0
6.485 332.0
6.5 324.0
6.515 327.0
6.53 328.0
6.545 354.0
6.56 356.0
6.575 323.0
6.59 313.0
6.605 316.0
6.62 338.0
6.635 309.0
6.65 348.0
6.665 317.0
6.68 328.0
6.695 352.0
6.71 335.0
6.725 334.0
6.74 363.0
6.755 331.0
6.77 316.0
6.785 335.0
6.8 304.0
6.815 306.0
6.83 320.0
6.845 313.0
6.86 354.0
6.875 337.0
6.89 331.0
6.905 339.0
6.92 324.0
6.935 332.0
6.95 327.0
6.965 337.0
6.98 327.0
6.995 327.0
7.01 317.0
7.025 296.0
7.04 318.0
7.055 338.0
7.07 357.0
7.085 336.0
7.1 312.0
7.115 304.0
7.13 318.0
7.145 329.0
7.16 342.0
7.175 320.0
7.19 312.0
7.205 332.0
7.22 335.0
7.235 330.0
7.25 314.0
7.265 332.0
7.28 330.0
7.295 316.0
7.31 329.0
7.325 322.0
7.34 329.0
7.355 358.0
7.37 304.0
7.385 325.0
7.4 341.0
7.415 313.0
7.43 340.0
7.445 347.0
7.46 323.0
7.475 330.0
7.49 338.0
7.505 329.0
7.52 322.0
7.535 323.0
7.55 315.0
7.565 326.0
7.58 323.0
7.595 335.0
7.61 328.0
7.625 297.0
7.64 299.0
7.655 312.0
7.67 301.0
7.685 319.0
7.7 311.0
7.715 314.0
7.73 321.0
7.745 314.0
7.76 330.0
7.775 326.0
7.79 353.0
7.805 328.0
7.82 320.0
7.835 302.0
7.85 314.0
7.865 341.0
7.88 309.0
7.895 296.0
7.91 300.0
7.925 345.0
7.94 315.0
7.955 307.0
7.97 298.0
7.985 321.0
8.0 336.0
8.015 333.0
8.03 324.0
8.045 340.0
8.06 331.0
8.075 333.0
8.09 310.0
8.105 312.0
8.12 304.0
8.135 317.0
8.15 333.0
8.165 340.0
8.18 323.0
8.195 338.0
8.21 317.0
8.225 302.0
8.24 332.0
8.255 321.0
8.27 339.0
8.285 317.0
8.3 311.0
8.315 317.0
8.33 312.0
8.345 326.0
8.36 345.0
8.375 331.0
8.39 359.0
8.405 349.0
8.42 338.0
8.435 340.0
8.45 308.0
8.465 309.0
8.48 332.0
8.495 313.0
8.51 310.0
8.525 343.0
8.54 341.0
8.555 340.0
8.57 355.0
8.585 357.0
8.6 334.0
8.615 330.0
8.63 310.0
8.645 309.0
8.66 333.0
8.675 323.0
8.69 321.0
8.705 311.0
8.72 334.0
8.735 345.0
8.75 330.0
8.765 310.0
8.78 322.0
8.795 332.0
8.81 311.0
8.825 325.0
8.84 300.0
8.855 331.0
8.87 328.0
8.885 334.0
8.9 315.0
8.915 302.0
8.93 300.0
8.945 315.0
8.96 322.0
8.975 356.0
8.99 355.0
9.005 339.0
9.02 318.0
9.035 333.0
9.05 330.0
9.065 328.0
9.08 329.0
9.095 314.0
9.11 324.0
9.125 336.0
9.14 332.0
9.155 337.0
9.17 312.0
9.185 329.0
9.2 329.0
9.215 336.0
9.23 327.0
9.245 338.0
9.26 343.0
9.275 333.0
9.29 340.0
9.305 323.0
9.32 323.0
9.335 341.0
9.35 354.0
9.365 309.0
9.38 319.0
9.395 324.0
9.41 342.0
9.425 348.0
9.44 319.0
9.455 314.0
9.47 325.0
9.485 325.0
9.5 326.0
9.515 340.0
9.53 350.0
9.545 329.0
9.56 342.0
9.575 332.0
9.59 349.0
9.605 320.0
9.62 321.0
9.635 337.0
9.65 336.0
9.665 358.0
9.68 339.0
9.695 353.0
9.71 320.0
9.725 348.0
9.74 351.0
9.755 348.0
9.77 343.0
9.785 324.0
9.8 311.0
9.815 338.0
9.83 353.0
9.845 348.0
9.86 349.0
9.875 350.0
9.89 356.0
9.905 359.0
9.92 341.0
9.935 323.0
9.95 301.0
9.965 350.0
9.98 336.0
9.995 318.0
10.01 333.0
10.025 358.0
10.04 335.0
10.055 343.0
10.07 351.0
10.085 313.0
10.1 336.0
10.115 356.0
10.13 356.0
10.145 316.0
10.16 365.0
10.175 369.0
10.19 374.0
10.205 363.0
10.22 368.0
10.235 363.0
10.25 371.0
10.265 367.0
10.28 370.0
10.295 347.0
10.31 352.0
10.325 329.0
10.34 325.0
10.355 339.0
10.37 356.0
10.385 349.0
10.4 331.0
10.415 336.0
10.43 365.0
10.445 358.0
10.46 350.0
10.475 359.0
10.49 333.0
10.505 352.0
10.52 347.0
10.535 360.0
10.55 340.0
10.565 338.0
10.58 354.0
10.595 353.0
10.61 367.0
10.625 376.0
10.64 358.0
10.655 334.0
10.67 358.0
10.685 360.0
10.7 366.0
10.715 354.0
10.73 386.0
10.745 359.0
10.76 365.0
10.775 345.0
10.79 351.0
10.805 352.0
10.82 360.0
10.835 339.0
10.85 343.0
10.865 362.0
10.88 353.0
10.895 366.0
10.91 349.0
10.925 364.0
10.94 396.0
10.955 383.0
10.97 356.0
10.985 371.0
11.0 339.0
11.015 370.0
11.03 342.0
11.045 353.0
11.06 354.0
11.075 345.0
11.09 328.0
11.105 343.0
11.12 366.0
11.135 336.0
11.15 320.0
11.165 321.0
11.18 331.0
11.195 310.0
11.21 310.0
11.225 318.0
11.24 311.0
11.255 301.0
11.27 317.0
11.285 332.0
11.3 356.0
11.315 362.0
11.33 357.0
11.345 337.0
11.36 315.0
11.375 339.0
11.39 344.0
11.405 333.0
11.42 337.0
11.435 308.0
11.45 306.0
11.465 316.0
11.48 344.0
11.495 332.0
11.51 317.0
11.525 338.0
11.54 339.0
11.555 334.0
11.57 340.0
11.585 350.0
11.6 311.0
11.615 318.0
11.63 309.0
11.645 335.0
11.66 302.0
11.675 322.0
11.69 332.0
11.705 312.0
11.72 350.0
11.735 343.0
11.75 313.0
11.765 318.0
11.78 341.0
11.795 373.0
11.81 364.0
11.825 375.0
11.84 357.0
11.855 373.0
11.87 394.0
11.885 411.0
11.9 446.0
11.915 468.0
11.93 500.0
11.945 543.0
11.96 643.0
11.975 693.0
11.99 764.0
12.005 892.0
12.02 1060.0
12.035 1331.0
12.05 1481.0
12.065 1325.0
12.08 969.0
12.095 640.0
12.11 510.0
12.125 450.0
12.14 427.0
12.155 427.0
12.17 396.0
12.185 389.0
12.2 378.0
12.215 341.0
12.23 382.0
12.245 379.0
12.26 391.0
12.275 381.0
12.29 371.0
12.305 406.0
12.32 373.0
12.335 356.0
12.35 372.0
12.365 358.0
12.38 367.0
12.395 348.0
12.41 350.0
12.425 347.0
12.44 335.0
12.455 348.0
12.47 374.0
12.485 359.0
12.5 324.0
12.515 357.0
12.53 336.0
12.545 375.0
12.56 347.0
12.575 317.0
12.59 324.0
12.605 329.0
12.62 335.0
12.635 348.0
12.65 335.0
12.665 364.0
12.68 356.0
12.695 353.0
12.71 340.0
12.725 352.0
12.74 350.0
12.755 322.0
12.77 338.0
12.785 355.0
12.8 358.0
12.815 351.0
12.83 316.0
12.845 315.0
12.86 347.0
12.875 334.0
12.89 353.0
12.905 325.0
12.92 339.0
12.935 343.0
12.95 320.0
12.965 337.0
12.98 297.0
12.995 350.0
13.01 346.0
13.025 360.0
13.04 312.0
13.055 347.0
13.07 337.0
13.085 338.0
13.1 326.0
13.115 324.0
13.13 338.0
13.145 350.0
13.16 335.0
13.175 342.0
13.19 353.0
13.205 367.0
13.22 329.0
13.235 280.0
13.25 315.0
13.265 329.0
13.28 335.0
13.295 335.0
13.31 314.0
13.325 323.0
13.34 347.0
13.355 341.0
13.37 350.0
13.385 349.0
13.4 359.0
13.415 354.0
13.43 325.0
13.445 313.0
13.46 311.0
13.475 341.0
13.49 341.0
13.505 336.0
13.52 316.0
13.535 328.0
13.55 328.0
13.565 344.0
13.58 316.0
13.595 324.0
13.61 328.0
13.625 348.0
13.64 327.0
13.655 356.0
13.67 352.0
13.685 327.0
13.7 329.0
13.715 324.0
13.73 332.0
13.745 334.0
13.76 299.0
13.775 340.0
13.79 344.0
13.805 314.0
13.82 328.0
13.835 367.0
13.85 332.0
13.865 346.0
13.88 369.0
13.895 334.0
13.91 347.0
13.925 326.0
13.94 333.0
13.955 332.0
13.97 325.0
13.985 333.0
14.0 325.0
14.015 325.0
14.03 313.0
14.045 304.0
14.06 365.0
14.075 327.0
14.09 323.0
14.105 327.0
14.12 327.0
14.135 357.0
14.15 342.0
14.165 340.0
14.18 360.0
14.195 355.0
14.21 348.0
14.225 352.0
14.24 336.0
14.255 333.0
14.27 321.0
14.285 330.0
14.3 321.0
14.315 328.0
14.33 300.0
14.345 332.0
14.36 356.0
14.375 324.0
14.39 351.0
14.405 347.0
14.42 337.0
14.435 347.0
14.45 341.0
14.465 338.0
14.48 322.0
14.495 347.0
14.51 363.0
14.525 346.0
14.54 352.0
14.555 334.0
14.57 311.0
14.585 321.0
14.6 336.0
14.615 346.0
14.63 353.0
14.645 352.0
14.66 331.0
14.675 345.0
14.69 355.0
14.705 348.0
14.72 337.0
14.735 346.0
14.75 337.0
14.765 326.0
14.78 339.0
14.795 349.0
14.81 355.0
14.825 333.0
14.84 370.0
14.855 337.0
14.87 345.0
14.885 344.0
14.9 345.0
14.915 334.0
14.93 338.0
14.945 333.0
14.96 365.0
14.975 338.0
14.99 339.0
15.005 348.0
15.02 360.0
15.035 344.0
15.05 328.0
15.065 329.0
15.08 338.0
15.095 343.0
15.11 312.0
15.125 357.0
15.14 335.0
15.155 360.0
15.17 360.0
15.185 345.0
15.2 347.0
15.215 364.0
15.23 330.0
15.245 325.0
15.26 305.0
15.275 336.0
15.29 355.0
15.305 374.0
15.32 348.0
15.335 364.0
15.35 383.0
15.365 341.0
15.38 343.0
15.395 340.0
15.41 343.0
15.425 353.0
15.44 359.0
15.455 333.0
15.47 326.0
15.485 343.0
15.5 341.0
15.515 331.0
15.53 333.0
15.545 349.0
15.56 362.0
15.575 369.0
15.59 348.0
15.605 355.0
15.62 349.0
15.635 335.0
15.65 335.0
15.665 343.0
15.68 349.0
15.695 348.0
15.71 359.0
15.725 343.0
15.74 339.0
15.755 371.0
15.77 358.0
15.785 350.0
15.8 356.0
15.815 356.0
15.83 332.0
15.845 344.0
15.86 361.0
15.875 355.0
15.89 347.0
15.905 362.0
15.92 355.0
15.935 377.0
15.95 356.0
15.965 350.0
15.98 344.0
15.995 371.0
16.01 391.0
16.025 357.0
16.04 336.0
16.055 363.0
16.07 372.0
16.085 335.0
16.1 370.0
16.115 380.0
16.13 349.0
16.145 357.0
16.16 346.0
16.175 344.0
16.19 362.0
16.205 314.0
16.22 347.0
16.235 333.0
16.25 347.0
16.265 374.0
16.28 351.0
16.295 353.0
16.31 346.0
16.325 344.0
16.34 358.0
16.355 361.0
16.37 363.0
16.385 381.0
16.4 366.0
16.415 356.0
16.43 370.0
16.445 364.0
16.46 365.0
16.475 361.0
16.49 365.0
16.505 361.0
16.52 393.0
16.535 382.0
16.55 362.0
16.565 381.0
16.58 347.0
16.595 354.0
16.61 363.0
16.625 359.0
16.64 368.0
16.655 331.0
16.67 370.0
16.685 330.0
16.7 354.0
16.715 398.0
16.73 363.0
16.745 391.0
16.76 389.0
16.775 378.0
16.79 352.0
16.805 367.0
16.82 352.0
16.835 366.0
16.85 354.0
16.865 352.0
16.88 366.0
16.895 347.0
16.91 363.0
16.925 344.0
16.94 354.0
16.955 370.0
16.97 354.0
16.985 345.0
17.0 336.0
17.015 377.0
17.03 351.0
17.045 399.0
17.06 380.0
17.075 362.0
17.09 354.0
17.105 366.0
17.12 357.0
17.135 361.0
17.15 382.0
17.165 377.0
17.18 371.0
17.195 391.0
17.21 365.0
17.225 394.0
17.24 382.0
17.255 372.0
17.27 354.0
17.285 402.0
17.3 377.0
17.315 390.0
17.33 392.0
17.345 351.0
17.36 358.0
17.375 356.0
17.39 366.0
17.405 359.0
17.42 341.0
17.435 379.0
17.45 338.0
17.465 374.0
17.48 358.0
17.495 402.0
17.51 376.0
17.525 370.0
17.54 384.0
17.555 382.0
17.57 377.0
17.585 385.0
17.6 386.0
17.615 379.0
17.63 383.0
17.645 369.0
17.66 373.0
17.675 375.0
17.69 379.0
17.705 406.0
17.72 400.0
17.735 385.0
17.75 392.0
17.765 377.0
17.78 357.0
17.795 373.0
17.81 400.0
17.825 392.0
17.84 406.0
17.855 400.0
17.87 419.0
17.885 394.0
17.9 408.0
17.915 395.0
17.93 405.0
17.945 396.0
17.96 376.0
17.975 401.0
17.99 378.0
18.005 393.0
18.02 386.0
18.035 414.0
18.05 397.0
18.065 383.0
18.08 368.0
18.095 362.0
18.11 398.0
18.125 398.0
18.14 384.0
18.155 388.0
18.17 364.0
18.185 375.0
18.2 413.0
18.215 415.0
18.23 384.0
18.245 402.0
18.26 413.0
18.275 354.0
18.29 400.0
18.305 413.0
18.32 402.0
18.335 408.0
18.35 411.0
18.365 415.0
18.38 409.0
18.395 398.0
18.41 376.0
18.425 380.0
18.44 406.0
18.455 419.0
18.47 399.0
18.485 419.0
18.5 409.0
18.515 388.0
18.53 421.0
18.545 400.0
18.56 385.0
18.575 398.0
18.59 391.0
18.605 369.0
18.62 393.0
18.635 400.0
18.65 388.0
18.665 414.0
18.68 425.0
18.695 443.0
18.71 438.0
18.725 401.0
18.74 408.0
18.755 424.0
18.77 410.0
18.785 419.0
18.8 435.0
18.815 448.0
18.83 420.0
18.845 391.0
18.86 429.0
18.875 435.0
18.89 411.0
18.905 411.0
18.92 410.0
18.935 416.0
18.95 415.0
18.965 404.0
18.98 412.0
18.995 453.0
19.01 433.0
19.025 404.0
19.04 441.0
19.055 449.0
19.07 447.0
19.085 465.0
19.1 422.0
19.115 417.0
19.13 388.0
19.145 402.0
19.16 413.0
19.175 422.0
19.19 438.0
19.205 439.0
19.22 416.0
19.235 424.0
19.25 421.0
19.265 400.0
19.28 398.0
19.295 429.0
19.31 414.0
19.325 416.0
19.34 397.0
19.355 426.0
19.37 426.0
19.385 413.0
19.4 422.0
19.415 406.0
19.43 391.0
19.445 415.0
19.46 385.0
19.475 401.0
19.49 399.0
19.505 427.0
19.52 425.0
19.535 445.0
19.55 416.0
19.565 410.0
19.58 415.0
19.595 392.0
19.61 411.0
19.625 441.0
19.64 401.0
19.655 442.0
19.67 421.0
19.685 398.0
19.7 393.0
19.715 433.0
19.73 432.0
19.745 417.0
19.76 430.0
19.775 421.0
19.79 421.0
19.805 408.0
19.82 410.0
19.835 428.0
19.85 401.0
19.865 391.0
19.88 424.0
19.895 432.0
19.91 430.0
19.925 429.0
19.94 424.0
19.955 437.0
19.97 440.0
19.985 436.0
20.0 436.0
20.015 432.0
20.03 437.0
20.045 427.0
20.06 422.0
20.075 409.0
20.09 424.0
20.105 427.0
20.12 417.0
20.135 422.0
20.15 424.0
20.165 396.0
20.18 414.0
20.195 442.0
20.21 433.0
20.225 413.0
20.24 447.0
20.255 418.0
20.27 419.0
20.285 448.0
20.3 419.0
20.315 413.0
20.33 424.0
20.345 429.0
20.36 427.0
20.375 414.0
20.39 414.0
20.405 424.0
20.42 457.0
20.435 432.0
20.45 408.0
20.465 418.0
20.48 435.0
20.495 470.0
20.51 484.0
20.525 441.0
20.54 433.0
20.555 447.0
20.57 490.0
20.585 454.0
20.6 454.0
20.615 493.0
20.63 434.0
20.645 435.0
20.66 448.0
20.675 511.0
20.69 502.0
20.705 505.0
20.72 501.0
20.735 528.0
20.75 565.0
20.765 642.0
20.78 700.0
20.795 797.0
20.81 937.0
20.825 1136.0
20.84 1448.0
20.855 1854.0
20.87 2393.0
20.885 3324.0
20.9 4593.0
20.915 5991.0
20.93 7443.0
20.945 7784.0
20.96 6683.0
20.975 4765.0
20.99 2942.0
21.005 1687.0
21.02 1126.0
21.035 874.0
21.05 733.0
21.065 634.0
21.08 576.0
21.095 532.0
21.11 546.0
21.125 516.0
21.14 504.0
21.155 473.0
21.17 474.0
21.185 439.0
21.2 458.0
21.215 461.0
21.23 494.0
21.245 474.0
21.26 447.0
21.275 482.0
21.29 472.0
21.305 457.0
21.32 457.0
21.335 430.0
21.35 465.0
21.365 430.0
21.38 415.0
21.395 468.0
21.41 493.0
21.425 475.0
21.44 486.0
21.455 488.0
21.47 461.0
21.485 488.0
21.5 478.0
21.515 448.0
21.53 458.0
21.545 443.0
21.56 481.0
21.575 480.0
21.59 477.0
21.605 481.0
21.62 466.0
21.635 479.0
21.65 469.0
21.665 470.0
21.68 465.0
21.695 457.0
21.71 462.0
21.725 438.0
21.74 449.0
21.755 466.0
21.77 466.0
21.785 493.0
21.8 473.0
21.815 469.0
21.83 496.0
21.845 491.0
21.86 480.0
21.875 462.0
21.89 482.0
21.905 435.0
21.92 482.0
21.935 483.0
21.95 476.0
21.965 444.0
21.98 475.0
21.995 492.0
22.01 477.0
22.025 457.0
22.04 471.0
22.055 522.0
22.07 478.0
22.085 463.0
22.1 437.0
22.115 476.0
22.13 498.0
22.145 447.0
22.16 462.0
22.175 476.0
22.19 472.0
22.205 468.0
22.22 481.0
22.235 465.0
22.25 448.0
22.265 457.0
22.28 475.0
22.295 469.0
22.31 495.0
22.325 455.0
22.34 458.0
22.355 432.0
22.37 435.0
22.385 456.0
22.4 473.0
22.415 481.0
22.43 487.0
22.445 451.0
22.46 495.0
22.475 470.0
22.49 460.0
22.505 469.0
22.52 467.0
22.535 490.0
22.55 489.0
22.565 481.0
22.58 464.0
22.595 469.0
22.61 463.0
22.625 456.0
22.64 465.0
22.655 492.0
22.67 504.0
22.685 482.0
22.7 472.0
22.715 476.0
22.73 500.0
22.745 480.0
22.76 419.0
22.775 463.0
22.79 463.0
22.805 464.0
22.82 503.0
22.835 496.0
22.85 470.0
22.865 418.0
22.88 472.0
22.895 455.0
22.91 493.0
22.925 478.0
22.94 487.0
22.955 479.0
22.97 466.0
22.985 499.0
23.0 464.0
23.015 482.0
23.03 480.0
23.045 517.0
23.06 489.0
23.075 502.0
23.09 504.0
23.105 459.0
23.12 532.0
23.135 489.0
23.15 505.0
23.165 509.0
23.18 499.0
23.195 465.0
23.21 457.0
23.225 489.0
23.24 497.0
23.255 477.0
23.27 508.0
23.285 493.0
23.3 468.0
23.315 472.0
23.33 476.0
23.345 485.0
23.36 473.0
23.375 496.0
23.39 486.0
23.405 488.0
23.42 487.0
23.435 481.0
23.45 502.0
23.465 471.0
23.48 499.0
23.495 491.0
23.51 493.0
23.525 492.0
23.54 508.0
23.555 491.0
23.57 495.0
23.585 507.0
23.6 509.0
23.615 445.0
23.63 463.0
23.645 514.0
23.66 498.0
23.675 521.0
23.69 486.0
23.705 460.0
23.72 458.0
23.735 501.0
23.75 484.0
23.765 467.0
23.78 468.0
23.795 499.0
23.81 448.0
23.825 461.0
23.84 520.0
23.855 543.0
23.87 463.0
23.885 493.0
23.9 513.0
23.915 508.0
23.93 494.0
23.945 507.0
23.96 504.0
23.975 503.0
23.99 538.0
24.005 523.0
24.02 597.0
24.035 604.0
24.05 600.0
24.065 629.0
24.08 703.0
24.095 801.0
24.11 888.0
24.125 1032.0
24.14 1246.0
24.155 1602.0
24.17 2110.0
24.185 2868.0
24.2 3637.0
24.215 4401.0
24.23 4486.0
24.245 3927.0
24.26 2973.0
24.275 2015.0
24.29 1333.0
24.305 980.0
24.32 831.0
24.335 753.0
24.35 752.0
24.365 746.0
24.38 742.0
24.395 766.0
24.41 817.0
24.425 802.0
24.44 806.0
24.455 833.0
24.47 844.0
24.485 833.0
24.5 781.0
24.515 759.0
24.53 733.0
24.545 704.0
24.56 659.0
24.575 647.0
24.59 621.0
24.605 640.0
24.62 606.0
24.635 610.0
24.65 623.0
24.665 565.0
24.68 604.0
24.695 603.0
24.71 556.0
24.725 557.0
24.74 564.0
24.755 585.0
24.77 560.0
24.785 527.0
24.8 564.0
24.815 551.0
24.83 582.0
24.845 570.0
24.86 579.0
24.875 589.0
24.89 579.0
24.905 593.0
24.92 600.0
24.935 574.0
24.95 588.0
24.965 606.0
24.98 626.0
24.995 669.0
25.01 743.0
25.025 799.0
25.04 831.0
25.055 902.0
25.07 952.0
25.085 1100.0
25.1 1247.0
25.115 1394.0
25.13 1632.0
25.145 1884.0
25.16 2067.0
25.175 2092.0
25.19 2145.0
25.205 1970.0
25.22 1814.0
25.235 1673.0
25.25 1441.0
25.265 1236.0
25.28 1127.0
25.295 959.0
25.31 920.0
25.325 872.0
25.34 792.0
25.355 740.0
25.37 659.0
25.385 732.0
25.4 700.0
25.415 696.0
25.43 672.0
25.445 653.0
25.46 669.0
25.475 659.0
25.49 655.0
25.505 638.0
25.52 640.0
25.535 650.0
25.55 631.0
25.565 627.0
25.58 662.0
25.595 655.0
25.61 622.0
25.625 608.0
25.64 613.0
25.655 631.0
25.67 607.0
25.685 592.0
25.7 588.0
25.715 568.0
25.73 594.0
25.745 606.0
25.76 606.0
25.775 601.0
25.79 582.0
25.805 586.0
25.82 568.0
25.835 614.0
25.85 586.0
25.865 559.0
25.88 601.0
25.895 580.0
25.91 607.0
25.925 588.0
25.94 552.0
25.955 566.0
25.97 600.0
25.985 589.0
26.0 595.0
26.015 638.0
26.03 579.0
26.045 580.0
26.06 588.0
26.075 594.0
26.09 612.0
26.105 625.0
26.12 630.0
26.135 620.0
26.15 647.0
26.165 581.0
26.18 583.0
26.195 624.0
26.21 623.0
26.225 642.0
26.24 633.0
26.255 605.0
26.27 625.0
26.285 627.0
26.3 639.0
26.315 588.0
26.33 625.0
26.345 616.0
26.36 610.0
26.375 653.0
26.39 658.0
26.405 651.0
26.42 618.0
26.435 625.0
26.45 620.0
26.465 595.0
26.48 625.0
26.495 623.0
26.51 629.0
26.525 662.0
26.54 648.0
26.555 615.0
26.57 646.0
26.585 629.0
26.6 654.0
26.615 652.0
26.63 653.0
26.645 669.0
26.66 643.0
26.675 645.0
26.69 645.0
26.705 673.0
26.72 645.0
26.735 651.0
26.75 640.0
26.765 681.0
26.78 688.0
26.795 688.0
26.81 710.0
26.825 700.0
26.84 731.0
26.855 658.0
26.87 674.0
26.885 692.0
26.9 714.0
26.915 682.0
26.93 673.0
26.945 704.0
26.96 690.0
26.975 664.0
26.99 692.0
27.005 708.0
27.02 740.0
27.035 703.0
27.05 723.0
27.065 715.0
27.08 716.0
27.095 699.0
27.11 740.0
27.125 697.0
27.14 685.0
27.155 735.0
27.17 739.0
27.185 727.0
27.2 741.0
27.215 735.0
27.23 701.0
27.245 668.0
27.26 734.0
27.275 717.0
27.29 727.0
27.305 708.0
27.32 749.0
27.335 781.0
27.35 758.0
27.365 762.0
27.38 763.0
27.395 809.0
27.41 783.0
27.425 817.0
27.44 801.0
27.455 760.0
27.47 759.0
27.485 802.0
27.5 817.0
27.515 896.0
27.53 914.0
27.545 882.0
27.56 863.0
27.575 871.0
27.59 882.0
27.605 892.0
27.62 886.0
27.635 970.0
27.65 943.0
27.665 1064.0
27.68 1038.0
27.695 1057.0
27.71 1134.0
27.725 1240.0
27.74 1298.0
27.755 1379.0
27.77 1462.0
27.785 1594.0
27.8 1754.0
27.815 1914.0
27.83 2035.0
27.845 2338.0
27.86 2582.0
27.875 2815.0
27.89 3272.0
27.905 3619.0
27.92 3928.0
27.935 4301.0
27.95 4781.0
27.965 5128.0
27.98 5395.0
27.995 5497.0
28.01 5605.0
28.025 5429.0
28.04 4998.0
28.055 4613.0
28.07 4063.0
28.085 3656.0
28.1 3262.0
28.115 2890.0
28.13 2515.0
28.145 2172.0
28.16 1976.0
28.175 1778.0
28.19 1590.0
28.205 1525.0
28.22 1445.0
28.235 1269.0
28.25 1180.0
28.265 1120.0
28.28 1097.0
28.295 1033.0
28.31 998.0
28.325 940.0
28.34 928.0
28.355 916.0
28.37 828.0
28.385 794.0
28.4 804.0
28.415 824.0
28.43 744.0
28.445 717.0
28.46 731.0
28.475 733.0
28.49 678.0
28.505 647.0
28.52 649.0
28.535 646.0
28.55 604.0
28.565 624.0
28.58 641.0
28.595 597.0
28.61 579.0
28.625 639.0
28.64 604.0
28.655 550.0
28.67 599.0
28.685 580.0
28.7 554.0
28.715 586.0
28.73 590.0
28.745 591.0
28.76 601.0
28.775 576.0
28.79 553.0
28.805 569.0
28.82 565.0
28.835 533.0
28.85 543.0
28.865 527.0
28.88 502.0
28.895 529.0
28.91 546.0
28.925 538.0
28.94 541.0
28.955 512.0
28.97 520.0
28.985 502.0
29.0 488.0
29.015 536.0
29.03 547.0
29.045 501.0
29.06 514.0
29.075 484.0
29.09 492.0
29.105 503.0
29.12 494.0
29.135 484.0
29.15 506.0
29.165 506.0
29.18 522.0
29.195 463.0
29.21 484.0
29.225 474.0
29.24 470.0
29.255 434.0
29.27 466.0
29.285 455.0
29.3 477.0
29.315 489.0
29.33 456.0
29.345 462.0
29.36 483.0
29.375 495.0
29.39 506.0
29.405 490.0
29.42 474.0
29.435 468.0
29.45 479.0
29.465 450.0
29.48 457.0
29.495 436.0
29.51 474.0
29.525 457.0
29.54 476.0
29.555 466.0
29.57 454.0
29.585 461.0
29.6 468.0
29.615 500.0
29.63 461.0
29.645 485.0
29.66 471.0
29.675 453.0
29.69 470.0
29.705 436.0
29.72 454.0
29.735 434.0
29.75 422.0
29.765 433.0
29.78 421.0
29.795 437.0
29.81 468.0
29.825 410.0
29.84 426.0
29.855 434.0
29.87 433.0
29.885 422.0
29.9 419.0
29.915 421.0
29.93 454.0
29.945 452.0
29.96 439.0
29.975 417.0
29.99 422.0
30.005 430.0
30.02 429.0
30.035 412.0
30.05 390.0
30.065 381.0
30.08 413.0
30.095 400.0
30.11 388.0
30.125 426.0
30.14 385.0
30.155 412.0
30.17 376.0
30.185 409.0
30.2 413.0
30.215 428.0
30.23 395.0
30.245 422.0
30.26 417.0
30.275 424.0
30.29 423.0
30.305 480.0
30.32 438.0
30.335 434.0
30.35 434.0
30.365 398.0
30.38 405.0
30.395 418.0
30.41 394.0
30.425 402.0
30.44 422.0
30.455 393.0
30.47 403.0
30.485 390.0
30.5 385.0
30.515 406.0
30.53 393.0
30.545 412.0
30.56 435.0
30.575 419.0
30.59 388.0
30.605 407.0
30.62 377.0
30.635 413.0
30.65 409.0
30.665 421.0
30.68 404.0
30.695 408.0
30.71 381.0
30.725 386.0
30.74 399.0
30.755 408.0
30.77 395.0
30.785 390.0
30.8 391.0
30.815 387.0
30.83 369.0
30.845 378.0
30.86 388.0
30.875 375.0
30.89 368.0
30.905 389.0
30.92 375.0
30.935 388.0
30.95 374.0
30.965 384.0
30.98 375.0
30.995 413.0
31.01 413.0
31.025 385.0
31.04 400.0
31.055 380.0
31.07 372.0
31.085 380.0
31.1 385.0
31.115 381.0
31.13 401.0
31.145 385.0
31.16 383.0
31.175 398.0
31.19 373.0
31.205 376.0
31.22 395.0
31.235 367.0
31.25 383.0
31.265 387.0
31.28 398.0
31.295 363.0
31.31 376.0
31.325 374.0
31.34 393.0
31.355 405.0
31.37 373.0
31.385 367.0
31.4 368.0
31.415 371.0
31.43 387.0
31.445 406.0
31.46 377.0
31.475 401.0
31.49 392.0
31.505 361.0
31.52 376.0
31.535 397.0
31.55 356.0
31.565 391.0
31.58 361.0
31.595 376.0
31.61 394.0
31.625 364.0
31.64 367.0
31.655 344.0
31.67 346.0
31.685 357.0
31.7 382.0
31.715 407.0
31.73 386.0
31.745 379.0
31.76 369.0
31.775 400.0
31.79 392.0
31.805 366.0
31.82 366.0
31.835 378.0
31.85 376.0
31.865 400.0
31.88 370.0
31.895 389.0
31.91 369.0
31.925 401.0
31.94 392.0
31.955 392.0
31.97 417.0
31.985 422.0
32.0 406.0
32.015 457.0
32.03 466.0
32.045 474.0
32.06 506.0
32.075 575.0
32.09 664.0
32.105 746.0
32.12 936.0
32.135 1203.0
32.15 1595.0
32.165 2154.0
32.18 2904.0
32.195 3723.0
32.21 4508.0
32.225 5171.0
32.24 5052.0
32.255 4278.0
32.27 3182.0
32.285 2264.0
32.3 1459.0
32.315 1035.0
32.33 810.0
32.345 675.0
32.36 604.0
32.375 529.0
32.39 497.0
32.405 501.0
32.42 459.0
32.435 439.0
32.45 442.0
32.465 433.0
32.48 406.0
32.495 426.0
32.51 423.0
32.525 411.0
32.54 426.0
32.555 415.0
32.57 392.0
32.585 418.0
32.6 450.0
32.615 442.0
32.63 435.0
32.645 421.0
32.66 466.0
32.675 420.0
32.69 430.0
32.705 435.0
32.72 492.0
32.735 508.0
32.75 494.0
32.765 522.0
32.78 587.0
32.795 641.0
32.81 596.0
32.825 619.0
32.84 665.0
32.855 694.0
32.87 791.0
32.885 826.0
32.9 825.0
32.915 874.0
32.93 962.0
32.945 1001.0
32.96 991.0
32.975 1007.0
32.99 990.0
33.005 941.0
33.02 874.0
33.035 876.0
33.05 819.0
33.065 738.0
33.08 707.0
33.095 643.0
33.11 608.0
33.125 599.0
33.14 550.0
33.155 539.0
33.17 501.0
33.185 509.0
33.2 475.0
33.215 486.0
33.23 425.0
33.245 457.0
33.26 422.0
33.275 414.0
33.29 408.0
33.305 401.0
33.32 375.0
33.335 371.0
33.35 341.0
33.365 341.0
33.38 366.0
33.395 365.0
33.41 368.0
33.425 342.0
33.44 356.0
33.455 363.0
33.47 355.0
33.485 376.0
33.5 359.0
33.515 369.0
33.53 360.0
33.545 335.0
33.56 325.0
33.575 341.0
33.59 347.0
33.605 317.0
33.62 330.0
33.635 329.0
33.65 327.0
33.665 368.0
33.68 324.0
33.695 320.0
33.71 324.0
33.725 322.0
33.74 333.0
33.755 289.0
33.77 298.0
33.785 324.0
33.8 325.0
33.815 330.0
33.83 327.0
33.845 316.0
33.86 321.0
33.875 315.0
33.89 357.0
33.905 330.0
33.92 328.0
33.935 310.0
33.95 320.0
33.965 346.0
33.98 317.0
33.995 287.0
34.01 311.0
34.025 335.0
34.04 330.0
34.055 306.0
34.07 300.0
34.085 310.0
34.1 311.0
34.115 294.0
34.13 326.0
34.145 342.0
34.16 310.0
34.175 327.0
34.19 327.0
34.205 323.0
34.22 351.0
34.235 327.0
34.25 311.0
34.265 307.0
34.28 313.0
34.295 292.0
34.31 292.0
34.325 301.0
34.34 297.0
34.355 318.0
34.37 306.0
34.385 327.0
34.4 330.0
34.415 329.0
34.43 297.0
34.445 318.0
34.46 315.0
34.475 339.0
34.49 359.0
34.505 356.0
34.52 324.0
34.535 342.0
34.55 337.0
34.565 354.0
34.58 379.0
34.595 390.0
34.61 360.0
34.625 372.0
34.64 371.0
34.655 410.0
34.67 406.0
34.685 413.0
34.7 431.0
34.715 402.0
34.73 412.0
34.745 396.0
34.76 379.0
34.775 396.0
34.79 393.0
34.805 397.0
34.82 379.0
34.835 390.0
34.85 376.0
34.865 379.0
34.88 377.0
34.895 412.0
34.91 421.0
34.925 426.0
34.94 429.0
34.955 454.0
34.97 464.0
34.985 471.0
35.0 483.0
35.015 480.0
35.03 508.0
35.045 555.0
35.06 542.0
35.075 579.0
35.09 675.0
35.105 644.0
35.12 690.0
35.135 785.0
35.15 774.0
35.165 878.0
35.18 906.0
35.195 899.0
35.21 924.0
35.225 852.0
35.24 893.0
35.255 892.0
35.27 862.0
35.285 766.0
35.3 735.0
35.315 735.0
35.33 643.0
35.345 582.0
35.36 601.0
35.375 572.0
35.39 535.0
35.405 492.0
35.42 487.0
35.435 431.0
35.45 408.0
35.465 450.0
35.48 403.0
35.495 354.0
35.51 397.0
35.525 376.0
35.54 355.0
35.555 334.0
35.57 330.0
35.585 343.0
35.6 377.0
35.615 341.0
35.63 328.0
35.645 321.0
35.66 298.0
35.675 308.0
35.69 340.0
35.705 332.0
35.72 306.0
35.735 301.0
35.75 280.0
35.765 274.0
35.78 285.0
35.795 296.0
35.81 260.0
35.825 303.0
35.84 311.0
35.855 272.0
35.87 271.0
35.885 307.0
35.9 311.0
35.915 307.0
35.93 267.0
35.945 271.0
35.96 270.0
35.975 286.0
35.99 305.0
36.005 279.0
36.02 256.0
36.035 275.0
36.05 279.0
36.065 268.0
36.08 274.0
36.095 285.0
36.11 275.0
36.125 285.0
36.14 256.0
36.155 272.0
36.17 284.0
36.185 269.0
36.2 274.0
36.215 281.0
36.23 264.0
36.245 272.0
36.26 265.0
36.275 247.0
36.29 269.0
36.305 261.0
36.32 246.0
36.335 280.0
36.35 297.0
36.365 282.0
36.38 285.0
36.395 273.0
36.41 255.0
36.425 261.0
36.44 266.0
36.455 235.0
36.47 278.0
36.485 273.0
36.5 285.0
36.515 267.0
36.53 260.0
36.545 284.0
36.56 313.0
36.575 373.0
36.59 377.0
36.605 438.0
36.62 478.0
36.635 551.0
36.65 672.0
36.665 766.0
36.68 837.0
36.695 818.0
36.71 780.0
36.725 688.0
36.74 566.0
36.755 450.0
36.77 373.0
36.785 316.0
36.8 297.0
36.815 274.0
36.83 267.0
36.845 278.0
36.86 259.0
36.875 263.0
36.89 247.0
36.905 258.0
36.92 262.0
36.935 285.0
36.95 254.0
36.965 259.0
36.98 255.0
36.995 259.0
37.01 231.0
37.025 252.0
37.04 240.0
37.055 252.0
37.07 254.0
37.085 260.0
37.1 252.0
37.115 255.0
37.13 270.0
37.145 256.0
37.16 260.0
37.175 265.0
37.19 260.0
37.205 238.0
37.22 246.0
37.235 262.0
37.25 258.0
37.265 252.0
37.28 265.0
37.295 265.0
37.31 259.0
37.325 257.0
37.34 246.0
37.355 226.0
37.37 237.0
37.385 243.0
37.4 255.0
37.415 237.0
37.43 234.0
37.445 229.0
37.46 239.0
37.475 252.0
37.49 274.0
37.505 284.0
37.52 267.0
37.535 247.0
37.55 249.0
37.565 256.0
37.58 247.0
37.595 255.0
37.61 244.0
37.625 270.0
37.64 241.0
37.655 249.0
37.67 254.0
37.685 252.0
37.7 247.0
37.715 251.0
37.73 213.0
37.745 246.0
37.76 251.0
37.775 240.0
37.79 249.0
37.805 251.0
37.82 235.0
37.835 226.0
37.85 237.0
37.865 246.0
37.88 252.0
37.895 250.0
37.91 246.0
37.925 240.0
37.94 248.0
37.955 254.0
37.97 241.0
37.985 240.0
38.0 235.0
38.015 248.0
38.03 238.0
38.045 208.0
38.06 213.0
38.075 238.0
38.09 247.0
38.105 237.0
38.12 234.0
38.135 251.0
38.15 231.0
38.165 233.0
38.18 217.0
38.195 237.0
38.21 255.0
38.225 259.0
38.24 240.0
38.255 238.0
38.27 234.0
38.285 226.0
38.3 248.0
38.315 256.0
38.33 226.0
38.345 258.0
38.36 216.0
38.375 252.0
38.39 220.0
38.405 228.0
38.42 245.0
38.435 243.0
38.45 211.0
38.465 236.0
38.48 240.0
38.495 230.0
38.51 239.0
38.525 235.0
38.54 222.0
38.555 260.0
38.57 258.0
38.585 235.0
38.6 236.0
38.615 228.0
38.63 240.0
38.645 232.0
38.66 225.0
38.675 247.0
38.69 235.0
38.705 224.0
38.72 252.0
38.735 234.0
38.75 238.0
38.765 233.0
38.78 226.0
38.795 238.0
38.81 240.0
38.825 222.0
38.84 223.0
38.855 238.0
38.87 259.0
38.885 235.0
38.9 222.0
38.915 237.0
38.93 230.0
38.945 220.0
38.96 242.0
38.975 230.0
38.99 245.0
39.005 225.0
39.02 225.0
39.035 232.0
39.05 236.0
39.065 236.0
39.08 235.0
39.095 241.0
39.11 232.0
39.125 231.0
39.14 215.0
39.155 207.0
39.17 219.0
39.185 238.0
39.2 246.0
39.215 251.0
39.23 265.0
39.245 250.0
39.26 228.0
39.275 252.0
39.29 236.0
39.305 237.0
39.32 225.0
39.335 241.0
39.35 254.0
39.365 244.0
39.38 235.0
39.395 210.0
39.41 213.0
39.425 245.0
39.44 236.0
39.455 246.0
39.47 241.0
39.485 216.0
39.5 205.0
39.515 224.0
39.53 243.0
39.545 247.0
39.56 221.0
39.575 222.0
39.59 223.0
39.605 225.0
39.62 225.0
39.635 214.0
39.65 230.0
39.665 225.0
39.68 229.0
39.695 250.0
39.71 242.0
39.725 244.0
39.74 231.0
39.755 227.0
39.77 241.0
39.785 234.0
39.8 253.0
39.815 243.0
39.83 244.0
39.845 244.0
39.86 232.0
39.875 234.0
39.89 262.0
39.905 234.0
39.92 254.0
39.935 242.0
39.95 239.0
39.965 243.0
39.98 227.0
39.995 217.0
40.01 232.0
40.025 236.0
40.04 218.0
40.055 211.0
40.07 232.0
40.085 244.0
40.1 232.0
40.115 248.0
40.13 253.0
40.145 238.0
40.16 196.0
40.175 237.0
40.19 244.0
40.205 226.0
40.22 237.0
40.235 235.0
40.25 233.0
40.265 239.0
40.28 219.0
40.295 217.0
40.31 232.0
40.325 270.0
40.34 265.0
40.355 268.0
40.37 247.0
40.385 248.0
40.4 240.0
40.415 226.0
40.43 218.0
40.445 254.0
40.46 249.0
40.475 256.0
40.49 235.0
40.505 234.0
40.52 239.0
40.535 239.0
40.55 219.0
40.565 240.0
40.58 256.0
40.595 243.0
40.61 251.0
40.625 237.0
40.64 247.0
40.655 254.0
40.67 239.0
40.685 247.0
40.7 236.0
40.715 244.0
40.73 262.0
40.745 250.0
40.76 230.0
40.775 252.0
40.79 243.0
40.805 246.0
40.82 254.0
40.835 267.0
40.85 251.0
40.865 241.0
40.88 254.0
40.895 278.0
40.91 266.0
40.925 262.0
40.94 296.0
40.955 315.0
40.97 297.0
40.985 311.0
41.0 308.0
41.015 303.0
41.03 319.0
41.045 333.0
41.06 336.0
41.075 330.0
41.09 359.0
41.105 385.0
41.12 411.0
41.135 426.0
41.15 429.0
41.165 428.0
41.18 462.0
41.195 470.0
41.21 514.0
41.225 509.0
41.24 536.0
41.255 584.0
41.27 559.0
41.285 610.0
41.3 649.0
41.315 673.0
41.33 660.0
41.345 660.0
41.36 609.0
41.375 593.0
41.39 604.0
41.405 536.0
41.42 512.0
41.435 473.0
41.45 455.0
41.465 454.0
41.48 425.0
41.495 395.0
41.51 409.0
41.525 386.0
41.54 379.0
41.555 363.0
41.57 308.0
41.585 335.0
41.6 333.0
41.615 307.0
41.63 289.0
41.645 284.0
41.66 287.0
41.675 302.0
41.69 263.0
41.705 290.0
41.72 263.0
41.735 270.0
41.75 248.0
41.765 247.0
41.78 270.0
41.795 259.0
41.81 263.0
41.825 247.0
41.84 261.0
41.855 254.0
41.87 264.0
41.885 265.0
41.9 266.0
41.915 241.0
41.93 252.0
41.945 297.0
41.96 253.0
41.975 251.0
41.99 269.0
42.005 225.0
42.02 237.0
42.035 260.0
42.05 257.0
42.065 237.0
42.08 228.0
42.095 258.0
42.11 245.0
42.125 248.0
42.14 233.0
42.155 238.0
42.17 206.0
42.185 219.0
42.2 236.0
42.215 249.0
42.23 243.0
42.245 224.0
42.26 226.0
42.275 257.0
42.29 244.0
42.305 238.0
42.32 237.0
42.335 207.0
42.35 228.0
42.365 250.0
42.38 231.0
42.395 226.0
42.41 233.0
42.425 223.0
42.44 237.0
42.455 233.0
42.47 237.0
42.485 235.0
42.5 252.0
42.515 233.0
42.53 231.0
42.545 238.0
42.56 242.0
42.575 270.0
42.59 235.0
42.605 222.0
42.62 262.0
42.635 269.0
42.65 247.0
42.665 232.0
42.68 222.0
42.695 242.0
42.71 253.0
42.725 250.0
42.74 224.0
42.755 252.0
42.77 214.0
42.785 227.0
42.8 235.0
42.815 228.0
42.83 232.0
42.845 227.0
42.86 245.0
42.875 237.0
42.89 229.0
42.905 240.0
42.92 242.0
42.935 226.0
42.95 226.0
42.965 237.0
42.98 223.0
42.995 244.0
43.01 234.0
43.025 238.0
43.04 238.0
43.055 234.0
43.07 233.0
43.085 238.0
43.1 245.0
43.115 234.0
43.13 215.0
43.145 229.0
43.16 242.0
43.175 243.0
43.19 246.0
43.205 228.0
43.22 221.0
43.235 229.0
43.25 234.0
43.265 245.0
43.28 221.0
43.295 230.0
43.31 227.0
43.325 234.0
43.34 234.0
43.355 221.0
43.37 208.0
43.385 199.0
43.4 244.0
43.415 257.0
43.43 240.0
43.445 258.0
43.46 242.0
43.475 236.0
43.49 221.0
43.505 225.0
43.52 222.0
43.535 237.0
43.55 241.0
43.565 220.0
43.58 225.0
43.595 231.0
43.61 251.0
43.625 238.0
43.64 225.0
43.655 219.0
43.67 231.0
43.685 222.0
43.7 261.0
43.715 236.0
43.73 244.0
43.745 263.0
43.76 239.0
43.775 235.0
43.79 234.0
43.805 235.0
43.82 249.0
43.835 242.0
43.85 250.0
43.865 245.0
43.88 235.0
43.895 261.0
43.91 262.0
43.925 260.0
43.94 243.0
43.955 260.0
43.97 259.0
43.985 246.0
44.0 252.0
44.015 261.0
44.03 249.0
44.045 242.0
44.06 248.0
44.075 263.0
44.09 248.0
44.105 263.0
44.12 231.0
44.135 239.0
44.15 252.0
44.165 249.0
44.18 271.0
44.195 298.0
44.21 267.0
44.225 249.0
44.24 276.0
44.255 260.0
44.27 279.0
44.285 325.0
44.3 373.0
44.315 397.0
44.33 435.0
44.345 476.0
44.36 594.0
44.375 698.0
44.39 879.0
44.405 1060.0
44.42 1219.0
44.435 1339.0
44.45 1441.0
44.465 1362.0
44.48 1231.0
44.495 1119.0
44.51 868.0
44.525 741.0
44.54 661.0
44.555 597.0
44.57 549.0
44.585 517.0
44.6 501.0
44.615 485.0
44.63 470.0
44.645 455.0
44.66 447.0
44.675 399.0
44.69 410.0
44.705 412.0
44.72 403.0
44.735 425.0
44.75 398.0
44.765 402.0
44.78 370.0
44.795 408.0
44.81 390.0
44.825 436.0
44.84 465.0
44.855 436.0
44.87 476.0
44.885 459.0
44.9 506.0
44.915 511.0
44.93 532.0
44.945 552.0
44.96 567.0
44.975 556.0
44.99 560.0
45.005 608.0
45.02 589.0
45.035 584.0
45.05 568.0
45.065 565.0
45.08 540.0
45.095 507.0
45.11 502.0
45.125 500.0
45.14 435.0
45.155 410.0
45.17 407.0
45.185 368.0
45.2 389.0
45.215 354.0
45.23 329.0
45.245 340.0
45.26 364.0
45.275 322.0
45.29 310.0
45.305 289.0
45.32 296.0
45.335 289.0
45.35 291.0
45.365 280.0
45.38 278.0
45.395 256.0
45.41 245.0
45.425 236.0
45.44 247.0
45.455 241.0
45.47 262.0
45.485 248.0
45.5 257.0
45.515 247.0
45.53 249.0
45.545 240.0
45.56 232.0
45.575 233.0
45.59 233.0
45.605 254.0
45.62 229.0
45.635 262.0
45.65 264.0
45.665 240.0
45.68 233.0
45.695 221.0
45.71 247.0
45.725 237.0
45.74 237.0
45.755 216.0
45.77 231.0
45.785 225.0
45.8 220.0
45.815 228.0
45.83 222.0
45.845 222.0
45.86 221.0
45.875 237.0
45.89 247.0
45.905 237.0
45.92 223.0
45.935 237.0
45.95 225.0
45.965 214.0
45.98 218.0
45.995 230.0
46.01 216.0
46.025 215.0
46.04 242.0
46.055 239.0
46.07 245.0
46.085 253.0
46.1 259.0
46.115 228.0
46.13 224.0
46.145 277.0
46.16 265.0
46.175 272.0
46.19 271.0
46.205 256.0
46.22 257.0
46.235 282.0
46.25 315.0
46.265 325.0
46.28 313.0
46.295 313.0
46.31 330.0
46.325 343.0
46.34 379.0
46.355 389.0
46.37 381.0
46.385 352.0
46.4 350.0
46.415 361.0
46.43 353.0
46.445 311.0
46.46 265.0
46.475 299.0
46.49 286.0
46.505 271.0
46.52 243.0
46.535 254.0
46.55 253.0
46.565 221.0
46.58 251.0
46.595 260.0
46.61 236.0
46.625 224.0
46.64 233.0
46.655 222.0
46.67 223.0
46.685 215.0
46.7 223.0
46.715 226.0
46.73 217.0
46.745 221.0
46.76 244.0
46.775 240.0
46.79 235.0
46.805 226.0
46.82 224.0
46.835 221.0
46.85 214.0
46.865 195.0
46.88 229.0
46.895 201.0
46.91 225.0
46.925 216.0
46.94 202.0
46.955 215.0
46.97 223.0
46.985 208.0
47.0 198.0
47.015 191.0
47.03 203.0
47.045 218.0
47.06 207.0
47.075 190.0
47.09 234.0
47.105 209.0
47.12 195.0
47.135 220.0
47.15 230.0
47.165 223.0
47.18 211.0
47.195 223.0
47.21 231.0
47.225 206.0
47.24 198.0
47.255 215.0
47.27 201.0
47.285 199.0
47.3 214.0
47.315 215.0
47.33 218.0
47.345 195.0
47.36 212.0
47.375 196.0
47.39 207.0
47.405 225.0
47.42 199.0
47.435 206.0
47.45 217.0
47.465 229.0
47.48 217.0
47.495 207.0
47.51 207.0
47.525 201.0
47.54 190.0
47.555 201.0
47.57 220.0
47.585 222.0
47.6 199.0
47.615 212.0
47.63 213.0
47.645 206.0
47.66 214.0
47.675 220.0
47.69 206.0
47.705 205.0
47.72 226.0
47.735 206.0
47.75 207.0
47.765 238.0
47.78 215.0
47.795 220.0
47.81 215.0
47.825 222.0
47.84 213.0
47.855 195.0
47.87 214.0
47.885 219.0
47.9 216.0
47.915 196.0
47.93 227.0
47.945 221.0
47.96 215.0
47.975 197.0
47.99 205.0
48.005 205.0
48.02 201.0
48.035 185.0
48.05 193.0
48.065 192.0
48.08 209.0
48.095 212.0
48.11 204.0
48.125 207.0
48.14 214.0
48.155 210.0
48.17 192.0
48.185 212.0
48.2 199.0
48.215 213.0
48.23 209.0
48.245 188.0
48.26 213.0
48.275 217.0
48.29 212.0
48.305 224.0
48.32 205.0
48.335 197.0
48.35 213.0
48.365 195.0
48.38 219.0
48.395 205.0
48.41 213.0
48.425 218.0
48.44 201.0
48.455 193.0
48.47 195.0
48.485 219.0
48.5 204.0
48.515 227.0
48.53 218.0
48.545 198.0
48.56 210.0
48.575 201.0
48.59 209.0
48.605 200.0
48.62 203.0
48.635 203.0
48.65 189.0
48.665 193.0
48.68 208.0
48.695 213.0
48.71 215.0
48.725 222.0
48.74 181.0
48.755 198.0
48.77 202.0
48.785 211.0
48.8 190.0
48.815 205.0
48.83 216.0
48.845 211.0
48.86 200.0
48.875 187.0
48.89 195.0
48.905 200.0
48.92 183.0
48.935 184.0
48.95 197.0
48.965 188.0
48.98 203.0
48.995 203.0
49.01 223.0
49.025 229.0
49.04 230.0
49.055 212.0
49.07 216.0
49.085 208.0
49.1 189.0
49.115 218.0
49.13 219.0
49.145 224.0
49.16 234.0
49.175 229.0
49.19 205.0
49.205 213.0
49.22 203.0
49.235 232.0
49.25 245.0
49.265 233.0
49.28 216.0
49.295 232.0
49.31 241.0
49.325 230.0
49.34 208.0
49.355 220.0
49.37 230.0
49.385 225.0
49.4 239.0
49.415 227.0
49.43 231.0
49.445 252.0
49.46 243.0
49.475 274.0
49.49 292.0
49.505 305.0
49.52 345.0
49.535 380.0
49.55 427.0
49.565 468.0
49.58 501.0
49.595 551.0
49.61 589.0
49.625 606.0
49.64 551.0
49.655 523.0
49.67 478.0
49.685 445.0
49.7 392.0
49.715 399.0
49.73 381.0
49.745 370.0
49.76 336.0
49.775 360.0
49.79 337.0
49.805 348.0
49.82 401.0
49.835 358.0
49.85 398.0
49.865 419.0
49.88 420.0
49.895 462.0
49.91 488.0
49.925 483.0
49.94 516.0
49.955 534.0
49.97 559.0
49.985 551.0
50.0 615.0
50.015 677.0
50.03 709.0
50.045 771.0
50.06 789.0
50.075 794.0
50.09 836.0
50.105 843.0
50.12 893.0
50.135 942.0
50.15 926.0
50.165 862.0
50.18 825.0
50.195 775.0
50.21 758.0
50.225 721.0
50.24 653.0
50.255 661.0
50.27 665.0
50.285 602.0
50.3 533.0
50.315 519.0
50.33 504.0
50.345 480.0
50.36 434.0
50.375 432.0
50.39 420.0
50.405 396.0
50.42 371.0
50.435 341.0
50.45 344.0
50.465 345.0
50.48 330.0
50.495 319.0
50.51 346.0
50.525 331.0
50.54 311.0
50.555 293.0
50.57 296.0
50.585 270.0
50.6 298.0
50.615 282.0
50.63 270.0
50.645 256.0
50.66 262.0
50.675 281.0
50.69 251.0
50.705 250.0
50.72 262.0
50.735 265.0
50.75 280.0
50.765 257.0
50.78 250.0
50.795 256.0
50.81 239.0
50.825 213.0
50.84 251.0
50.855 267.0
50.87 250.0
50.885 253.0
50.9 235.0
50.915 214.0
50.93 229.0
50.945 253.0
50.96 237.0
50.975 224.0
50.99 248.0
51.005 209.0
51.02 253.0
51.035 258.0
51.05 243.0
51.065 265.0
51.08 232.0
51.095 240.0
51.11 237.0
51.125 242.0
51.14 241.0
51.155 238.0
51.17 238.0
51.185 237.0
51.2 251.0
51.215 245.0
51.23 225.0
51.245 237.0
51.26 249.0
51.275 248.0
51.29 250.0
51.305 280.0
51.32 264.0
51.335 264.0
51.35 286.0
51.365 274.0
51.38 298.0
51.395 298.0
51.41 291.0
51.425 306.0
51.44 319.0
51.455 329.0
51.47 324.0
51.485 385.0
51.5 381.0
51.515 391.0
51.53 403.0
51.545 448.0
51.56 447.0
51.575 485.0
51.59 536.0
51.605 534.0
51.62 564.0
51.635 587.0
51.65 599.0
51.665 656.0
51.68 688.0
51.695 720.0
51.71 713.0
51.725 685.0
51.74 693.0
51.755 640.0
51.77 629.0
51.785 585.0
51.8 569.0
51.815 514.0
51.83 514.0
51.845 479.0
51.86 444.0
51.875 432.0
51.89 425.0
51.905 394.0
51.92 407.0
51.935 353.0
51.95 340.0
51.965 335.0
51.98 335.0
51.995 293.0
52.01 276.0
52.025 296.0
52.04 296.0
52.055 277.0
52.07 268.0
52.085 265.0
52.1 254.0
52.115 236.0
52.13 261.0
52.145 268.0
52.16 245.0
52.175 256.0
52.19 241.0
52.205 236.0
52.22 242.0
52.235 270.0
52.25 246.0
52.265 229.0
52.28 244.0
52.295 234.0
52.31 253.0
52.325 220.0
52.34 223.0
52.355 209.0
52.37 203.0
52.385 207.0
52.4 218.0
52.415 211.0
52.43 245.0
52.445 236.0
52.46 218.0
52.475 217.0
52.49 242.0
52.505 211.0
52.52 223.0
52.535 202.0
52.55 213.0
52.565 223.0
52.58 209.0
52.595 218.0
52.61 227.0
52.625 227.0
52.64 228.0
52.655 210.0
52.67 212.0
52.685 214.0
52.7 208.0
52.715 209.0
52.73 207.0
52.745 210.0
52.76 227.0
52.775 204.0
52.79 222.0
52.805 235.0
52.82 227.0
52.835 243.0
52.85 223.0
52.865 225.0
52.88 215.0
52.895 217.0
52.91 217.0
52.925 215.0
52.94 216.0
52.955 221.0
52.97 226.0
52.985 224.0
53.0 222.0
53.015 209.0
53.03 228.0
53.045 240.0
53.06 218.0
53.075 208.0
53.09 214.0
53.105 226.0
53.12 227.0
53.135 224.0
53.15 222.0
53.165 228.0
53.18 225.0
53.195 240.0
53.21 241.0
53.225 229.0
53.24 261.0
53.255 235.0
53.27 233.0
53.285 248.0
53.3 246.0
53.315 238.0
53.33 239.0
53.345 240.0
53.36 216.0
53.375 232.0
53.39 245.0
53.405 227.0
53.42 249.0
53.435 222.0
53.45 226.0
53.465 228.0
53.48 224.0
53.495 210.0
53.51 198.0
53.525 209.0
53.54 205.0
53.555 202.0
53.57 216.0
53.585 210.0
53.6 222.0
53.615 218.0
53.63 214.0
53.645 193.0
53.66 187.0
53.675 218.0
53.69 205.0
53.705 226.0
53.72 234.0
53.735 211.0
53.75 204.0
53.765 200.0
53.78 196.0
53.795 212.0
53.81 187.0
53.825 203.0
53.84 198.0
53.855 190.0
53.87 195.0
53.885 183.0
53.9 190.0
53.915 183.0
53.93 201.0
53.945 196.0
53.96 203.0
53.975 187.0
53.99 216.0
54.005 212.0
54.02 201.0
54.035 192.0
54.05 203.0
54.065 194.0
54.08 210.0
54.095 218.0
54.11 188.0
54.125 210.0
54.14 217.0
54.155 202.0
54.17 209.0
54.185 186.0
54.2 193.0
54.215 221.0
54.23 239.0
54.245 281.0
54.26 298.0
54.275 332.0
54.29 332.0
54.305 379.0
54.32 462.0
54.335 517.0
54.35 602.0
54.365 676.0
54.38 757.0
54.395 889.0
54.41 912.0
54.425 859.0
54.44 875.0
54.455 819.0
54.47 761.0
54.485 645.0
54.5 493.0
54.515 367.0
54.53 344.0
54.545 321.0
54.56 300.0
54.575 251.0
54.59 247.0
54.605 238.0
54.62 257.0
54.635 248.0
54.65 226.0
54.665 207.0
54.68 205.0
54.695 220.0
54.71 229.0
54.725 201.0
54.74 206.0
54.755 215.0
54.77 218.0
54.785 200.0
54.8 207.0
54.815 222.0
54.83 215.0
54.845 210.0
54.86 217.0
54.875 200.0
54.89 213.0
54.905 203.0
54.92 193.0
54.935 224.0
54.95 206.0
54.965 209.0
54.98 202.0
54.995 210.0
55.01 196.0
55.025 177.0
55.04 200.0
55.055 179.0
55.07 192.0
55.085 214.0
55.1 213.0
55.115 207.0
55.13 225.0
55.145 209.0
55.16 218.0
55.175 220.0
55.19 186.0
55.205 195.0
55.22 192.0
55.235 202.0
55.25 214.0
55.265 221.0
55.28 204.0
55.295 210.0
55.31 204.0
55.325 227.0
55.34 223.0
55.355 189.0
55.37 187.0
55.385 196.0
55.4 191.0
55.415 188.0
55.43 179.0
55.445 193.0
55.46 203.0
55.475 209.0
55.49 206.0
55.505 198.0
55.52 186.0
55.535 200.0
55.55 235.0
55.565 201.0
55.58 215.0
55.595 217.0
55.61 198.0
55.625 195.0
55.64 219.0
55.655 211.0
55.67 207.0
55.685 224.0
55.7 202.0
55.715 205.0
55.73 216.0
55.745 206.0
55.76 221.0
55.775 226.0
55.79 217.0
55.805 225.0
55.82 232.0
55.835 212.0
55.85 195.0
55.865 192.0
55.88 224.0
55.895 214.0
55.91 217.0
55.925 229.0
55.94 222.0
55.955 224.0
55.97 233.0
55.985 245.0
56.0 247.0
56.015 249.0
56.03 247.0
56.045 253.0
56.06 244.0
56.075 246.0
56.09 281.0
56.105 269.0
56.12 276.0
56.135 265.0
56.15 266.0
56.165 280.0
56.18 299.0
56.195 281.0
56.21 298.0
56.225 307.0
56.24 315.0
56.255 311.0
56.27 348.0
56.285 342.0
56.3 334.0
56.315 357.0
56.33 360.0
56.345 346.0
56.36 362.0
56.375 374.0
56.39 373.0
56.405 370.0
56.42 359.0
56.435 362.0
56.45 370.0
56.465 357.0
56.48 371.0
56.495 359.0
56.51 358.0
56.525 326.0
56.54 311.0
56.555 303.0
56.57 307.0
56.585 327.0
56.6 309.0
56.615 267.0
56.63 308.0
56.645 272.0
56.66 268.0
56.675 268.0
56.69 243.0
56.705 223.0
56.72 222.0
56.735 215.0
56.75 228.0
56.765 239.0
56.78 246.0
56.795 205.0
56.81 216.0
56.825 227.0
56.84 214.0
56.855 217.0
56.87 221.0
56.885 228.0
56.9 230.0
56.915 229.0
56.93 228.0
56.945 212.0
56.96 202.0
56.975 215.0
56.99 220.0
57.005 196.0
57.02 216.0
57.035 202.0
57.05 228.0
57.065 219.0
57.08 219.0
57.095 215.0
57.11 200.0
57.125 223.0
57.14 216.0
57.155 233.0
57.17 223.0
57.185 206.0
57.2 198.0
57.215 201.0
57.23 214.0
57.245 216.0
57.26 230.0
57.275 236.0
57.29 245.0
57.305 239.0
57.32 227.0
57.335 250.0
57.35 246.0
57.365 284.0
57.38 308.0
57.395 308.0
57.41 341.0
57.425 377.0
57.44 387.0
57.455 400.0
57.47 401.0
57.485 382.0
57.5 398.0
57.515 342.0
57.53 319.0
57.545 311.0
57.56 300.0
57.575 277.0
57.59 257.0
57.605 236.0
57.62 239.0
57.635 260.0
57.65 270.0
57.665 275.0
57.68 244.0
57.695 276.0
57.71 258.0
57.725 265.0
57.74 284.0
57.755 267.0
57.77 263.0
57.785 268.0
57.8 271.0
57.815 291.0
57.83 290.0
57.845 267.0
57.86 295.0
57.875 285.0
57.89 284.0
57.905 273.0
57.92 277.0
57.935 294.0
57.95 273.0
57.965 271.0
57.98 261.0
57.995 251.0
58.01 259.0
58.025 246.0
58.04 232.0
58.055 228.0
58.07 256.0
58.085 230.0
58.1 220.0
58.115 231.0
58.13 242.0
58.145 226.0
58.16 232.0
58.175 220.0
58.19 229.0
58.205 215.0
58.22 222.0
58.235 231.0
58.25 234.0
58.265 247.0
58.28 210.0
58.295 220.0
58.31 220.0
58.325 208.0
58.34 210.0
58.355 204.0
58.37 193.0
58.385 239.0
58.4 235.0
58.415 227.0
58.43 245.0
58.445 209.0
58.46 220.0
58.475 204.0
58.49 200.0
58.505 219.0
58.52 216.0
58.535 188.0
58.55 203.0
58.565 183.0
58.58 185.0
58.595 203.0
58.61 213.0
58.625 209.0
58.64 207.0
58.655 184.0
58.67 200.0
58.685 208.0
58.7 192.0
58.715 176.0
58.73 201.0
58.745 186.0
58.76 194.0
58.775 207.0
58.79 202.0
58.805 213.0
58.82 218.0
58.835 207.0
58.85 202.0
58.865 207.0
58.88 193.0
58.895 220.0
58.91 214.0
58.925 192.0
58.94 197.0
58.955 214.0
58.97 190.0
58.985 194.0
59.0 198.0
59.015 202.0
59.03 210.0
59.045 209.0
59.06 193.0
59.075 198.0
59.09 209.0
59.105 189.0
59.12 190.0
59.135 199.0
59.15 204.0
59.165 220.0
59.18 212.0
59.195 209.0
59.21 172.0
59.225 181.0
59.24 190.0
59.255 216.0
59.27 199.0
59.285 203.0
59.3 179.0
59.315 197.0
59.33 168.0
59.345 181.0
59.36 198.0
59.375 192.0
59.39 194.0
59.405 187.0
59.42 177.0
59.435 183.0
59.45 194.0
59.465 183.0
59.48 206.0
59.495 211.0
59.51 187.0
59.525 167.0
59.54 196.0
59.555 184.0
59.57 183.0
59.585 185.0
59.6 180.0
59.615 183.0
59.63 187.0
59.645 189.0
59.66 174.0
59.675 184.0
59.69 183.0
59.705 178.0
59.72 175.0
59.735 186.0
59.75 198.0
59.765 187.0
59.78 192.0
59.795 171.0
59.81 193.0
59.825 206.0
59.84 221.0
59.855 224.0
59.87 190.0
59.885 219.0
59.9 225.0
59.915 177.0
59.93 197.0
59.945 201.0
59.96 205.0
59.975 194.0
59.99 186.0
60.005 196.0
60.02 216.0
60.035 204.0
60.05 174.0
60.065 195.0
60.08 210.0
60.095 202.0
60.11 200.0
60.125 199.0
60.14 189.0
60.155 194.0
60.17 208.0
60.185 205.0
60.2 204.0
60.215 199.0
60.23 187.0
60.245 183.0
60.26 214.0
60.275 201.0
60.29 200.0
60.305 184.0
60.32 197.0
60.335 190.0
60.35 204.0
60.365 207.0
60.38 212.0
60.395 187.0
60.41 198.0
60.425 201.0
60.44 187.0
60.455 180.0
60.47 198.0
60.485 206.0
60.5 184.0
60.515 209.0
60.53 214.0
60.545 222.0
60.56 211.0
60.575 194.0
60.59 202.0
60.605 193.0
60.62 197.0
60.635 214.0
60.65 223.0
60.665 226.0
60.68 225.0
60.695 216.0
60.71 213.0
60.725 209.0
60.74 239.0
60.755 233.0
60.77 213.0
60.785 222.0
60.8 213.0
60.815 214.0
60.83 225.0
60.845 249.0
60.86 237.0
60.875 226.0
60.89 228.0
60.905 228.0
60.92 232.0
60.935 243.0
60.95 227.0
60.965 209.0
60.98 200.0
60.995 216.0
61.01 207.0
61.025 178.0
61.04 190.0
61.055 203.0
61.07 214.0
61.085 219.0
61.1 194.0
61.115 212.0
61.13 189.0
61.145 203.0
61.16 187.0
61.175 185.0
61.19 193.0
61.205 199.0
61.22 195.0
61.235 193.0
61.25 195.0
61.265 198.0
61.28 198.0
61.295 206.0
61.31 200.0
61.325 185.0
61.34 203.0
61.355 197.0
61.37 208.0
61.385 215.0
61.4 192.0
61.415 199.0
61.43 185.0
61.445 182.0
61.46 195.0
61.475 196.0
61.49 191.0
61.505 194.0
61.52 219.0
61.535 208.0
61.55 172.0
61.565 190.0
61.58 217.0
61.595 210.0
61.61 190.0
61.625 237.0
61.64 210.0
61.655 192.0
61.67 211.0
61.685 197.0
61.7 224.0
61.715 211.0
61.73 212.0
61.745 226.0
61.76 237.0
61.775 228.0
61.79 213.0
61.805 207.0
61.82 199.0
61.835 209.0
61.85 233.0
61.865 212.0
61.88 200.0
61.895 236.0
61.91 254.0
61.925 233.0
61.94 216.0
61.955 265.0
61.97 253.0
61.985 253.0
