2.0 738.0
2.015 753.0
2.03 714.0
2.045 751.0
2.06 724.0
2.075 711.0
2.09 725.0
2.105 650.0
2.12 658.0
2.135 696.0
2.15 638.0
2.165 621.0
2.18 639.0
2.195 603.0
2.21 561.0
2.225 622.0
2.24 596.0
2.255 565.0
2.27 542.0
2.285 554.0
2.3 594.0
2.315 541.0
2.33 540.0
2.345 490.0
2.36 525.0
2.375 528.0
2.39 495.0
2.405 534.0
2.42 530.0
2.435 501.0
2.45 501.0
2.465 479.0
2.48 477.0
2.495 484.0
2.51 481.0
2.525 477.0
2.54 455.0
2.555 461.0
2.57 491.0
2.585 457.0
2.6 459.0
2.615 453.0
2.63 459.0
2.645 454.0
2.66 425.0
2.675 425.0
2.69 415.0
2.705 426.0
2.72 437.0
2.735 417.0
2.75 395.0
2.765 411.0
2.78 390.0
2.795 415.0
2.81 418.0
2.825 400.0
2.84 408.0
2.855 412.0
2.87 407.0
2.885 454.0
2.9 441.0
2.915 384.0
2.93 391.0
2.945 398.0
2.96 369.0
2.975 386.0
2.99 409.0
3.005 381.0
3.02 434.0
3.035 402.0
3.05 379.0
3.065 381.0
3.08 375.0
3.095 382.0
3.11 396.0
3.125 372.0
3.14 354.0
3.155 377.0
3.17 374.0
3.185 364.0
3.2 385.0
3.215 376.0
3.23 372.0
3.245 386.0
3.26 383.0
3.275 386.0
3.29 366.0
3.305 385.0
3.32 375.0
3.335 342.0
3.35 374.0
3.365 362.0
3.38 374.0
3.395 347.0
3.41 334.0
3.425 360.0
3.44 365.0
3.455 342.0
3.47 360.0
3.485 366.0
3.5 358.0
3.515 345.0
3.53 338.0
3.545 378.0
3.56 375.0
3.575 382.0
3.59 376.0
3.605 372.0
3.62 345.0
3.635 343.0
3.65 378.0
3.665 358.0
3.68 381.0
3.695 333.0
3.71 378.0
3.725 366.0
3.74 348.0
3.755 349.0
3.77 349.0
3.785 358.0
3.8 350.0
3.815 342.0
3.83 345.0
3.845 370.0
3.86 356.0
3.875 335.0
3.89 351.0
3.905 382.0
3.92 338.0
3.935 346.0
3.95 321.0
3.965 351.0
3.98 363.0
3.995 355.0
4.01 384.0
4.025 370.0
4.04 349.0
4.055 327.0
4.07 313.0
4.085 364.0
4.1 356.0
4.115 354.0
4.13 352.0
4.145 353.0
4.16 337.0
4.175 333.0
4.19 346.0
4.205 344.0
4.22 360.0
4.235 348.0
4.25 347.0
4.265 332.0
4.28 346.0
4.295 357.0
4.31 343.0
4.325 364.0
4.34 366.0
4.355 328.0
4.37 347.0
4.385 366.0
4.4 358.0
4.415 380.0
4.43 383.0
4.445 349.0
4.46 366.0
4.475 371.0
4.49 362.0
4.505 355.0
4.52 338.0
4.535 353.0
4.55 342.0
4.565 368.0
4.58 362.0
4.595 355.0
4.61 368.0
4.625 342.0
4.64 343.0
4.655 357.0
4.67 364.0
4.685 364.0
4.7 368.0
4.715 358.0
4.73 367.0
4.745 375.0
4.76 343.0
4.775 342.0
4.79 368.0
4.805 367.0
4.82 357.0
4.835 349.0
4.85 392.0
4.865 368.0
4.88 374.0
4.895 382.0
4.91 366.0
4.925 323.0
4.94 337.0
4.955 326.0
4.97 370.0
4.985 369.0
5.0 355.0
5.015 344.0
5.03 339.0
5.045 340.0
5.06 336.0
5.075 375.0
5.09 348.0
5.105 341.0
5.12 362.0
5.135 350.0
5.15 380.0
5.165 367.0
5.18 334.0
5.195 341.0
5.21 350.0
5.225 378.0
5.24 359.0
5.255 358.0
5.27 345.0
5.285 373.0
5.3 386.0
5.315 344.0
5.33 324.0
5.345 342.0
5.36 381.0
5.375 385.0
5.39 339.0
5.405 335.0
5.42 352.0
5.435 357.0
5.45 358.0
5.465 369.0
5.48 339.0
5.495 370.0
5.51 369.0
5.525 333.0
5.54 324.0
5.555 349.0
5.57 349.0
5.585 400.0
5.6 359.0
5.615 355.0
5.63 355.0
5.645 359.0
5.66 384.0
5.675 371.0
5.69 359.0
5.705 334.0
5.72 352.0
5.735 358.0
5.75 339.0
5.765 370.0
5.78 368.0
5.795 378.0
5.81 376.0
5.825 351.0
5.84 333.0
5.855 360.0
5.87 367.0
5.885 351.0
5.9 380.0
5.915 365.0
5.93 349.0
5.945 381.0
5.96 387.0
5.975 369.0
5.99 366.0
6.005 376.0
6.02 365.0
6.035 366.0
6.05 366.0
6.065 348.0
6.08 324.0
6.095 333.0
6.11 347.0
6.125 351.0
6.14 346.0
6.155 353.0
6.17 344.0
6.185 348.0
6.2 342.0
6.215 345.0
6.23 347.0
6.245 327.0
6.26 345.0
6.275 343.0
6.29 344.0
6.305 360.0
6.32 351.0
6.335 359.0
6.35 364.0
6.365 360.0
6.38 343.0
6.395 339.0
6.41 352.0
6.425 365.0
6.44 358.0
6.455 360.0
6.47 335.0
6.485 362.0
6.5 368.0
6.515 354.0
6.53 341.0
6.545 335.0
6.56 370.0
6.575 361.0
6.59 361.0
6.605 345.0
6.62 338.0
6.635 339.0
6.65 350.0
6.665 358.0
6.68 333.0
6.695 360.0
6.71 364.0
6.725 378.0
6.74 345.0
6.755 379.0
6.77 338.0
6.785 326.0
6.8 337.0
6.815 329.0
6.83 353.0
6.845 355.0
6.86 338.0
6.875 336.0
6.89 352.0
6.905 355.0
6.92 332.0
6.935 348.0
6.95 348.0
6.965 336.0
6.98 357.0
6.995 353.0
7.01 381.0
7.025 343.0
7.04 338.0
7.055 321.0
7.07 334.0
7.085 370.0
7.1 354.0
7.115 337.0
7.13 316.0
7.145 337.0
7.16 345.0
7.175 333.0
7.19 355.0
7.205 352.0
7.22 333.0
7.235 349.0
7.25 334.0
7.265 350.0
7.28 352.0
7.295 355.0
7.31 348.0
7.325 345.0
7.34 340.0
7.355 335.0
7.37 337.0
7.385 332.0
7.4 343.0
7.415 306.0
7.43 330.0
7.445 313.0
7.46 353.0
7.475 350.0
7.49 353.0
7.505 358.0
7.52 345.0
7.535 328.0
7.55 330.0
7.565 355.0
7.58 353.0
7.595 352.0
7.61 359.0
7.625 341.0
7.64 335.0
7.655 353.0
7.67 371.0
7.685 405.0
7.7 334.0
7.715 335.0
7.73 362.0
7.745 348.0
7.76 362.0
7.775 349.0
7.79 344.0
7.805 343.0
7.82 327.0
7.835 345.0
7.85 359.0
7.865 326.0
7.88 347.0
7.895 357.0
7.91 361.0
7.925 339.0
7.94 334.0
7.955 341.0
7.97 335.0
7.985 358.0
8.0 346.0
8.015 337.0
8.03 334.0
8.045 343.0
8.06 361.0
8.075 342.0
8.09 354.0
8.105 364.0
8.12 333.0
8.135 304.0
8.15 357.0
8.165 357.0
8.18 328.0
8.195 362.0
8.21 383.0
8.225 384.0
8.24 345.0
8.255 336.0
8.27 354.0
8.285 338.0
8.3 327.0
8.315 317.0
8.33 319.0
8.345 363.0
8.36 343.0
8.375 345.0
8.39 336.0
8.405 315.0
8.42 329.0
8.435 355.0
8.45 330.0
8.465 354.0
8.48 339.0
8.495 334.0
8.51 335.0
8.525 301.0
8.54 327.0
8.555 339.0
8.57 337.0
8.585 358.0
8.6 350.0
8.615 322.0
8.63 331.0
8.645 350.0
8.66 342.0
8.675 395.0
8.69 351.0
8.705 345.0
8.72 354.0
8.735 354.0
8.75 343.0
8.765 344.0
8.78 334.0
8.795 337.0
8.81 354.0
8.825 344.0
8.84 333.0
8.855 371.0
8.87 335.0
8.885 352.0
8.9 373.0
8.915 368.0
8.93 326.0
8.945 356.0
8.96 365.0
8.975 341.0
8.99 332.0
9.005 328.0
9.02 317.0
9.035 317.0
9.05 331.0
9.065 343.0
9.08 363.0
9.095 384.0
9.11 332.0
9.125 337.0
9.14 363.0
9.155 349.0
9.17 336.0
9.185 332.0
9.2 355.0
9.215 346.0
9.23 375.0
9.245 372.0
9.26 350.0
9.275 353.0
9.29 343.0
9.305 346.0
9.32 366.0
9.335 346.0
9.35 345.0
9.365 321.0
9.38 343.0
9.395 350.0
9.41 355.0
9.425 339.0
9.44 352.0
9.455 346.0
9.47 338.0
9.485 356.0
9.5 317.0
9.515 319.0
9.53 366.0
9.545 336.0
9.56 318.0
9.575 330.0
9.59 331.0
9.605 357.0
9.62 349.0
9.635 319.0
9.65 341.0
9.665 348.0
9.68 357.0
9.695 355.0
9.71 347.0
9.725 337.0
9.74 342.0
9.755 333.0
9.77 342.0
9.785 334.0
9.8 345.0
9.815 339.0
9.83 348.0
9.845 338.0
9.86 315.0
9.875 343.0
9.89 338.0
9.905 336.0
9.92 350.0
9.935 338.0
9.95 340.0
9.965 340.0
9.98 343.0
9.995 333.0
10.01 342.0
10.025 341.0
10.04 362.0
10.055 339.0
10.07 340.0
10.085 368.0
10.1 336.0
10.115 318.0
10.13 317.0
10.145 317.0
10.16 365.0
10.175 356.0
10.19 364.0
10.205 333.0
10.22 334.0
10.235 345.0
10.25 330.0
10.265 323.0
10.28 314.0
10.295 352.0
10.31 338.0
10.325 386.0
10.34 367.0
10.355 340.0
10.37 352.0
10.385 335.0
10.4 330.0
10.415 323.0
10.43 355.0
10.445 366.0
10.46 345.0
10.475 372.0
10.49 337.0
10.505 329.0
10.52 346.0
10.535 366.0
10.55 327.0
10.565 346.0
10.58 349.0
10.595 324.0
10.61 334.0
10.625 339.0
10.64 347.0
10.655 329.0
10.67 328.0
10.685 343.0
10.7 341.0
10.715 327.0
10.73 329.0
10.745 320.0
10.76 331.0
10.775 353.0
10.79 378.0
10.805 356.0
10.82 335.0
10.835 334.0
10.85 343.0
10.865 370.0
10.88 362.0
10.895 335.0
10.91 343.0
10.925 351.0
10.94 348.0
10.955 341.0
10.97 332.0
10.985 360.0
11.0 348.0
11.015 364.0
11.03 353.0
11.045 350.0
11.06 327.0
11.075 352.0
11.09 370.0
11.105 392.0
11.12 368.0
11.135 375.0
11.15 366.0
11.165 336.0
11.18 359.0
11.195 354.0
11.21 357.0
11.225 375.0
11.24 360.0
11.255 354.0
11.27 340.0
11.285 322.0
11.3 345.0
11.315 342.0
11.33 339.0
11.345 324.0
11.36 327.0
11.375 346.0
11.39 336.0
11.405 368.0
11.42 340.0
11.435 330.0
11.45 333.0
11.465 338.0
11.48 345.0
11.495 348.0
11.51 369.0
11.525 370.0
11.54 348.0
11.555 339.0
11.57 366.0
11.585 370.0
11.6 367.0
11.615 373.0
11.63 347.0
11.645 351.0
11.66 350.0
11.675 384.0
11.69 387.0
11.705 372.0
11.72 377.0
11.735 397.0
11.75 406.0
11.765 457.0
11.78 447.0
11.795 447.0
11.81 464.0
11.825 510.0
11.84 593.0
11.855 663.0
11.87 712.0
11.885 840.0
11.9 951.0
11.915 1099.0
11.93 1302.0
11.945 1663.0
11.96 2058.0
11.975 2558.0
11.99 2834.0
12.005 2866.0
12.02 2605.0
12.035 2293.0
12.05 2020.0
12.065 1954.0
12.08 1915.0
12.095 1773.0
12.11 1613.0
12.125 1375.0
12.14 1041.0
12.155 793.0
12.17 687.0
12.185 597.0
12.2 543.0
12.215 512.0
12.23 483.0
12.245 505.0
12.26 459.0
12.275 468.0
12.29 464.0
12.305 468.0
12.32 461.0
12.335 442.0
12.35 452.0
12.365 467.0
12.38 463.0
12.395 418.0
12.41 413.0
12.425 445.0
12.44 468.0
12.455 423.0
12.47 423.0
12.485 414.0
12.5 431.0
12.515 425.0
12.53 420.0
12.545 427.0
12.56 411.0
12.575 417.0
12.59 431.0
12.605 427.0
12.62 396.0
12.635 404.0
12.65 410.0
12.665 400.0
12.68 408.0
12.695 399.0
12.71 394.0
12.725 380.0
12.74 433.0
12.755 414.0
12.77 359.0
12.785 399.0
12.8 417.0
12.815 400.0
12.83 369.0
12.845 376.0
12.86 391.0
12.875 394.0
12.89 392.0
12.905 405.0
12.92 403.0
12.935 391.0
12.95 388.0
12.965 354.0
12.98 371.0
12.995 375.0
13.01 370.0
13.025 371.0
13.04 383.0
13.055 393.0
13.07 390.0
13.085 373.0
13.1 399.0
13.115 398.0
13.13 368.0
13.145 374.0
13.16 370.0
13.175 391.0
13.19 379.0
13.205 364.0
13.22 385.0
13.235 384.0
13.25 354.0
13.265 352.0
13.28 405.0
13.295 374.0
13.31 377.0
13.325 395.0
13.34 367.0
13.355 385.0
13.37 389.0
13.385 379.0
13.4 372.0
13.415 347.0
13.43 374.0
13.445 369.0
13.46 353.0
13.475 393.0
13.49 367.0
13.505 361.0
13.52 363.0
13.535 357.0
13.55 346.0
13.565 350.0
13.58 347.0
13.595 361.0
13.61 350.0
13.625 408.0
13.64 384.0
13.655 365.0
13.67 364.0
13.685 368.0
13.7 378.0
13.715 367.0
13.73 386.0
13.745 360.0
13.76 389.0
13.775 358.0
13.79 371.0
13.805 374.0
13.82 374.0
13.835 371.0
13.85 387.0
13.865 353.0
13.88 365.0
13.895 376.0
13.91 375.0
13.925 359.0
13.94 364.0
13.955 380.0
13.97 360.0
13.985 357.0
14.0 351.0
14.015 348.0
14.03 356.0
14.045 365.0
14.06 337.0
14.075 341.0
14.09 372.0
14.105 346.0
14.12 361.0
14.135 372.0
14.15 397.0
14.165 378.0
14.18 354.0
14.195 349.0
14.21 396.0
14.225 377.0
14.24 378.0
14.255 357.0
14.27 374.0
14.285 357.0
14.3 332.0
14.315 360.0
14.33 388.0
14.345 364.0
14.36 343.0
14.375 343.0
14.39 363.0
14.405 374.0
14.42 369.0
14.435 366.0
14.45 372.0
14.465 346.0
14.48 378.0
14.495 379.0
14.51 378.0
14.525 368.0
14.54 357.0
14.555 348.0
14.57 347.0
14.585 390.0
14.6 398.0
14.615 376.0
14.63 400.0
14.645 354.0
14.66 342.0
14.675 356.0
14.69 377.0
14.705 366.0
14.72 356.0
14.735 353.0
14.75 369.0
14.765 372.0
14.78 388.0
14.795 366.0
14.81 366.0
14.825 372.0
14.84 372.0
14.855 401.0
14.87 344.0
14.885 353.0
14.9 364.0
14.915 379.0
14.93 370.0
14.945 360.0
14.96 342.0
14.975 332.0
14.99 379.0
15.005 351.0
15.02 351.0
15.035 364.0
15.05 353.0
15.065 359.0
15.08 356.0
15.095 364.0
15.11 389.0
15.125 376.0
15.14 359.0
15.155 355.0
15.17 349.0
15.185 379.0
15.2 365.0
15.215 391.0
15.23 414.0
15.245 374.0
15.26 338.0
15.275 366.0
15.29 375.0
15.305 346.0
15.32 371.0
15.335 383.0
15.35 371.0
15.365 373.0
15.38 379.0
15.395 373.0
15.41 368.0
15.425 361.0
15.44 379.0
15.455 394.0
15.47 389.0
15.485 355.0
15.5 372.0
15.515 385.0
15.53 390.0
15.545 380.0
15.56 381.0
15.575 391.0
15.59 367.0
15.605 384.0
15.62 366.0
15.635 366.0
15.65 378.0
15.665 384.0
15.68 348.0
15.695 387.0
15.71 411.0
15.725 411.0
15.74 398.0
15.755 378.0
15.77 361.0
15.785 364.0
15.8 372.0
15.815 378.0
15.83 356.0
15.845 352.0
15.86 386.0
15.875 362.0
15.89 370.0
15.905 401.0
15.92 370.0
15.935 374.0
15.95 384.0
15.965 382.0
15.98 394.0
15.995 380.0
16.01 398.0
16.025 385.0
16.04 377.0
16.055 376.0
16.07 385.0
16.085 404.0
16.1 376.0
16.115 379.0
16.13 366.0
16.145 382.0
16.16 406.0
16.175 395.0
16.19 378.0
16.205 403.0
16.22 412.0
16.235 382.0
16.25 382.0
16.265 370.0
16.28 361.0
16.295 377.0
16.31 384.0
16.325 391.0
16.34 385.0
16.355 402.0
16.37 385.0
16.385 406.0
16.4 419.0
16.415 380.0
16.43 395.0
16.445 382.0
16.46 406.0
16.475 409.0
16.49 397.0
16.505 376.0
16.52 379.0
16.535 386.0
16.55 416.0
16.565 388.0
16.58 383.0
16.595 377.0
16.61 409.0
16.625 405.0
16.64 380.0
16.655 411.0
16.67 378.0
16.685 396.0
16.7 412.0
16.715 399.0
16.73 354.0
16.745 386.0
16.76 409.0
16.775 398.0
16.79 390.0
16.805 397.0
16.82 387.0
16.835 414.0
16.85 383.0
16.865 383.0
16.88 426.0
16.895 410.0
16.91 415.0
16.925 404.0
16.94 434.0
16.955 444.0
16.97 392.0
16.985 381.0
17.0 368.0
17.015 395.0
17.03 423.0
17.045 420.0
17.06 431.0
17.075 404.0
17.09 400.0
17.105 408.0
17.12 416.0
17.135 370.0
17.15 395.0
17.165 431.0
17.18 439.0
17.195 429.0
17.21 398.0
17.225 404.0
17.24 421.0
17.255 429.0
17.27 439.0
17.285 412.0
17.3 425.0
17.315 421.0
17.33 446.0
17.345 445.0
17.36 407.0
17.375 432.0
17.39 413.0
17.405 419.0
17.42 442.0
17.435 472.0
17.45 416.0
17.465 436.0
17.48 428.0
17.495 451.0
17.51 441.0
17.525 417.0
17.54 442.0
17.555 455.0
17.57 436.0
17.585 438.0
17.6 480.0
17.615 438.0
17.63 435.0
17.645 441.0
17.66 477.0
17.675 468.0
17.69 467.0
17.705 483.0
17.72 485.0
17.735 476.0
17.75 495.0
17.765 566.0
17.78 527.0
17.795 554.0
17.81 578.0
17.825 539.0
17.84 567.0
17.855 605.0
17.87 630.0
17.885 623.0
17.9 658.0
17.915 666.0
17.93 641.0
17.945 660.0
17.96 696.0
17.975 646.0
17.99 670.0
18.005 686.0
18.02 657.0
18.035 671.0
18.05 685.0
18.065 664.0
18.08 619.0
18.095 640.0
18.11 621.0
18.125 633.0
18.14 611.0
18.155 553.0
18.17 568.0
18.185 555.0
18.2 540.0
18.215 559.0
18.23 548.0
18.245 499.0
18.26 535.0
18.275 541.0
18.29 532.0
18.305 558.0
18.32 522.0
18.335 520.0
18.35 503.0
18.365 489.0
18.38 501.0
18.395 489.0
18.41 465.0
18.425 465.0
18.44 470.0
18.455 459.0
18.47 470.0
18.485 494.0
18.5 446.0
18.515 474.0
18.53 465.0
18.545 418.0
18.56 452.0
18.575 421.0
18.59 482.0
18.605 444.0
18.62 466.0
18.635 455.0
18.65 451.0
18.665 441.0
18.68 462.0
18.695 433.0
18.71 458.0
18.725 419.0
18.74 441.0
18.755 434.0
18.77 462.0
18.785 454.0
18.8 443.0
18.815 430.0
18.83 437.0
18.845 430.0
18.86 454.0
18.875 478.0
18.89 468.0
18.905 435.0
18.92 460.0
18.935 455.0
18.95 434.0
18.965 453.0
18.98 451.0
18.995 498.0
19.01 463.0
19.025 446.0
19.04 445.0
19.055 416.0
19.07 417.0
19.085 417.0
19.1 436.0
19.115 466.0
19.13 439.0
19.145 438.0
19.16 466.0
19.175 455.0
19.19 434.0
19.205 420.0
19.22 458.0
19.235 437.0
19.25 419.0
19.265 443.0
19.28 465.0
19.295 429.0
19.31 418.0
19.325 406.0
19.34 451.0
19.355 431.0
19.37 427.0
19.385 448.0
19.4 442.0
19.415 422.0
19.43 448.0
19.445 438.0
19.46 448.0
19.475 462.0
19.49 432.0
19.505 487.0
19.52 454.0
19.535 459.0
19.55 465.0
19.565 434.0
19.58 442.0
19.595 454.0
19.61 423.0
19.625 414.0
19.64 444.0
19.655 458.0
19.67 428.0
19.685 436.0
19.7 463.0
19.715 445.0
19.73 457.0
19.745 461.0
19.76 452.0
19.775 448.0
19.79 467.0
19.805 434.0
19.82 454.0
19.835 454.0
19.85 458.0
19.865 458.0
19.88 460.0
19.895 480.0
19.91 490.0
19.925 495.0
19.94 467.0
19.955 480.0
19.97 461.0
19.985 474.0
20.0 459.0
20.015 461.0
20.03 485.0
20.045 478.0
20.06 458.0
20.075 508.0
20.09 489.0
20.105 488.0
20.12 498.0
20.135 474.0
20.15 488.0
20.165 491.0
20.18 446.0
20.195 495.0
20.21 509.0
20.225 464.0
20.24 479.0
20.255 487.0
20.27 469.0
20.285 457.0
20.3 497.0
20.315 478.0
20.33 490.0
20.345 465.0
20.36 478.0
20.375 511.0
20.39 503.0
20.405 504.0
20.42 523.0
20.435 509.0
20.45 501.0
20.465 503.0
20.48 505.0
20.495 492.0
20.51 494.0
20.525 496.0
20.54 518.0
20.555 514.0
20.57 541.0
20.585 545.0
20.6 509.0
20.615 483.0
20.63 519.0
20.645 547.0
20.66 620.0
20.675 597.0
20.69 614.0
20.705 631.0
20.72 727.0
20.735 753.0
20.75 866.0
20.765 962.0
20.78 956.0
20.795 1063.0
20.81 1038.0
20.825 1022.0
20.84 1048.0
20.855 1005.0
20.87 962.0
20.885 925.0
20.9 951.0
20.915 923.0
20.93 911.0
20.945 850.0
20.96 842.0
20.975 778.0
20.99 742.0
21.005 693.0
21.02 642.0
21.035 642.0
21.05 590.0
21.065 609.0
21.08 581.0
21.095 607.0
21.11 602.0
21.125 576.0
21.14 579.0
21.155 568.0
21.17 580.0
21.185 557.0
21.2 540.0
21.215 536.0
21.23 544.0
21.245 499.0
21.26 508.0
21.275 560.0
21.29 575.0
21.305 529.0
21.32 528.0
21.335 522.0
21.35 496.0
21.365 512.0
21.38 528.0
21.395 493.0
21.41 535.0
21.425 545.0
21.44 522.0
21.455 541.0
21.47 527.0
21.485 518.0
21.5 511.0
21.515 552.0
21.53 531.0
21.545 474.0
21.56 513.0
21.575 526.0
21.59 544.0
21.605 519.0
21.62 509.0
21.635 511.0
21.65 496.0
21.665 518.0
21.68 532.0
21.695 540.0
21.71 537.0
21.725 533.0
21.74 520.0
21.755 527.0
21.77 519.0
21.785 493.0
21.8 521.0
21.815 530.0
21.83 528.0
21.845 552.0
21.86 544.0
21.875 556.0
21.89 538.0
21.905 553.0
21.92 541.0
21.935 529.0
21.95 496.0
21.965 523.0
21.98 550.0
21.995 493.0
22.01 512.0
22.025 520.0
22.04 535.0
22.055 520.0
22.07 505.0
22.085 524.0
22.1 533.0
22.115 517.0
22.13 519.0
22.145 505.0
22.16 510.0
22.175 539.0
22.19 505.0
22.205 523.0
22.22 536.0
22.235 507.0
22.25 529.0
22.265 514.0
22.28 534.0
22.295 545.0
22.31 528.0
22.325 545.0
22.34 559.0
22.355 540.0
22.37 540.0
22.385 534.0
22.4 565.0
22.415 498.0
22.43 492.0
22.445 525.0
22.46 533.0
22.475 580.0
22.49 516.0
22.505 519.0
22.52 529.0
22.535 529.0
22.55 527.0
22.565 568.0
22.58 548.0
22.595 524.0
22.61 519.0
22.625 553.0
22.64 518.0
22.655 550.0
22.67 532.0
22.685 544.0
22.7 548.0
22.715 529.0
22.73 547.0
22.745 564.0
22.76 550.0
22.775 541.0
22.79 545.0
22.805 566.0
22.82 546.0
22.835 537.0
22.85 559.0
22.865 527.0
22.88 542.0
22.895 560.0
22.91 532.0
22.925 532.0
22.94 527.0
22.955 542.0
22.97 534.0
22.985 517.0
23.0 539.0
23.015 573.0
23.03 582.0
23.045 595.0
23.06 553.0
23.075 517.0
23.09 540.0
23.105 557.0
23.12 559.0
23.135 574.0
23.15 544.0
23.165 550.0
23.18 534.0
23.195 523.0
23.21 578.0
23.225 566.0
23.24 562.0
23.255 544.0
23.27 530.0
23.285 590.0
23.3 576.0
23.315 573.0
23.33 531.0
23.345 544.0
23.36 554.0
23.375 568.0
23.39 557.0
23.405 547.0
23.42 553.0
23.435 556.0
23.45 554.0
23.465 592.0
23.48 561.0
23.495 562.0
23.51 549.0
23.525 568.0
23.54 572.0
23.555 576.0
23.57 559.0
23.585 577.0
23.6 570.0
23.615 551.0
23.63 531.0
23.645 534.0
23.66 563.0
23.675 590.0
23.69 580.0
23.705 539.0
23.72 543.0
23.735 564.0
23.75 552.0
23.765 568.0
23.78 538.0
23.795 563.0
23.81 560.0
23.825 577.0
23.84 567.0
23.855 577.0
23.87 614.0
23.885 613.0
23.9 611.0
23.915 598.0
23.93 590.0
23.945 559.0
23.96 564.0
23.975 585.0
23.99 608.0
24.005 585.0
24.02 582.0
24.035 607.0
24.05 589.0
24.065 633.0
24.08 618.0
24.095 632.0
24.11 697.0
24.125 724.0
24.14 743.0
24.155 724.0
24.17 733.0
24.185 737.0
24.2 743.0
24.215 778.0
24.23 727.0
24.245 721.0
24.26 795.0
24.275 807.0
24.29 827.0
24.305 780.0
24.32 774.0
24.335 734.0
24.35 720.0
24.365 707.0
24.38 702.0
24.395 659.0
24.41 668.0
24.425 680.0
24.44 661.0
24.455 665.0
24.47 636.0
24.485 661.0
24.5 621.0
24.515 614.0
24.53 686.0
24.545 686.0
24.56 642.0
24.575 667.0
24.59 662.0
24.605 692.0
24.62 721.0
24.635 741.0
24.65 771.0
24.665 800.0
24.68 790.0
24.695 776.0
24.71 806.0
24.725 810.0
24.74 862.0
24.755 855.0
24.77 859.0
24.785 930.0
24.8 880.0
24.815 926.0
24.83 908.0
24.845 926.0
24.86 907.0
24.875 934.0
24.89 1002.0
24.905 961.0
24.92 992.0
24.935 1018.0
24.95 1014.0
24.965 940.0
24.98 933.0
24.995 928.0
25.01 935.0
25.025 945.0
25.04 912.0
25.055 896.0
25.07 882.0
25.085 841.0
25.1 827.0
25.115 821.0
25.13 818.0
25.145 771.0
25.16 757.0
25.175 735.0
25.19 724.0
25.205 708.0
25.22 691.0
25.235 677.0
25.25 704.0
25.265 717.0
25.28 691.0
25.295 681.0
25.31 657.0
25.325 660.0
25.34 660.0
25.355 660.0
25.37 649.0
25.385 646.0
25.4 630.0
25.415 607.0
25.43 630.0
25.445 633.0
25.46 617.0
25.475 632.0
25.49 660.0
25.505 637.0
25.52 658.0
25.535 631.0
25.55 577.0
25.565 609.0
25.58 609.0
25.595 644.0
25.61 599.0
25.625 614.0
25.64 617.0
25.655 585.0
25.67 607.0
25.685 668.0
25.7 659.0
25.715 605.0
25.73 619.0
25.745 582.0
25.76 608.0
25.775 553.0
25.79 579.0
25.805 639.0
25.82 632.0
25.835 633.0
25.85 595.0
25.865 618.0
25.88 612.0
25.895 639.0
25.91 645.0
25.925 619.0
25.94 628.0
25.955 653.0
25.97 633.0
25.985 658.0
26.0 641.0
26.015 643.0
26.03 693.0
26.045 652.0
26.06 632.0
26.075 649.0
26.09 663.0
26.105 616.0
26.12 635.0
26.135 660.0
26.15 662.0
26.165 668.0
26.18 649.0
26.195 636.0
26.21 677.0
26.225 687.0
26.24 658.0
26.255 655.0
26.27 663.0
26.285 673.0
26.3 675.0
26.315 664.0
26.33 683.0
26.345 654.0
26.36 671.0
26.375 682.0
26.39 736.0
26.405 704.0
26.42 703.0
26.435 695.0
26.45 701.0
26.465 737.0
26.48 711.0
26.495 719.0
26.51 750.0
26.525 757.0
26.54 781.0
26.555 718.0
26.57 794.0
26.585 865.0
26.6 816.0
26.615 840.0
26.63 841.0
26.645 867.0
26.66 842.0
26.675 866.0
26.69 868.0
26.705 924.0
26.72 901.0
26.735 953.0
26.75 956.0
26.765 1045.0
26.78 1041.0
26.795 1043.0
26.81 1119.0
26.825 1114.0
26.84 1117.0
26.855 1298.0
26.87 1294.0
26.885 1371.0
26.9 1405.0
26.915 1477.0
26.93 1498.0
26.945 1579.0
26.96 1708.0
26.975 1708.0
26.99 1767.0
27.005 1768.0
27.02 1805.0
27.035 1929.0
27.05 1869.0
27.065 1804.0
27.08 1742.0
27.095 1730.0
27.11 1742.0
27.125 1635.0
27.14 1557.0
27.155 1481.0
27.17 1482.0
27.185 1448.0
27.2 1408.0
27.215 1370.0
27.23 1362.0
27.245 1361.0
27.26 1358.0
27.275 1286.0
27.29 1279.0
27.305 1293.0
27.32 1246.0
27.335 1307.0
27.35 1301.0
27.365 1236.0
27.38 1285.0
27.395 1311.0
27.41 1292.0
27.425 1325.0
27.44 1360.0
27.455 1364.0
27.47 1427.0
27.485 1465.0
27.5 1443.0
27.515 1501.0
27.53 1586.0
27.545 1626.0
27.56 1649.0
27.575 1686.0
27.59 1723.0
27.605 1737.0
27.62 1769.0
27.635 1907.0
27.65 1957.0
27.665 1928.0
27.68 2011.0
27.695 2013.0
27.71 1978.0
27.725 1963.0
27.74 1965.0
27.755 1915.0
27.77 1917.0
27.785 1869.0
27.8 1872.0
27.815 1762.0
27.83 1594.0
27.845 1625.0
27.86 1566.0
27.875 1499.0
27.89 1480.0
27.905 1361.0
27.92 1319.0
27.935 1274.0
27.95 1227.0
27.965 1152.0
27.98 1143.0
27.995 1161.0
28.01 1111.0
28.025 1066.0
28.04 1022.0
28.055 1035.0
28.07 991.0
28.085 928.0
28.1 965.0
28.115 908.0
28.13 867.0
28.145 879.0
28.16 824.0
28.175 868.0
28.19 794.0
28.205 790.0
28.22 773.0
28.235 772.0
28.25 785.0
28.265 789.0
28.28 778.0
28.295 761.0
28.31 713.0
28.325 737.0
28.34 764.0
28.355 739.0
28.37 710.0
28.385 760.0
28.4 703.0
28.415 694.0
28.43 662.0
28.445 691.0
28.46 673.0
28.475 690.0
28.49 711.0
28.505 650.0
28.52 662.0
28.535 667.0
28.55 657.0
28.565 633.0
28.58 654.0
28.595 645.0
28.61 626.0
28.625 601.0
28.64 616.0
28.655 647.0
28.67 633.0
28.685 628.0
28.7 615.0
28.715 665.0
28.73 625.0
28.745 580.0
28.76 627.0
28.775 631.0
28.79 632.0
28.805 627.0
28.82 574.0
28.835 622.0
28.85 587.0
28.865 588.0
28.88 630.0
28.895 612.0
28.91 636.0
28.925 639.0
28.94 649.0
28.955 622.0
28.97 610.0
28.985 614.0
29.0 614.0
29.015 629.0
29.03 622.0
29.045 605.0
29.06 616.0
29.075 654.0
29.09 611.0
29.105 593.0
29.12 621.0
29.135 625.0
29.15 659.0
29.165 649.0
29.18 618.0
29.195 632.0
29.21 607.0
29.225 648.0
29.24 664.0
29.255 685.0
29.27 639.0
29.285 656.0
29.3 653.0
29.315 678.0
29.33 701.0
29.345 667.0
29.36 675.0
29.375 658.0
29.39 675.0
29.405 666.0
29.42 715.0
29.435 741.0
29.45 764.0
29.465 707.0
29.48 719.0
29.495 782.0
29.51 772.0
29.525 769.0
29.54 769.0
29.555 764.0
29.57 785.0
29.585 794.0
29.6 811.0
29.615 804.0
29.63 799.0
29.645 790.0
29.66 846.0
29.675 839.0
29.69 814.0
29.705 771.0
29.72 786.0
29.735 761.0
29.75 762.0
29.765 794.0
29.78 765.0
29.795 732.0
29.81 719.0
29.825 679.0
29.84 683.0
29.855 699.0
29.87 650.0
29.885 660.0
29.9 671.0
29.915 690.0
29.93 650.0
29.945 606.0
29.96 629.0
29.975 604.0
29.99 576.0
30.005 568.0
30.02 561.0
30.035 580.0
30.05 559.0
30.065 540.0
30.08 537.0
30.095 533.0
30.11 501.0
30.125 548.0
30.14 525.0
30.155 514.0
30.17 472.0
30.185 486.0
30.2 479.0
30.215 494.0
30.23 498.0
30.245 468.0
30.26 452.0
30.275 498.0
30.29 463.0
30.305 478.0
30.32 470.0
30.335 440.0
30.35 452.0
30.365 429.0
30.38 464.0
30.395 437.0
30.41 463.0
30.425 459.0
30.44 498.0
30.455 456.0
30.47 456.0
30.485 469.0
30.5 433.0
30.515 430.0
30.53 475.0
30.545 459.0
30.56 444.0
30.575 441.0
30.59 468.0
30.605 451.0
30.62 434.0
30.635 469.0
30.65 445.0
30.665 427.0
30.68 476.0
30.695 427.0
30.71 420.0
30.725 473.0
30.74 448.0
30.755 426.0
30.77 427.0
30.785 437.0
30.8 426.0
30.815 430.0
30.83 415.0
30.845 431.0
30.86 430.0
30.875 423.0
30.89 444.0
30.905 420.0
30.92 416.0
30.935 418.0
30.95 427.0
30.965 433.0
30.98 440.0
30.995 458.0
31.01 430.0
31.025 405.0
31.04 395.0
31.055 420.0
31.07 422.0
31.085 443.0
31.1 409.0
31.115 432.0
31.13 421.0
31.145 413.0
31.16 452.0
31.175 408.0
31.19 410.0
31.205 412.0
31.22 422.0
31.235 415.0
31.25 424.0
31.265 424.0
31.28 394.0
31.295 411.0
31.31 401.0
31.325 405.0
31.34 426.0
31.355 403.0
31.37 389.0
31.385 400.0
31.4 387.0
31.415 434.0
31.43 421.0
31.445 394.0
31.46 388.0
31.475 403.0
31.49 421.0
31.505 391.0
31.52 405.0
31.535 396.0
31.55 393.0
31.565 420.0
31.58 401.0
31.595 409.0
31.61 398.0
31.625 430.0
31.64 398.0
31.655 411.0
31.67 427.0
31.685 407.0
31.7 379.0
31.715 411.0
31.73 423.0
31.745 424.0
31.76 391.0
31.775 400.0
31.79 402.0
31.805 432.0
31.82 405.0
31.835 423.0
31.85 417.0
31.865 455.0
31.88 432.0
31.895 454.0
31.91 495.0
31.925 497.0
31.94 526.0
31.955 572.0
31.97 617.0
31.985 660.0
32.0 649.0
32.015 650.0
32.03 683.0
32.045 664.0
32.06 626.0
32.075 611.0
32.09 675.0
32.105 656.0
32.12 659.0
32.135 677.0
32.15 673.0
32.165 673.0
32.18 682.0
32.195 701.0
32.21 716.0
32.225 703.0
32.24 692.0
32.255 680.0
32.27 668.0
32.285 618.0
32.3 608.0
32.315 632.0
32.33 611.0
32.345 566.0
32.36 577.0
32.375 550.0
32.39 509.0
32.405 500.0
32.42 445.0
32.435 451.0
32.45 446.0
32.465 421.0
32.48 425.0
32.495 422.0
32.51 405.0
32.525 443.0
32.54 398.0
32.555 408.0
32.57 405.0
32.585 391.0
32.6 421.0
32.615 417.0
32.63 391.0
32.645 397.0
32.66 384.0
32.675 380.0
32.69 393.0
32.705 375.0
32.72 397.0
32.735 374.0
32.75 374.0
32.765 391.0
32.78 373.0
32.795 381.0
32.81 385.0
32.825 378.0
32.84 408.0
32.855 376.0
32.87 371.0
32.885 379.0
32.9 371.0
32.915 395.0
32.93 393.0
32.945 356.0
32.96 368.0
32.975 370.0
32.99 377.0
33.005 385.0
33.02 392.0
33.035 361.0
33.05 381.0
33.065 381.0
33.08 395.0
33.095 351.0
33.11 351.0
33.125 356.0
33.14 355.0
33.155 385.0
33.17 367.0
33.185 367.0
33.2 349.0
33.215 351.0
33.23 370.0
33.245 370.0
33.26 392.0
33.275 393.0
33.29 355.0
33.305 332.0
33.32 343.0
33.335 334.0
33.35 342.0
33.365 337.0
33.38 353.0
33.395 340.0
33.41 364.0
33.425 364.0
33.44 355.0
33.455 340.0
33.47 358.0
33.485 366.0
33.5 362.0
33.515 358.0
33.53 359.0
33.545 359.0
33.56 389.0
33.575 342.0
33.59 340.0
33.605 340.0
33.62 340.0
33.635 340.0
33.65 335.0
33.665 331.0
33.68 362.0
33.695 349.0
33.71 347.0
33.725 336.0
33.74 354.0
33.755 370.0
33.77 367.0
33.785 347.0
33.8 357.0
33.815 351.0
33.83 320.0
33.845 310.0
33.86 340.0
33.875 339.0
33.89 336.0
33.905 313.0
33.92 342.0
33.935 362.0
33.95 355.0
33.965 329.0
33.98 335.0
33.995 340.0
34.01 364.0
34.025 331.0
34.04 330.0
34.055 334.0
34.07 333.0
34.085 317.0
34.1 342.0
34.115 350.0
34.13 354.0
34.145 357.0
34.16 349.0
34.175 336.0
34.19 331.0
34.205 341.0
34.22 337.0
34.235 343.0
34.25 360.0
34.265 345.0
34.28 351.0
34.295 340.0
34.31 348.0
34.325 360.0
34.34 362.0
34.355 374.0
34.37 340.0
34.385 376.0
34.4 376.0
34.415 336.0
34.43 361.0
34.445 367.0
34.46 323.0
34.475 365.0
34.49 354.0
34.505 333.0
34.52 342.0
34.535 346.0
34.55 348.0
34.565 356.0
34.58 341.0
34.595 338.0
34.61 341.0
34.625 383.0
34.64 372.0
34.655 363.0
34.67 365.0
34.685 374.0
34.7 351.0
34.715 364.0
34.73 368.0
34.745 374.0
34.76 390.0
34.775 390.0
34.79 385.0
34.805 371.0
34.82 369.0
34.835 378.0
34.85 367.0
34.865 388.0
34.88 382.0
34.895 401.0
34.91 390.0
34.925 385.0
34.94 389.0
34.955 384.0
34.97 407.0
34.985 430.0
35.0 389.0
35.015 395.0
35.03 418.0
35.045 409.0
35.06 400.0
35.075 391.0
35.09 404.0
35.105 400.0
35.12 378.0
35.135 376.0
35.15 399.0
35.165 400.0
35.18 384.0
35.195 393.0
35.21 385.0
35.225 341.0
35.24 334.0
35.255 352.0
35.27 339.0
35.285 333.0
35.3 345.0
35.315 319.0
35.33 324.0
35.345 332.0
35.36 343.0
35.375 326.0
35.39 314.0
35.405 334.0
35.42 317.0
35.435 322.0
35.45 305.0
35.465 318.0
35.48 308.0
35.495 309.0
35.51 312.0
35.525 287.0
35.54 327.0
35.555 335.0
35.57 315.0
35.585 309.0
35.6 284.0
35.615 287.0
35.63 313.0
35.645 308.0
35.66 317.0
35.675 322.0
35.69 336.0
35.705 297.0
35.72 326.0
35.735 304.0
35.75 308.0
35.765 314.0
35.78 284.0
35.795 293.0
35.81 320.0
35.825 317.0
35.84 327.0
35.855 307.0
35.87 293.0
35.885 317.0
35.9 300.0
35.915 289.0
35.93 297.0
35.945 270.0
35.96 306.0
35.975 312.0
35.99 300.0
36.005 297.0
36.02 293.0
36.035 281.0
36.05 264.0
36.065 288.0
36.08 290.0
36.095 312.0
36.11 306.0
36.125 280.0
36.14 285.0
36.155 272.0
36.17 285.0
36.185 275.0
36.2 311.0
36.215 301.0
36.23 267.0
36.245 275.0
36.26 287.0
36.275 278.0
36.29 313.0
36.305 321.0
36.32 321.0
36.335 284.0
36.35 279.0
36.365 285.0
36.38 305.0
36.395 302.0
36.41 276.0
36.425 287.0
36.44 289.0
36.455 301.0
36.47 305.0
36.485 316.0
36.5 303.0
36.515 324.0
36.53 309.0
36.545 292.0
36.56 298.0
36.575 289.0
36.59 313.0
36.605 287.0
36.62 273.0
36.635 270.0
36.65 298.0
36.665 296.0
36.68 305.0
36.695 283.0
36.71 307.0
36.725 301.0
36.74 291.0
36.755 277.0
36.77 304.0
36.785 308.0
36.8 300.0
36.815 291.0
36.83 274.0
36.845 269.0
36.86 263.0
36.875 280.0
36.89 286.0
36.905 302.0
36.92 278.0
36.935 279.0
36.95 294.0
36.965 285.0
36.98 254.0
36.995 287.0
37.01 275.0
37.025 264.0
37.04 278.0
37.055 271.0
37.07 249.0
37.085 269.0
37.1 258.0
37.115 264.0
37.13 258.0
37.145 287.0
37.16 268.0
37.175 254.0
37.19 267.0
37.205 258.0
37.22 252.0
37.235 253.0
37.25 244.0
37.265 267.0
37.28 261.0
37.295 269.0
37.31 265.0
37.325 273.0
37.34 275.0
37.355 265.0
37.37 262.0
37.385 277.0
37.4 266.0
37.415 244.0
37.43 237.0
37.445 256.0
37.46 247.0
37.475 251.0
37.49 256.0
37.505 275.0
37.52 262.0
37.535 276.0
37.55 278.0
37.565 249.0
37.58 274.0
37.595 280.0
37.61 292.0
37.625 275.0
37.64 247.0
37.655 255.0
37.67 261.0
37.685 247.0
37.7 252.0
37.715 261.0
37.73 277.0
37.745 260.0
37.76 269.0
37.775 284.0
37.79 248.0
37.805 240.0
37.82 238.0
37.835 251.0
37.85 251.0
37.865 271.0
37.88 266.0
37.895 289.0
37.91 243.0
37.925 244.0
37.94 258.0
37.955 242.0
37.97 267.0
37.985 293.0
38.0 261.0
38.015 224.0
38.03 255.0
38.045 246.0
38.06 262.0
38.075 256.0
38.09 277.0
38.105 246.0
38.12 265.0
38.135 250.0
38.15 261.0
38.165 236.0
38.18 264.0
38.195 256.0
38.21 247.0
38.225 279.0
38.24 248.0
38.255 241.0
38.27 258.0
38.285 253.0
38.3 259.0
38.315 263.0
38.33 244.0
38.345 240.0
38.36 248.0
38.375 280.0
38.39 253.0
38.405 258.0
38.42 261.0
38.435 262.0
38.45 263.0
38.465 263.0
38.48 265.0
38.495 280.0
38.51 263.0
38.525 255.0
38.54 242.0
38.555 253.0
38.57 249.0
38.585 273.0
38.6 258.0
38.615 262.0
38.63 235.0
38.645 235.0
38.66 270.0
38.675 253.0
38.69 257.0
38.705 261.0
38.72 269.0
38.735 260.0
38.75 237.0
38.765 245.0
38.78 218.0
38.795 230.0
38.81 228.0
38.825 249.0
38.84 276.0
38.855 258.0
38.87 253.0
38.885 235.0
38.9 248.0
38.915 261.0
38.93 282.0
38.945 277.0
38.96 267.0
38.975 253.0
38.99 260.0
39.005 254.0
39.02 248.0
39.035 276.0
39.05 281.0
39.065 262.0
39.08 276.0
39.095 288.0
39.11 273.0
39.125 254.0
39.14 263.0
39.155 260.0
39.17 250.0
39.185 271.0
39.2 277.0
39.215 240.0
39.23 226.0
39.245 271.0
39.26 253.0
39.275 255.0
39.29 247.0
39.305 278.0
39.32 289.0
39.335 262.0
39.35 280.0
39.365 269.0
39.38 272.0
39.395 288.0
39.41 262.0
39.425 273.0
39.44 289.0
39.455 281.0
39.47 283.0
39.485 283.0
39.5 273.0
39.515 285.0
39.53 293.0
39.545 299.0
39.56 309.0
39.575 281.0
39.59 291.0
39.605 321.0
39.62 309.0
39.635 299.0
39.65 312.0
39.665 306.0
39.68 320.0
39.695 340.0
39.71 311.0
39.725 314.0
39.74 343.0
39.755 361.0
39.77 351.0
39.785 326.0
39.8 317.0
39.815 343.0
39.83 295.0
39.845 320.0
39.86 325.0
39.875 290.0
39.89 310.0
39.905 307.0
39.92 278.0
39.935 278.0
39.95 282.0
39.965 286.0
39.98 279.0
39.995 258.0
40.01 302.0
40.025 295.0
40.04 263.0
40.055 264.0
40.07 260.0
40.085 277.0
40.1 262.0
40.115 267.0
40.13 244.0
40.145 273.0
40.16 253.0
40.175 254.0
40.19 235.0
40.205 238.0
40.22 272.0
40.235 265.0
40.25 264.0
40.265 235.0
40.28 270.0
40.295 255.0
40.31 242.0
40.325 241.0
40.34 238.0
40.355 244.0
40.37 257.0
40.385 241.0
40.4 227.0
40.415 230.0
40.43 253.0
40.445 237.0
40.46 229.0
40.475 227.0
40.49 259.0
40.505 213.0
40.52 254.0
40.535 262.0
40.55 257.0
40.565 237.0
40.58 230.0
40.595 240.0
40.61 253.0
40.625 239.0
40.64 224.0
40.655 231.0
40.67 238.0
40.685 246.0
40.7 250.0
40.715 244.0
40.73 238.0
40.745 258.0
40.76 238.0
40.775 238.0
40.79 236.0
40.805 225.0
40.82 252.0
40.835 238.0
40.85 261.0
40.865 242.0
40.88 256.0
40.895 252.0
40.91 233.0
40.925 243.0
40.94 265.0
40.955 237.0
40.97 247.0
40.985 242.0
41.0 250.0
41.015 239.0
41.03 229.0
41.045 232.0
41.06 248.0
41.075 248.0
41.09 267.0
41.105 247.0
41.12 241.0
41.135 257.0
41.15 260.0
41.165 258.0
41.18 262.0
41.195 245.0
41.21 238.0
41.225 254.0
41.24 257.0
41.255 268.0
41.27 274.0
41.285 261.0
41.3 249.0
41.315 261.0
41.33 249.0
41.345 243.0
41.36 263.0
41.375 257.0
41.39 256.0
41.405 253.0
41.42 256.0
41.435 264.0
41.45 242.0
41.465 255.0
41.48 231.0
41.495 236.0
41.51 269.0
41.525 256.0
41.54 239.0
41.555 253.0
41.57 249.0
41.585 247.0
41.6 235.0
41.615 243.0
41.63 277.0
41.645 272.0
41.66 258.0
41.675 237.0
41.69 254.0
41.705 248.0
41.72 246.0
41.735 238.0
41.75 247.0
41.765 253.0
41.78 254.0
41.795 277.0
41.81 256.0
41.825 260.0
41.84 239.0
41.855 256.0
41.87 245.0
41.885 246.0
41.9 252.0
41.915 250.0
41.93 259.0
41.945 235.0
41.96 253.0
41.975 257.0
41.99 254.0
42.005 259.0
42.02 267.0
42.035 257.0
42.05 260.0
42.065 290.0
42.08 272.0
42.095 257.0
42.11 269.0
42.125 272.0
42.14 278.0
42.155 293.0
42.17 291.0
42.185 279.0
42.2 288.0
42.215 338.0
42.23 341.0
42.245 341.0
42.26 343.0
42.275 348.0
42.29 374.0
42.305 368.0
42.32 351.0
42.335 330.0
42.35 332.0
42.365 304.0
42.38 317.0
42.395 312.0
42.41 311.0
42.425 313.0
42.44 318.0
42.455 331.0
42.47 323.0
42.485 304.0
42.5 289.0
42.515 327.0
42.53 322.0
42.545 334.0
42.56 346.0
42.575 339.0
42.59 363.0
42.605 337.0
42.62 359.0
42.635 362.0
42.65 369.0
42.665 346.0
42.68 373.0
42.695 352.0
42.71 367.0
42.725 321.0
42.74 349.0
42.755 323.0
42.77 316.0
42.785 322.0
42.8 305.0
42.815 290.0
42.83 279.0
42.845 262.0
42.86 266.0
42.875 276.0
42.89 302.0
42.905 284.0
42.92 300.0
42.935 301.0
42.95 288.0
42.965 286.0
42.98 282.0
42.995 266.0
43.01 268.0
43.025 271.0
43.04 278.0
43.055 287.0
43.07 275.0
43.085 290.0
43.1 270.0
43.115 270.0
43.13 274.0
43.145 268.0
43.16 272.0
43.175 258.0
43.19 239.0
43.205 259.0
43.22 264.0
43.235 276.0
43.25 277.0
43.265 265.0
43.28 249.0
43.295 267.0
43.31 244.0
43.325 268.0
43.34 262.0
43.355 263.0
43.37 270.0
43.385 283.0
43.4 261.0
43.415 266.0
43.43 251.0
43.445 240.0
43.46 246.0
43.475 253.0
43.49 253.0
43.505 262.0
43.52 260.0
43.535 252.0
43.55 256.0
43.565 253.0
43.58 265.0
43.595 254.0
43.61 264.0
43.625 266.0
43.64 259.0
43.655 253.0
43.67 279.0
43.685 284.0
43.7 278.0
43.715 258.0
43.73 275.0
43.745 240.0
43.76 243.0
43.775 228.0
43.79 269.0
43.805 271.0
43.82 257.0
43.835 247.0
43.85 267.0
43.865 288.0
43.88 271.0
43.895 298.0
43.91 273.0
43.925 282.0
43.94 271.0
43.955 300.0
43.97 275.0
43.985 279.0
44.0 283.0
44.015 274.0
44.03 279.0
44.045 300.0
44.06 297.0
44.075 289.0
44.09 299.0
44.105 287.0
44.12 301.0
44.135 302.0
44.15 299.0
44.165 314.0
44.18 320.0
44.195 306.0
44.21 310.0
44.225 344.0
44.24 338.0
44.255 358.0
44.27 368.0
44.285 384.0
44.3 392.0
44.315 393.0
44.33 425.0
44.345 450.0
44.36 439.0
44.375 435.0
44.39 448.0
44.405 458.0
44.42 412.0
44.435 416.0
44.45 428.0
44.465 390.0
44.48 395.0
44.495 430.0
44.51 405.0
44.525 397.0
44.54 406.0
44.555 447.0
44.57 436.0
44.585 419.0
44.6 415.0
44.615 438.0
44.63 435.0
44.645 432.0
44.66 442.0
44.675 460.0
44.69 425.0
44.705 460.0
44.72 454.0
44.735 420.0
44.75 434.0
44.765 439.0
44.78 442.0
44.795 434.0
44.81 471.0
44.825 479.0
44.84 489.0
44.855 489.0
44.87 465.0
44.885 463.0
44.9 481.0
44.915 462.0
44.93 447.0
44.945 466.0
44.96 477.0
44.975 450.0
44.99 484.0
45.005 454.0
45.02 435.0
45.035 434.0
45.05 404.0
45.065 382.0
45.08 395.0
45.095 394.0
45.11 365.0
45.125 379.0
45.14 344.0
45.155 331.0
45.17 333.0
45.185 346.0
45.2 343.0
45.215 344.0
45.23 301.0
45.245 307.0
45.26 297.0
45.275 308.0
45.29 302.0
45.305 312.0
45.32 276.0
45.335 282.0
45.35 278.0
45.365 264.0
45.38 270.0
45.395 283.0
45.41 277.0
45.425 256.0
45.44 263.0
45.455 266.0
45.47 251.0
45.485 251.0
45.5 280.0
45.515 260.0
45.53 248.0
45.545 253.0
45.56 253.0
45.575 239.0
45.59 243.0
45.605 248.0
45.62 258.0
45.635 251.0
45.65 259.0
45.665 260.0
45.68 237.0
45.695 248.0
45.71 261.0
45.725 233.0
45.74 249.0
45.755 248.0
45.77 250.0
45.785 232.0
45.8 251.0
45.815 253.0
45.83 253.0
45.845 237.0
45.86 238.0
45.875 241.0
45.89 237.0
45.905 249.0
45.92 234.0
45.935 232.0
45.95 241.0
45.965 246.0
45.98 247.0
45.995 243.0
46.01 266.0
46.025 253.0
46.04 251.0
46.055 248.0
46.07 245.0
46.085 241.0
46.1 237.0
46.115 240.0
46.13 238.0
46.145 248.0
46.16 222.0
46.175 244.0
46.19 249.0
46.205 252.0
46.22 232.0
46.235 260.0
46.25 269.0
46.265 255.0
46.28 244.0
46.295 257.0
46.31 247.0
46.325 265.0
46.34 268.0
46.355 276.0
46.37 277.0
46.385 268.0
46.4 272.0
46.415 273.0
46.43 274.0
46.445 255.0
46.46 273.0
46.475 263.0
46.49 259.0
46.505 265.0
46.52 249.0
46.535 257.0
46.55 250.0
46.565 246.0
46.58 264.0
46.595 251.0
46.61 267.0
46.625 256.0
46.64 267.0
46.655 268.0
46.67 293.0
46.685 277.0
46.7 249.0
46.715 240.0
46.73 267.0
46.745 262.0
46.76 242.0
46.775 261.0
46.79 271.0
46.805 264.0
46.82 254.0
46.835 266.0
46.85 275.0
46.865 246.0
46.88 239.0
46.895 240.0
46.91 219.0
46.925 229.0
46.94 233.0
46.955 273.0
46.97 249.0
46.985 240.0
47.0 243.0
47.015 242.0
47.03 246.0
47.045 230.0
47.06 252.0
47.075 249.0
47.09 229.0
47.105 225.0
47.12 236.0
47.135 243.0
47.15 229.0
47.165 218.0
47.18 207.0
47.195 217.0
47.21 223.0
47.225 228.0
47.24 220.0
47.255 223.0
47.27 218.0
47.285 231.0
47.3 236.0
47.315 222.0
47.33 223.0
47.345 218.0
47.36 210.0
47.375 220.0
47.39 209.0
47.405 232.0
47.42 198.0
47.435 223.0
47.45 210.0
47.465 209.0
47.48 235.0
47.495 234.0
47.51 231.0
47.525 214.0
47.54 226.0
47.555 242.0
47.57 236.0
47.585 231.0
47.6 197.0
47.615 226.0
47.63 231.0
47.645 226.0
47.66 234.0
47.675 224.0
47.69 200.0
47.705 202.0
47.72 231.0
47.735 235.0
47.75 218.0
47.765 205.0
47.78 206.0
47.795 209.0
47.81 202.0
47.825 215.0
47.84 210.0
47.855 187.0
47.87 196.0
47.885 207.0
47.9 210.0
47.915 203.0
47.93 220.0
47.945 208.0
47.96 212.0
47.975 204.0
47.99 216.0
48.005 222.0
48.02 212.0
48.035 217.0
48.05 217.0
48.065 212.0
48.08 197.0
48.095 198.0
48.11 216.0
48.125 231.0
48.14 222.0
48.155 206.0
48.17 213.0
48.185 212.0
48.2 196.0
48.215 197.0
48.23 214.0
48.245 212.0
48.26 210.0
48.275 220.0
48.29 213.0
48.305 199.0
48.32 222.0
48.335 219.0
48.35 215.0
48.365 210.0
48.38 215.0
48.395 208.0
48.41 205.0
48.425 201.0
48.44 208.0
48.455 209.0
48.47 203.0
48.485 191.0
48.5 186.0
48.515 198.0
48.53 190.0
48.545 208.0
48.56 209.0
48.575 221.0
48.59 206.0
48.605 228.0
48.62 204.0
48.635 200.0
48.65 204.0
48.665 224.0
48.68 214.0
48.695 213.0
48.71 218.0
48.725 210.0
48.74 213.0
48.755 225.0
48.77 216.0
48.785 232.0
48.8 211.0
48.815 213.0
48.83 217.0
48.845 203.0
48.86 180.0
48.875 186.0
48.89 205.0
48.905 211.0
48.92 218.0
48.935 207.0
48.95 205.0
48.965 203.0
48.98 199.0
48.995 205.0
49.01 207.0
49.025 202.0
49.04 216.0
49.055 203.0
49.07 204.0
49.085 201.0
49.1 193.0
49.115 207.0
49.13 219.0
49.145 202.0
49.16 209.0
49.175 203.0
49.19 216.0
49.205 210.0
49.22 219.0
49.235 201.0
49.25 220.0
49.265 221.0
49.28 195.0
49.295 220.0
49.31 236.0
49.325 214.0
49.34 215.0
49.355 214.0
49.37 225.0
49.385 235.0
49.4 216.0
49.415 202.0
49.43 217.0
49.445 208.0
49.46 212.0
49.475 220.0
49.49 223.0
49.505 219.0
49.52 211.0
49.535 207.0
49.55 198.0
49.565 184.0
49.58 212.0
49.595 234.0
49.61 209.0
49.625 207.0
49.64 203.0
49.655 237.0
49.67 208.0
49.685 202.0
49.7 202.0
49.715 203.0
49.73 211.0
49.745 213.0
49.76 199.0
49.775 190.0
49.79 200.0
49.805 201.0
49.82 205.0
49.835 206.0
49.85 203.0
49.865 200.0
49.88 201.0
49.895 211.0
49.91 209.0
49.925 208.0
49.94 190.0
49.955 214.0
49.97 213.0
49.985 196.0
50.0 222.0
50.015 217.0
50.03 226.0
50.045 210.0
50.06 235.0
50.075 183.0
50.09 193.0
50.105 218.0
50.12 233.0
50.135 220.0
50.15 196.0
50.165 198.0
50.18 176.0
50.195 222.0
50.21 230.0
50.225 243.0
50.24 236.0
50.255 232.0
50.27 197.0
50.285 187.0
50.3 190.0
50.315 212.0
50.33 215.0
50.345 197.0
50.36 195.0
50.375 220.0
50.39 231.0
50.405 243.0
50.42 224.0
50.435 212.0
50.45 213.0
50.465 221.0
50.48 230.0
50.495 195.0
50.51 214.0
50.525 217.0
50.54 235.0
50.555 237.0
50.57 223.0
50.585 235.0
50.6 223.0
50.615 231.0
50.63 207.0
50.645 207.0
50.66 221.0
50.675 228.0
50.69 207.0
50.705 208.0
50.72 200.0
50.735 206.0
50.75 230.0
50.765 233.0
50.78 194.0
50.795 215.0
50.81 210.0
50.825 236.0
50.84 228.0
50.855 220.0
50.87 229.0
50.885 221.0
50.9 224.0
50.915 209.0
50.93 235.0
50.945 217.0
50.96 214.0
50.975 213.0
50.99 215.0
51.005 227.0
51.02 217.0
51.035 231.0
51.05 227.0
51.065 209.0
51.08 213.0
51.095 231.0
51.11 234.0
51.125 240.0
51.14 212.0
51.155 225.0
51.17 199.0
51.185 197.0
51.2 193.0
51.215 194.0
51.23 214.0
51.245 237.0
51.26 208.0
51.275 204.0
51.29 195.0
51.305 218.0
51.32 215.0
51.335 233.0
51.35 230.0
51.365 226.0
51.38 225.0
51.395 210.0
51.41 203.0
51.425 189.0
51.44 208.0
51.455 215.0
51.47 203.0
51.485 195.0
51.5 197.0
51.515 204.0
51.53 218.0
51.545 217.0
51.56 192.0
51.575 192.0
51.59 208.0
51.605 191.0
51.62 189.0
51.635 191.0
51.65 222.0
51.665 194.0
51.68 184.0
51.695 200.0
51.71 205.0
51.725 197.0
51.74 207.0
51.755 198.0
51.77 206.0
51.785 222.0
51.8 193.0
51.815 201.0
51.83 209.0
51.845 205.0
51.86 197.0
51.875 208.0
51.89 195.0
51.905 210.0
51.92 205.0
51.935 211.0
51.95 199.0
51.965 205.0
51.98 200.0
51.995 196.0
52.01 209.0
52.025 209.0
52.04 199.0
52.055 195.0
52.07 189.0
52.085 192.0
52.1 209.0
52.115 172.0
52.13 177.0
52.145 197.0
52.16 224.0
52.175 214.0
52.19 200.0
52.205 198.0
52.22 233.0
52.235 223.0
52.25 200.0
52.265 193.0
52.28 205.0
52.295 208.0
52.31 208.0
52.325 176.0
52.34 201.0
52.355 228.0
52.37 197.0
52.385 201.0
52.4 188.0
52.415 169.0
52.43 185.0
52.445 201.0
52.46 198.0
52.475 189.0
52.49 226.0
52.505 223.0
52.52 202.0
52.535 192.0
52.55 199.0
52.565 186.0
52.58 186.0
52.595 202.0
52.61 212.0
52.625 219.0
52.64 210.0
52.655 223.0
52.67 200.0
52.685 206.0
52.7 207.0
52.715 207.0
52.73 227.0
52.745 241.0
52.76 213.0
52.775 206.0
52.79 200.0
52.805 205.0
52.82 201.0
52.835 223.0
52.85 186.0
52.865 180.0
52.88 204.0
52.895 212.0
52.91 202.0
52.925 199.0
52.94 202.0
52.955 205.0
52.97 194.0
52.985 211.0
53.0 201.0
53.015 198.0
53.03 199.0
53.045 225.0
53.06 215.0
53.075 199.0
53.09 197.0
53.105 206.0
53.12 212.0
53.135 211.0
53.15 206.0
53.165 200.0
53.18 207.0
53.195 206.0
53.21 189.0
53.225 205.0
53.24 207.0
53.255 203.0
53.27 197.0
53.285 192.0
53.3 175.0
53.315 188.0
53.33 180.0
53.345 192.0
53.36 214.0
53.375 180.0
53.39 203.0
53.405 214.0
53.42 198.0
53.435 191.0
53.45 193.0
53.465 189.0
53.48 195.0
53.495 202.0
53.51 187.0
53.525 184.0
53.54 178.0
53.555 204.0
53.57 181.0
53.585 201.0
53.6 206.0
53.615 183.0
53.63 179.0
53.645 201.0
53.66 204.0
53.675 189.0
53.69 194.0
53.705 185.0
53.72 200.0
53.735 214.0
53.75 202.0
53.765 197.0
53.78 204.0
53.795 189.0
53.81 186.0
53.825 213.0
53.84 210.0
53.855 194.0
53.87 194.0
53.885 199.0
53.9 209.0
53.915 201.0
53.93 204.0
53.945 207.0
53.96 208.0
53.975 213.0
53.99 214.0
54.005 212.0
54.02 217.0
54.035 223.0
54.05 225.0
54.065 218.0
54.08 203.0
54.095 210.0
54.11 207.0
54.125 217.0
54.14 204.0
54.155 216.0
54.17 210.0
54.185 215.0
54.2 223.0
54.215 228.0
54.23 219.0
54.245 217.0
54.26 229.0
54.275 225.0
54.29 216.0
54.305 233.0
54.32 221.0
54.335 204.0
54.35 215.0
54.365 202.0
54.38 199.0
54.395 207.0
54.41 208.0
54.425 206.0
54.44 200.0
54.455 207.0
54.47 197.0
54.485 207.0
54.5 214.0
54.515 214.0
54.53 225.0
54.545 230.0
54.56 208.0
54.575 208.0
54.59 212.0
54.605 213.0
54.62 221.0
54.635 206.0
54.65 201.0
54.665 228.0
54.68 218.0
54.695 202.0
54.71 191.0
54.725 198.0
54.74 202.0
54.755 201.0
54.77 214.0
54.785 208.0
54.8 198.0
54.815 206.0
54.83 210.0
54.845 196.0
54.86 210.0
54.875 204.0
54.89 186.0
54.905 192.0
54.92 207.0
54.935 204.0
54.95 186.0
54.965 177.0
54.98 180.0
54.995 213.0
55.01 194.0
55.025 200.0
55.04 207.0
55.055 200.0
55.07 212.0
55.085 193.0
55.1 183.0
55.115 206.0
55.13 189.0
55.145 215.0
55.16 208.0
55.175 214.0
55.19 200.0
55.205 207.0
55.22 199.0
55.235 233.0
55.25 217.0
55.265 217.0
55.28 208.0
55.295 202.0
55.31 190.0
55.325 182.0
55.34 195.0
55.355 207.0
55.37 200.0
55.385 198.0
55.4 207.0
55.415 198.0
55.43 198.0
55.445 193.0
55.46 207.0
55.475 202.0
55.49 210.0
55.505 199.0
55.52 214.0
55.535 223.0
55.55 216.0
55.565 226.0
55.58 214.0
55.595 232.0
55.61 219.0
55.625 220.0
55.64 237.0
55.655 212.0
55.67 211.0
55.685 217.0
55.7 220.0
55.715 221.0
55.73 246.0
55.745 247.0
55.76 219.0
55.775 231.0
55.79 242.0
55.805 256.0
55.82 245.0
55.835 259.0
55.85 256.0
55.865 226.0
55.88 265.0
55.895 251.0
55.91 245.0
55.925 282.0
55.94 267.0
55.955 249.0
55.97 275.0
55.985 268.0
56.0 262.0
56.015 287.0
56.03 285.0
56.045 281.0
56.06 274.0
56.075 267.0
56.09 287.0
56.105 268.0
56.12 263.0
56.135 276.0
56.15 273.0
56.165 274.0
56.18 278.0
56.195 292.0
56.21 266.0
56.225 270.0
56.24 284.0
56.255 242.0
56.27 269.0
56.285 287.0
56.3 316.0
56.315 288.0
56.33 261.0
56.345 252.0
56.36 261.0
56.375 262.0
56.39 260.0
56.405 257.0
56.42 287.0
56.435 283.0
56.45 264.0
56.465 248.0
56.48 271.0
56.495 272.0
56.51 267.0
56.525 269.0
56.54 242.0
56.555 259.0
56.57 244.0
56.585 255.0
56.6 249.0
56.615 250.0
56.63 234.0
56.645 247.0
56.66 238.0
56.675 239.0
56.69 248.0
56.705 230.0
56.72 242.0
56.735 256.0
56.75 235.0
56.765 223.0
56.78 236.0
56.795 224.0
56.81 227.0
56.825 216.0
56.84 225.0
56.855 223.0
56.87 227.0
56.885 222.0
56.9 223.0
56.915 217.0
56.93 248.0
56.945 231.0
56.96 224.0
56.975 235.0
56.99 231.0
57.005 222.0
57.02 239.0
57.035 234.0
57.05 226.0
57.065 242.0
57.08 226.0
57.095 246.0
57.11 238.0
57.125 222.0
57.14 227.0
57.155 218.0
57.17 222.0
57.185 243.0
57.2 242.0
57.215 248.0
57.23 248.0
57.245 257.0
57.26 208.0
57.275 219.0
57.29 219.0
57.305 236.0
57.32 220.0
57.335 232.0
57.35 230.0
57.365 223.0
57.38 227.0
57.395 230.0
57.41 225.0
57.425 216.0
57.44 228.0
57.455 228.0
57.47 219.0
57.485 231.0
57.5 221.0
57.515 216.0
57.53 205.0
57.545 213.0
57.56 223.0
57.575 224.0
57.59 208.0
57.605 200.0
57.62 220.0
57.635 206.0
57.65 206.0
57.665 207.0
57.68 216.0
57.695 190.0
57.71 216.0
57.725 204.0
57.74 202.0
57.755 217.0
57.77 204.0
57.785 212.0
57.8 200.0
57.815 197.0
57.83 198.0
57.845 197.0
57.86 184.0
57.875 202.0
57.89 202.0
57.905 204.0
57.92 198.0
57.935 211.0
57.95 187.0
57.965 189.0
57.98 203.0
57.995 190.0
58.01 192.0
58.025 202.0
58.04 179.0
58.055 193.0
58.07 180.0
58.085 196.0
58.1 190.0
58.115 217.0
58.13 196.0
58.145 193.0
58.16 180.0
58.175 187.0
58.19 198.0
58.205 207.0
58.22 191.0
58.235 171.0
58.25 195.0
58.265 185.0
58.28 164.0
58.295 174.0
58.31 191.0
58.325 202.0
58.34 180.0
58.355 193.0
58.37 205.0
58.385 191.0
58.4 194.0
58.415 192.0
58.43 193.0
58.445 196.0
58.46 194.0
58.475 195.0
58.49 196.0
58.505 169.0
58.52 167.0
58.535 185.0
58.55 181.0
58.565 195.0
58.58 197.0
58.595 186.0
58.61 195.0
58.625 187.0
58.64 185.0
58.655 193.0
58.67 193.0
58.685 192.0
58.7 187.0
58.715 182.0
58.73 172.0
58.745 174.0
58.76 177.0
58.775 183.0
58.79 173.0
58.805 179.0
58.82 168.0
58.835 188.0
58.85 205.0
58.865 198.0
58.88 189.0
58.895 207.0
58.91 189.0
58.925 200.0
58.94 207.0
58.955 205.0
58.97 199.0
58.985 188.0
59.0 213.0
59.015 199.0
59.03 185.0
59.045 178.0
59.06 179.0
59.075 198.0
59.09 192.0
59.105 196.0
59.12 181.0
59.135 194.0
59.15 189.0
59.165 196.0
59.18 192.0
59.195 182.0
59.21 173.0
59.225 191.0
59.24 187.0
59.255 181.0
59.27 192.0
59.285 193.0
59.3 183.0
59.315 191.0
59.33 207.0
59.345 196.0
59.36 182.0
59.375 178.0
59.39 186.0
59.405 175.0
59.42 190.0
59.435 180.0
59.45 175.0
59.465 182.0
59.48 174.0
59.495 195.0
59.51 185.0
59.525 173.0
59.54 177.0
59.555 171.0
59.57 188.0
59.585 193.0
59.6 201.0
59.615 197.0
59.63 183.0
59.645 177.0
59.66 187.0
59.675 187.0
59.69 182.0
59.705 182.0
59.72 181.0
59.735 186.0
59.75 180.0
59.765 178.0
59.78 165.0
59.795 167.0
59.81 179.0
59.825 191.0
59.84 200.0
59.855 199.0
59.87 183.0
59.885 186.0
59.9 198.0
59.915 197.0
59.93 180.0
59.945 177.0
59.96 193.0
59.975 176.0
59.99 211.0
60.005 187.0
60.02 175.0
60.035 189.0
60.05 153.0
60.065 181.0
60.08 170.0
60.095 174.0
60.11 188.0
60.125 172.0
60.14 189.0
60.155 183.0
60.17 196.0
60.185 198.0
60.2 170.0
60.215 179.0
60.23 186.0
60.245 169.0
60.26 180.0
60.275 185.0
60.29 189.0
60.305 188.0
60.32 164.0
60.335 195.0
60.35 200.0
60.365 197.0
60.38 188.0
60.395 186.0
60.41 178.0
60.425 185.0
60.44 178.0
60.455 179.0
60.47 194.0
60.485 193.0
60.5 180.0
60.515 181.0
60.53 174.0
60.545 185.0
60.56 183.0
60.575 185.0
60.59 183.0
60.605 178.0
60.62 185.0
60.635 203.0
60.65 185.0
60.665 198.0
60.68 194.0
60.695 183.0
60.71 173.0
60.725 185.0
60.74 212.0
60.755 197.0
60.77 173.0
60.785 198.0
60.8 178.0
60.815 166.0
60.83 179.0
60.845 192.0
60.86 190.0
60.875 180.0
60.89 187.0
60.905 181.0
60.92 184.0
60.935 186.0
60.95 182.0
60.965 159.0
60.98 190.0
60.995 165.0
61.01 185.0
61.025 173.0
61.04 159.0
61.055 182.0
61.07 179.0
61.085 214.0
61.1 169.0
61.115 175.0
61.13 188.0
61.145 197.0
61.16 186.0
61.175 177.0
61.19 176.0
61.205 185.0
61.22 158.0
61.235 163.0
61.25 185.0
61.265 203.0
61.28 189.0
61.295 188.0
61.31 206.0
61.325 202.0
61.34 214.0
61.355 207.0
61.37 193.0
61.385 169.0
61.4 168.0
61.415 190.0
61.43 178.0
61.445 181.0
61.46 194.0
61.475 192.0
61.49 189.0
61.505 174.0
61.52 176.0
61.535 178.0
61.55 179.0
61.565 179.0
61.58 182.0
61.595 184.0
61.61 185.0
61.625 169.0
61.64 184.0
61.655 184.0
61.67 191.0
61.685 185.0
61.7 164.0
61.715 192.0
61.73 200.0
61.745 201.0
61.76 185.0
61.775 173.0
61.79 171.0
61.805 174.0
61.82 175.0
61.835 189.0
61.85 188.0
61.865 174.0
61.88 176.0
61.895 182.0
61.91 185.0
61.925 192.0
61.94 201.0
61.955 187.0
61.97 175.0
61.985 175.0
