5.00000 822.000
5.01500 869.000
5.03000 842.000
5.04500 882.000
5.06000 835.000
5.07500 870.000
5.09000 868.000
5.10500 836.000
5.12000 786.000
5.13500 815.000
5.15000 800.000
5.16500 843.000
5.18000 878.000
5.19500 846.000
5.21000 837.000
5.22500 842.000
5.24000 853.000
5.25500 830.000
5.27000 799.000
5.28500 808.000
5.30000 809.000
5.31500 768.000
5.33000 825.000
5.34500 850.000
5.36000 845.000
5.37500 807.000
5.39000 806.000
5.40500 817.000
5.42000 801.000
5.43500 790.000
5.45000 819.000
5.46500 811.000
5.48000 820.000
5.49500 781.000
5.51000 839.000
5.52500 833.000
5.54000 795.000
5.55500 750.000
5.57000 794.000
5.58500 818.000
5.60000 793.000
5.61500 798.000
5.63000 782.000
5.64500 789.000
5.66000 826.000
5.67500 786.000
5.69000 754.000
5.70500 765.000
5.72000 754.000
5.73500 767.000
5.75000 770.000
5.76500 798.000
5.78000 810.000
5.79500 803.000
5.81000 778.000
5.82500 787.000
5.84000 788.000
5.85500 749.000
5.87000 748.000
5.88500 762.000
5.90000 745.000
5.91500 754.000
5.93000 761.000
5.94500 791.000
5.96000 751.000
5.97500 793.000
5.99000 784.000
6.00500 775.000
6.02000 782.000
6.03500 779.000
6.05000 767.000
6.06500 755.000
6.08000 772.000
6.09500 764.000
6.11000 778.000
6.12500 799.000
6.14000 750.000
6.15500 778.000
6.17000 765.000
6.18500 790.000
6.20000 740.000
6.21500 773.000
6.23000 766.000
6.24500 720.000
6.26000 771.000
6.27500 741.000
6.29000 769.000
6.30500 752.000
6.32000 798.000
6.33500 790.000
6.35000 737.000
6.36500 730.000
6.38000 749.000
6.39500 744.000
6.41000 742.000
6.42500 725.000
6.44000 727.000
6.45500 756.000
6.47000 741.000
6.48500 716.000
6.50000 729.000
6.51500 739.000
6.53000 760.000
6.54500 728.000
6.56000 715.000
6.57500 746.000
6.59000 745.000
6.60500 757.000
6.62000 755.000
6.63500 745.000
6.65000 731.000
6.66500 759.000
6.68000 767.000
6.69500 749.000
6.71000 742.000
6.72500 756.000
6.74000 743.000
6.75500 765.000
6.77000 757.000
6.78500 752.000
6.80000 763.000
6.81500 775.000
6.83000 780.000
6.84500 755.000
6.86000 757.000
6.87500 791.000
6.89000 789.000
6.90500 794.000
6.92000 741.000
6.93500 737.000
6.95000 776.000
6.96500 707.000
6.98000 725.000
6.99500 791.000
7.01000 799.000
7.02500 796.000
7.04000 784.000
7.05500 778.000
7.07000 781.000
7.08500 762.000
7.10000 803.000
7.11500 777.000
7.13000 755.000
7.14500 738.000
7.16000 753.000
7.17500 798.000
7.19000 811.000
7.20500 848.000
7.22000 811.000
7.23500 771.000
7.25000 782.000
7.26500 831.000
7.28000 795.000
7.29500 821.000
7.31000 783.000
7.32500 798.000
7.34000 862.000
7.35500 871.000
7.37000 827.000
7.38500 862.000
7.40000 859.000
7.41500 823.000
7.43000 880.000
7.44500 911.000
7.46000 875.000
7.47500 897.000
7.49000 907.000
7.50500 938.000
7.52000 942.000
7.53500 954.000
7.55000 942.000
7.56500 982.000
7.58000 1021.000
7.59500 1087.000
7.61000 1111.000
7.62500 1095.000
7.64000 1070.000
7.65500 1104.000
7.67000 1143.000
7.68500 1174.000
7.70000 1313.000
7.71500 1348.000
7.73000 1331.000
7.74500 1370.000
7.76000 1445.000
7.77500 1504.000
7.79000 1532.000
7.80500 1535.000
7.82000 1610.000
7.83500 1725.000
7.85000 1709.000
7.86500 1806.000
7.88000 1856.000
7.89500 1977.000
7.91000 1943.000
7.92500 2055.000
7.94000 2095.000
7.95500 2109.000
7.97000 2196.000
7.98500 2266.000
8.00000 2254.000
8.01500 2248.000
8.03000 2274.000
8.04500 2253.000
8.06000 2166.000
8.07500 2162.000
8.09000 2213.000
8.10500 2212.000
8.12000 2199.000
8.13500 2105.000
8.15000 2118.000
8.16500 2117.000
8.18000 2137.000
8.19500 2096.000
8.21000 2000.000
8.22500 1970.000
8.24000 1934.000
8.25500 1999.000
8.27000 1856.000
8.28500 1829.000
8.30000 1833.000
8.31500 1813.000
8.33000 1720.000
8.34500 1712.000
8.36000 1686.000
8.37500 1692.000
8.39000 1687.000
8.40500 1692.000
8.42000 1661.000
8.43500 1664.000
8.45000 1562.000
8.46500 1568.000
8.48000 1552.000
8.49500 1578.000
8.51000 1620.000
8.52500 1615.000
8.54000 1567.000
8.55500 1564.000
8.57000 1556.000
8.58500 1520.000
8.60000 1478.000
8.61500 1464.000
8.63000 1474.000
8.64500 1496.000
8.66000 1451.000
8.67500 1431.000
8.69000 1406.000
8.70500 1394.000
8.72000 1430.000
8.73500 1421.000
8.75000 1395.000
8.76500 1432.000
8.78000 1429.000
8.79500 1409.000
8.81000 1412.000
8.82500 1411.000
8.84000 1389.000
8.85500 1439.000
8.87000 1443.000
8.88500 1457.000
8.90000 1430.000
8.91500 1402.000
8.93000 1382.000
8.94500 1424.000
8.96000 1379.000
8.97500 1344.000
8.99000 1350.000
9.00500 1347.000
9.02000 1388.000
9.03500 1396.000
9.05000 1419.000
9.06500 1332.000
9.08000 1355.000
9.09500 1339.000
9.11000 1391.000
9.12500 1373.000
9.14000 1327.000
9.15500 1356.000
9.17000 1320.000
9.18500 1335.000
9.20000 1377.000
9.21500 1284.000
9.23000 1281.000
9.24500 1374.000
9.26000 1282.000
9.27500 1272.000
9.29000 1294.000
9.30500 1284.000
9.32000 1295.000
9.33500 1298.000
9.35000 1315.000
9.36500 1289.000
9.38000 1250.000
9.39500 1308.000
9.41000 1284.000
9.42500 1261.000
9.44000 1282.000
9.45500 1252.000
9.47000 1251.000
9.48500 1259.000
9.50000 1254.000
9.51500 1261.000
9.53000 1214.000
9.54500 1243.000
9.56000 1284.000
9.57500 1231.000
9.59000 1230.000
9.60500 1240.000
9.62000 1200.000
9.63500 1138.000
9.65000 1197.000
9.66500 1166.000
9.68000 1170.000
9.69500 1207.000
9.71000 1177.000
9.72500 1128.000
9.74000 1125.000
9.75500 1132.000
9.77000 1157.000
9.78500 1172.000
9.80000 1109.000
9.81500 1138.000
9.83000 1156.000
9.84500 1076.000
9.86000 1074.000
9.87500 1059.000
9.89000 1120.000
9.90500 1074.000
9.92000 1029.000
9.93500 1100.000
9.95000 1013.000
9.96500 991.000
9.98000 1059.000
9.99500 1050.000
10.01000 1048.000
10.02500 1014.000
10.04000 1037.000
10.05500 1029.000
10.07000 1053.000
10.08500 1030.000
10.10000 991.000
10.11500 1004.000
10.13000 972.000
10.14500 976.000
10.16000 982.000
10.17500 1013.000
10.19000 977.000
10.20500 954.000
10.22000 937.000
10.23500 933.000
10.25000 949.000
10.26500 978.000
10.28000 901.000
10.29500 905.000
10.31000 951.000
10.32500 933.000
10.34000 898.000
10.35500 917.000
10.37000 885.000
10.38500 897.000
10.40000 868.000
10.41500 885.000
10.43000 858.000
10.44500 857.000
10.46000 841.000
10.47500 874.000
10.49000 841.000
10.50500 862.000
10.52000 847.000
10.53500 877.000
10.55000 846.000
10.56500 879.000
10.58000 869.000
10.59500 826.000
10.61000 848.000
10.62500 840.000
10.64000 827.000
10.65500 846.000
10.67000 842.000
10.68500 822.000
10.70000 780.000
10.71500 794.000
10.73000 844.000
10.74500 768.000
10.76000 793.000
10.77500 839.000
10.79000 796.000
10.80500 803.000
10.82000 852.000
10.83500 831.000
10.85000 816.000
10.86500 806.000
10.88000 784.000
10.89500 783.000
10.91000 774.000
10.92500 797.000
10.94000 754.000
10.95500 779.000
10.97000 803.000
10.98500 799.000
11.00000 758.000
11.01500 758.000
11.03000 786.000
11.04500 782.000
11.06000 784.000
11.07500 725.000
11.09000 782.000
11.10500 736.000
11.12000 769.000
11.13500 790.000
11.15000 753.000
11.16500 774.000
11.18000 735.000
11.19500 760.000
11.21000 754.000
11.22500 757.000
11.24000 741.000
11.25500 755.000
11.27000 748.000
11.28500 739.000
11.30000 761.000
11.31500 731.000
11.33000 699.000
11.34500 753.000
11.36000 751.000
11.37500 754.000
11.39000 734.000
11.40500 779.000
11.42000 736.000
11.43500 760.000
11.45000 776.000
11.46500 769.000
11.48000 745.000
11.49500 732.000
11.51000 734.000
11.52500 777.000
11.54000 772.000
11.55500 750.000
11.57000 758.000
11.58500 750.000
11.60000 776.000
11.61500 741.000
11.63000 736.000
11.64500 733.000
11.66000 754.000
11.67500 754.000
11.69000 750.000
11.70500 732.000
11.72000 765.000
11.73500 763.000
11.75000 752.000
11.76500 777.000
11.78000 721.000
11.79500 735.000
11.81000 783.000
11.82500 748.000
11.84000 789.000
11.85500 732.000
11.87000 736.000
11.88500 729.000
11.90000 721.000
11.91500 723.000
11.93000 747.000
11.94500 733.000
11.96000 739.000
11.97500 736.000
11.99000 778.000
12.00500 760.000
12.02000 729.000
12.03500 737.000
12.05000 721.000
12.06500 739.000
12.08000 767.000
12.09500 749.000
12.11000 734.000
12.12500 737.000
12.14000 684.000
12.15500 714.000
12.17000 733.000
12.18500 738.000
12.20000 752.000
12.21500 765.000
12.23000 736.000
12.24500 714.000
12.26000 718.000
12.27500 721.000
12.29000 754.000
12.30500 741.000
12.32000 715.000
12.33500 700.000
12.35000 743.000
12.36500 699.000
12.38000 724.000
12.39500 757.000
12.41000 718.000
12.42500 708.000
12.44000 739.000
12.45500 717.000
12.47000 750.000
12.48500 756.000
12.50000 693.000
12.51500 713.000
12.53000 685.000
12.54500 697.000
12.56000 720.000
12.57500 735.000
12.59000 756.000
12.60500 760.000
12.62000 717.000
12.63500 761.000
12.65000 749.000
12.66500 769.000
12.68000 732.000
12.69500 702.000
12.71000 724.000
12.72500 723.000
12.74000 706.000
12.75500 716.000
12.77000 716.000
12.78500 737.000
12.80000 745.000
12.81500 721.000
12.83000 736.000
12.84500 759.000
12.86000 741.000
12.87500 768.000
12.89000 720.000
12.90500 713.000
12.92000 735.000
12.93500 732.000
12.95000 703.000
12.96500 719.000
12.98000 727.000
12.99500 718.000
13.01000 733.000
13.02500 735.000
13.04000 715.000
13.05500 741.000
13.07000 706.000
13.08500 720.000
13.10000 725.000
13.11500 715.000
13.13000 713.000
13.14500 693.000
13.16000 733.000
13.17500 750.000
13.19000 732.000
13.20500 737.000
13.22000 735.000
13.23500 723.000
13.25000 747.000
13.26500 728.000
13.28000 765.000
13.29500 728.000
13.31000 724.000
13.32500 759.000
13.34000 752.000
13.35500 738.000
13.37000 752.000
13.38500 767.000
13.40000 735.000
13.41500 711.000
13.43000 730.000
13.44500 714.000
13.46000 746.000
13.47500 761.000
13.49000 757.000
13.50500 724.000
13.52000 774.000
13.53500 763.000
13.55000 721.000
13.56500 746.000
13.58000 717.000
13.59500 711.000
13.61000 712.000
13.62500 729.000
13.64000 727.000
13.65500 754.000
13.67000 761.000
13.68500 739.000
13.70000 791.000
13.71500 767.000
13.73000 748.000
13.74500 794.000
13.76000 807.000
13.77500 826.000
13.79000 783.000
13.80500 779.000
13.82000 789.000
13.83500 797.000
13.85000 792.000
13.86500 779.000
13.88000 781.000
13.89500 788.000
13.91000 807.000
13.92500 767.000
13.94000 819.000
13.95500 804.000
13.97000 799.000
13.98500 816.000
14.00000 868.000
14.01500 788.000
14.03000 776.000
14.04500 820.000
14.06000 790.000
14.07500 794.000
14.09000 783.000
14.10500 826.000
14.12000 783.000
14.13500 779.000
14.15000 811.000
14.16500 867.000
14.18000 845.000
14.19500 840.000
14.21000 815.000
14.22500 813.000
14.24000 807.000
14.25500 783.000
14.27000 771.000
14.28500 812.000
14.30000 835.000
14.31500 844.000
14.33000 814.000
14.34500 804.000
14.36000 800.000
14.37500 822.000
14.39000 820.000
14.40500 806.000
14.42000 804.000
14.43500 804.000
14.45000 805.000
14.46500 834.000
14.48000 787.000
14.49500 818.000
14.51000 827.000
14.52500 791.000
14.54000 800.000
14.55500 809.000
14.57000 829.000
14.58500 834.000
14.60000 826.000
14.61500 809.000
14.63000 787.000
14.64500 775.000
14.66000 771.000
14.67500 792.000
14.69000 793.000
14.70500 762.000
14.72000 806.000
14.73500 829.000
14.75000 793.000
14.76500 755.000
14.78000 778.000
14.79500 796.000
14.81000 770.000
14.82500 835.000
14.84000 821.000
14.85500 805.000
14.87000 781.000
14.88500 833.000
14.90000 826.000
14.91500 792.000
14.93000 796.000
14.94500 828.000
14.96000 791.000
14.97500 791.000
14.99000 831.000
15.00500 837.000
15.02000 844.000
15.03500 781.000
15.05000 754.000
15.06500 775.000
15.08000 808.000
15.09500 774.000
15.11000 768.000
15.12500 822.000
15.14000 779.000
15.15500 822.000
15.17000 811.000
15.18500 817.000
15.20000 814.000
15.21500 808.000
15.23000 816.000
15.24500 781.000
15.26000 773.000
15.27500 799.000
15.29000 848.000
15.30500 818.000
15.32000 801.000
15.33500 796.000
15.35000 786.000
15.36500 825.000
15.38000 824.000
15.39500 774.000
15.41000 760.000
15.42500 763.000
15.44000 809.000
15.45500 810.000
15.47000 779.000
15.48500 783.000
15.50000 835.000
15.51500 798.000
15.53000 757.000
15.54500 757.000
15.56000 762.000
15.57500 799.000
15.59000 827.000
15.60500 812.000
15.62000 825.000
15.63500 859.000
15.65000 840.000
15.66500 811.000
15.68000 791.000
15.69500 786.000
15.71000 811.000
15.72500 835.000
15.74000 793.000
15.75500 845.000
15.77000 800.000
15.78500 789.000
15.80000 805.000
15.81500 812.000
15.83000 765.000
15.84500 800.000
15.86000 776.000
15.87500 777.000
15.89000 796.000
15.90500 795.000
15.92000 815.000
15.93500 825.000
15.95000 811.000
15.96500 835.000
15.98000 809.000
15.99500 788.000
16.01000 802.000
16.02500 807.000
16.04000 809.000
16.05500 797.000
16.07000 793.000
16.08500 808.000
16.10000 815.000
16.11500 822.000
16.13000 841.000
16.14500 849.000
16.16000 834.000
16.17500 829.000
16.19000 803.000
16.20500 830.000
16.22000 811.000
16.23500 791.000
16.25000 823.000
16.26500 791.000
16.28000 817.000
16.29500 802.000
16.31000 807.000
16.32500 854.000
16.34000 855.000
16.35500 806.000
16.37000 765.000
16.38500 814.000
16.40000 840.000
16.41500 875.000
16.43000 864.000
16.44500 829.000
16.46000 850.000
16.47500 848.000
16.49000 816.000
16.50500 803.000
16.52000 798.000
16.53500 833.000
16.55000 838.000
16.56500 824.000
16.58000 827.000
16.59500 833.000
16.61000 824.000
16.62500 836.000
16.64000 812.000
16.65500 821.000
16.67000 833.000
16.68500 816.000
16.70000 839.000
16.71500 832.000
16.73000 790.000
16.74500 803.000
16.76000 814.000
16.77500 810.000
16.79000 847.000
16.80500 790.000
16.82000 846.000
16.83500 827.000
16.85000 858.000
16.86500 821.000
16.88000 825.000
16.89500 800.000
16.91000 807.000
16.92500 839.000
16.94000 872.000
16.95500 827.000
16.97000 809.000
16.98500 809.000
17.00000 802.000
17.01500 778.000
17.03000 827.000
17.04500 820.000
17.06000 815.000
17.07500 821.000
17.09000 799.000
17.10500 832.000
17.12000 888.000
17.13500 879.000
17.15000 876.000
17.16500 799.000
17.18000 832.000
17.19500 849.000
17.21000 853.000
17.22500 812.000
17.24000 821.000
17.25500 853.000
17.27000 837.000
17.28500 811.000
17.30000 847.000
17.31500 836.000
17.33000 818.000
17.34500 801.000
17.36000 847.000
17.37500 858.000
17.39000 850.000
17.40500 838.000
17.42000 842.000
17.43500 852.000
17.45000 849.000
17.46500 836.000
17.48000 810.000
17.49500 838.000
17.51000 820.000
17.52500 853.000
17.54000 854.000
17.55500 820.000
17.57000 847.000
17.58500 848.000
17.60000 822.000
17.61500 829.000
17.63000 844.000
17.64500 841.000
17.66000 839.000
17.67500 838.000
17.69000 864.000
17.70500 875.000
17.72000 845.000
17.73500 846.000
17.75000 859.000
17.76500 834.000
17.78000 831.000
17.79500 829.000
17.81000 820.000
17.82500 830.000
17.84000 808.000
17.85500 840.000
17.87000 855.000
17.88500 846.000
17.90000 826.000
17.91500 814.000
17.93000 849.000
17.94500 845.000
17.96000 823.000
17.97500 825.000
17.99000 848.000
18.00500 838.000
18.02000 770.000
18.03500 853.000
18.05000 801.000
18.06500 822.000
18.08000 830.000
18.09500 859.000
18.11000 813.000
18.12500 795.000
18.14000 819.000
18.15500 843.000
18.17000 816.000
18.18500 822.000
18.20000 821.000
18.21500 851.000
18.23000 839.000
18.24500 844.000
18.26000 833.000
18.27500 837.000
18.29000 797.000
18.30500 832.000
18.32000 832.000
18.33500 822.000
18.35000 755.000
18.36500 831.000
18.38000 775.000
18.39500 770.000
18.41000 803.000
18.42500 788.000
18.44000 829.000
18.45500 816.000
18.47000 799.000
18.48500 785.000
18.50000 754.000
18.51500 803.000
18.53000 793.000
18.54500 838.000
18.56000 792.000
18.57500 795.000
18.59000 812.000
18.60500 840.000
18.62000 801.000
18.63500 833.000
18.65000 789.000
18.66500 827.000
18.68000 805.000
18.69500 836.000
18.71000 827.000
18.72500 804.000
18.74000 838.000
18.75500 770.000
18.77000 776.000
18.78500 838.000
18.80000 798.000
18.81500 830.000
18.83000 838.000
18.84500 809.000
18.86000 833.000
18.87500 821.000
18.89000 791.000
18.90500 833.000
18.92000 808.000
18.93500 798.000
18.95000 834.000
18.96500 810.000
18.98000 774.000
18.99500 798.000
19.01000 822.000
19.02500 806.000
19.04000 796.000
19.05500 827.000
19.07000 827.000
19.08500 838.000
19.10000 807.000
19.11500 786.000
19.13000 811.000
19.14500 812.000
19.16000 821.000
19.17500 788.000
19.19000 844.000
19.20500 845.000
19.22000 804.000
19.23500 779.000
19.25000 853.000
19.26500 873.000
19.28000 817.000
19.29500 799.000
19.31000 795.000
19.32500 836.000
19.34000 852.000
19.35500 847.000
19.37000 784.000
19.38500 777.000
19.40000 805.000
19.41500 823.000
19.43000 802.000
19.44500 817.000
19.46000 806.000
19.47500 812.000
19.49000 862.000
19.50500 833.000
19.52000 804.000
19.53500 851.000
19.55000 855.000
19.56500 834.000
19.58000 849.000
19.59500 869.000
19.61000 839.000
19.62500 816.000
19.64000 777.000
19.65500 811.000
19.67000 815.000
19.68500 844.000
19.70000 859.000
19.71500 820.000
19.73000 829.000
19.74500 815.000
19.76000 752.000
19.77500 844.000
19.79000 830.000
19.80500 800.000
19.82000 796.000
19.83500 835.000
19.85000 855.000
19.86500 779.000
19.88000 796.000
19.89500 815.000
19.91000 857.000
19.92500 854.000
19.94000 837.000
19.95500 795.000
19.97000 816.000
19.98500 860.000
20.00000 872.000
20.01500 844.000
20.03000 859.000
20.04500 801.000
20.06000 796.000
20.07500 835.000
20.09000 844.000
20.10500 830.000
20.12000 852.000
20.13500 820.000
20.15000 840.000
20.16500 816.000
20.18000 848.000
20.19500 873.000
20.21000 875.000
20.22500 866.000
20.24000 824.000
20.25500 796.000
20.27000 825.000
20.28500 862.000
20.30000 850.000
20.31500 874.000
20.33000 870.000
20.34500 825.000
20.36000 811.000
20.37500 801.000
20.39000 815.000
20.40500 815.000
20.42000 823.000
20.43500 855.000
20.45000 825.000
20.46500 843.000
20.48000 806.000
20.49500 810.000
20.51000 892.000
20.52500 867.000
20.54000 849.000
20.55500 843.000
20.57000 847.000
20.58500 882.000
20.60000 816.000
20.61500 828.000
20.63000 826.000
20.64500 819.000
20.66000 870.000
20.67500 831.000
20.69000 851.000
20.70500 830.000
20.72000 866.000
20.73500 883.000
20.75000 871.000
20.76500 825.000
20.78000 858.000
20.79500 865.000
20.81000 860.000
20.82500 839.000
20.84000 877.000
20.85500 857.000
20.87000 900.000
20.88500 908.000
20.90000 901.000
20.91500 876.000
20.93000 913.000
20.94500 866.000
20.96000 939.000
20.97500 922.000
20.99000 911.000
21.00500 945.000
21.02000 952.000
21.03500 926.000
21.05000 969.000
21.06500 946.000
21.08000 996.000
21.09500 988.000
21.11000 1005.000
21.12500 985.000
21.14000 963.000
21.15500 986.000
21.17000 1026.000
21.18500 1003.000
21.20000 1025.000
21.21500 1020.000
21.23000 1051.000
21.24500 1052.000
21.26000 1047.000
21.27500 1032.000
21.29000 990.000
21.30500 1047.000
21.32000 1113.000
21.33500 1085.000
21.35000 1083.000
21.36500 1037.000
21.38000 1107.000
21.39500 1064.000
21.41000 1092.000
21.42500 1041.000
21.44000 1046.000
21.45500 1043.000
21.47000 987.000
21.48500 986.000
21.50000 1040.000
21.51500 1030.000
21.53000 1025.000
21.54500 1065.000
21.56000 1062.000
21.57500 1061.000
21.59000 1068.000
21.60500 1028.000
21.62000 1027.000
21.63500 1027.000
21.65000 971.000
21.66500 1001.000
21.68000 1017.000
21.69500 1003.000
21.71000 1034.000
21.72500 1050.000
21.74000 1035.000
21.75500 1010.000
21.77000 957.000
21.78500 990.000
21.80000 984.000
21.81500 957.000
21.83000 937.000
21.84500 1014.000
21.86000 1028.000
21.87500 992.000
21.89000 998.000
21.90500 981.000
21.92000 977.000
21.93500 990.000
21.95000 973.000
21.96500 990.000
21.98000 1013.000
21.99500 991.000
22.01000 1016.000
22.02500 1016.000
22.04000 988.000
22.05500 988.000
22.07000 985.000
22.08500 998.000
22.10000 1006.000
22.11500 987.000
22.13000 1022.000
22.14500 963.000
22.16000 944.000
22.17500 944.000
22.19000 952.000
22.20500 989.000
22.22000 1046.000
22.23500 1018.000
22.25000 1008.000
22.26500 980.000
22.28000 1025.000
22.29500 959.000
22.31000 1026.000
22.32500 1050.000
22.34000 982.000
22.35500 972.000
22.37000 986.000
22.38500 976.000
22.40000 1039.000
22.41500 1037.000
22.43000 1053.000
22.44500 1060.000
22.46000 1019.000
22.47500 1009.000
22.49000 1015.000
22.50500 971.000
22.52000 1008.000
22.53500 1009.000
22.55000 1008.000
22.56500 1004.000
22.58000 1027.000
22.59500 1007.000
22.61000 984.000
22.62500 1021.000
22.64000 955.000
22.65500 998.000
22.67000 1001.000
22.68500 943.000
22.70000 983.000
22.71500 1021.000
22.73000 1086.000
22.74500 985.000
22.76000 970.000
22.77500 952.000
22.79000 1020.000
22.80500 1064.000
22.82000 1051.000
22.83500 1050.000
22.85000 1000.000
22.86500 992.000
22.88000 1003.000
22.89500 1003.000
22.91000 1037.000
22.92500 1056.000
22.94000 1051.000
22.95500 1043.000
22.97000 1057.000
22.98500 1043.000
23.00000 1045.000
23.01500 1022.000
23.03000 1073.000
23.04500 1044.000
23.06000 1036.000
23.07500 1010.000
23.09000 1042.000
23.10500 1041.000
23.12000 1026.000
23.13500 1044.000
23.15000 1045.000
23.16500 1032.000
23.18000 1020.000
23.19500 1026.000
23.21000 1030.000
23.22500 1058.000
23.24000 1059.000
23.25500 1018.000
23.27000 1050.000
23.28500 1048.000
23.30000 1022.000
23.31500 1027.000
23.33000 1030.000
23.34500 1075.000
23.36000 1100.000
23.37500 1097.000
23.39000 1115.000
23.40500 1110.000
23.42000 1085.000
23.43500 1067.000
23.45000 1097.000
23.46500 1081.000
23.48000 1061.000
23.49500 1041.000
23.51000 1075.000
23.52500 1098.000
23.54000 1105.000
23.55500 1047.000
23.57000 1083.000
23.58500 1102.000
23.60000 1072.000
23.61500 1143.000
23.63000 1136.000
23.64500 1087.000
23.66000 1075.000
23.67500 1056.000
23.69000 1075.000
23.70500 1145.000
23.72000 1082.000
23.73500 1094.000
23.75000 1129.000
23.76500 1141.000
23.78000 1123.000
23.79500 1125.000
23.81000 1107.000
23.82500 1076.000
23.84000 1092.000
23.85500 1070.000
23.87000 1098.000
23.88500 1093.000
23.90000 1139.000
23.91500 1113.000
23.93000 1110.000
23.94500 1126.000
23.96000 1159.000
23.97500 1078.000
23.99000 1123.000
24.00500 1136.000
24.02000 1074.000
24.03500 1128.000
24.05000 1130.000
24.06500 1107.000
24.08000 1114.000
24.09500 1133.000
24.11000 1127.000
24.12500 1119.000
24.14000 1139.000
24.15500 1112.000
24.17000 1109.000
24.18500 1087.000
24.20000 1127.000
24.21500 1125.000
24.23000 1113.000
24.24500 1136.000
24.26000 1123.000
24.27500 1133.000
24.29000 1113.000
24.30500 1141.000
24.32000 1125.000
24.33500 1130.000
24.35000 1111.000
24.36500 1129.000
24.38000 1094.000
24.39500 1151.000
24.41000 1114.000
24.42500 1139.000
24.44000 1178.000
24.45500 1175.000
24.47000 1155.000
24.48500 1144.000
24.50000 1123.000
24.51500 1123.000
24.53000 1093.000
24.54500 1070.000
24.56000 1071.000
24.57500 1147.000
24.59000 1133.000
24.60500 1137.000
24.62000 1105.000
24.63500 1110.000
24.65000 1126.000
24.66500 1101.000
24.68000 1134.000
24.69500 1127.000
24.71000 1090.000
24.72500 1141.000
24.74000 1173.000
24.75500 1117.000
24.77000 1134.000
24.78500 1135.000
24.80000 1135.000
24.81500 1166.000
24.83000 1161.000
24.84500 1153.000
24.86000 1113.000
24.87500 1148.000
24.89000 1188.000
24.90500 1159.000
24.92000 1102.000
24.93500 1120.000
24.95000 1133.000
24.96500 1150.000
24.98000 1125.000
24.99500 1112.000
25.01000 1112.000
25.02500 1143.000
25.04000 1132.000
25.05500 1134.000
25.07000 1166.000
25.08500 1142.000
25.10000 1091.000
25.11500 1082.000
25.13000 1122.000
25.14500 1155.000
25.16000 1174.000
25.17500 1162.000
25.19000 1175.000
25.20500 1086.000
25.22000 1169.000
25.23500 1164.000
25.25000 1151.000
25.26500 1126.000
25.28000 1153.000
25.29500 1195.000
25.31000 1131.000
25.32500 1141.000
25.34000 1177.000
25.35500 1118.000
25.37000 1142.000
25.38500 1081.000
25.40000 1117.000
25.41500 1134.000
25.43000 1125.000
25.44500 1108.000
25.46000 1124.000
25.47500 1077.000
25.49000 1093.000
25.50500 1090.000
25.52000 1129.000
25.53500 1166.000
25.55000 1126.000
25.56500 1127.000
25.58000 1137.000
25.59500 1140.000
25.61000 1156.000
25.62500 1108.000
25.64000 1107.000
25.65500 1151.000
25.67000 1110.000
25.68500 1181.000
25.70000 1142.000
25.71500 1155.000
25.73000 1112.000
25.74500 1160.000
25.76000 1127.000
25.77500 1147.000
25.79000 1160.000
25.80500 1163.000
25.82000 1169.000
25.83500 1135.000
25.85000 1120.000
25.86500 1103.000
25.88000 1112.000
25.89500 1143.000
25.91000 1102.000
25.92500 1103.000
25.94000 1130.000
25.95500 1155.000
25.97000 1164.000
25.98500 1138.000
26.00000 1116.000
26.01500 1170.000
26.03000 1117.000
26.04500 1139.000
26.06000 1183.000
26.07500 1144.000
26.09000 1189.000
26.10500 1143.000
26.12000 1184.000
26.13500 1228.000
26.15000 1144.000
26.16500 1202.000
26.18000 1183.000
26.19500 1156.000
26.21000 1153.000
26.22500 1185.000
26.24000 1168.000
26.25500 1150.000
26.27000 1185.000
26.28500 1206.000
26.30000 1177.000
26.31500 1178.000
26.33000 1200.000
26.34500 1198.000
26.36000 1206.000
26.37500 1204.000
26.39000 1175.000
26.40500 1111.000
26.42000 1166.000
26.43500 1214.000
26.45000 1171.000
26.46500 1196.000
26.48000 1219.000
26.49500 1206.000
26.51000 1223.000
26.52500 1238.000
26.54000 1210.000
26.55500 1170.000
26.57000 1195.000
26.58500 1227.000
26.60000 1232.000
26.61500 1209.000
26.63000 1233.000
26.64500 1220.000
26.66000 1242.000
26.67500 1238.000
26.69000 1260.000
26.70500 1249.000
26.72000 1247.000
26.73500 1291.000
26.75000 1223.000
26.76500 1260.000
26.78000 1220.000
26.79500 1190.000
26.81000 1317.000
26.82500 1258.000
26.84000 1301.000
26.85500 1287.000
26.87000 1235.000
26.88500 1321.000
26.90000 1227.000
26.91500 1240.000
26.93000 1316.000
26.94500 1326.000
26.96000 1279.000
26.97500 1268.000
26.99000 1321.000
27.00500 1293.000
27.02000 1337.000
27.03500 1322.000
27.05000 1294.000
27.06500 1327.000
27.08000 1282.000
27.09500 1294.000
27.11000 1332.000
27.12500 1362.000
27.14000 1305.000
27.15500 1366.000
27.17000 1346.000
27.18500 1352.000
27.20000 1357.000
27.21500 1391.000
27.23000 1388.000
27.24500 1408.000
27.26000 1385.000
27.27500 1416.000
27.29000 1409.000
27.30500 1424.000
27.32000 1413.000
27.33500 1432.000
27.35000 1402.000
27.36500 1401.000
27.38000 1388.000
27.39500 1461.000
27.41000 1430.000
27.42500 1500.000
27.44000 1535.000
27.45500 1505.000
27.47000 1512.000
27.48500 1549.000
27.50000 1568.000
27.51500 1622.000
27.53000 1589.000
27.54500 1591.000
27.56000 1644.000
27.57500 1710.000
27.59000 1748.000
27.60500 1725.000
27.62000 1735.000
27.63500 1746.000
27.65000 1800.000
27.66500 1824.000
27.68000 1847.000
27.69500 1881.000
27.71000 1983.000
27.72500 1931.000
27.74000 1957.000
27.75500 1966.000
27.77000 2001.000
27.78500 2087.000
27.80000 2110.000
27.81500 2201.000
27.83000 2132.000
27.84500 2224.000
27.86000 2264.000
27.87500 2321.000
27.89000 2404.000
27.90500 2494.000
27.92000 2681.000
27.93500 2582.000
27.95000 2660.000
27.96500 2742.000
27.98000 2944.000
27.99500 3038.000
28.01000 3132.000
28.02500 3205.000
28.04000 3266.000
28.05500 3400.000
28.07000 3438.000
28.08500 3641.000
28.10000 3752.000
28.11500 3939.000
28.13000 4031.000
28.14500 4282.000
28.16000 4348.000
28.17500 4607.000
28.19000 4811.000
28.20500 4992.000
28.22000 5158.000
28.23500 5500.000
28.25000 5658.000
28.26500 5856.000
28.28000 5933.000
28.29500 6002.000
28.31000 6103.000
28.32500 6253.000
28.34000 6345.000
28.35500 6319.000
28.37000 6263.000
28.38500 6221.000
28.40000 6236.000
28.41500 5937.000
28.43000 5851.000
28.44500 5586.000
28.46000 5408.000
28.47500 5353.000
28.49000 5137.000
28.50500 4911.000
28.52000 4841.000
28.53500 4588.000
28.55000 4294.000
28.56500 4210.000
28.58000 4064.000
28.59500 3936.000
28.61000 3901.000
28.62500 3710.000
28.64000 3473.000
28.65500 3435.000
28.67000 3291.000
28.68500 3094.000
28.70000 3102.000
28.71500 2961.000
28.73000 2819.000
28.74500 2724.000
28.76000 2632.000
28.77500 2617.000
28.79000 2565.000
28.80500 2504.000
28.82000 2464.000
28.83500 2382.000
28.85000 2243.000
28.86500 2217.000
28.88000 2157.000
28.89500 2137.000
28.91000 2077.000
28.92500 2048.000
28.94000 1988.000
28.95500 1999.000
28.97000 1979.000
28.98500 1904.000
29.00000 1907.000
29.01500 1934.000
29.03000 1839.000
29.04500 1827.000
29.06000 1890.000
29.07500 1813.000
29.09000 1728.000
29.10500 1706.000
29.12000 1730.000
29.13500 1737.000
29.15000 1811.000
29.16500 1742.000
29.18000 1710.000
29.19500 1645.000
29.21000 1658.000
29.22500 1651.000
29.24000 1568.000
29.25500 1615.000
29.27000 1559.000
29.28500 1610.000
29.30000 1562.000
29.31500 1535.000
29.33000 1546.000
29.34500 1528.000
29.36000 1496.000
29.37500 1490.000
29.39000 1462.000
29.40500 1520.000
29.42000 1458.000
29.43500 1461.000
29.45000 1426.000
29.46500 1402.000
29.48000 1418.000
29.49500 1408.000
29.51000 1387.000
29.52500 1385.000
29.54000 1395.000
29.55500 1376.000
29.57000 1342.000
29.58500 1319.000
29.60000 1338.000
29.61500 1361.000
29.63000 1357.000
29.64500 1286.000
29.66000 1274.000
29.67500 1338.000
29.69000 1328.000
29.70500 1283.000
29.72000 1278.000
29.73500 1273.000
29.75000 1306.000
29.76500 1250.000
29.78000 1206.000
29.79500 1246.000
29.81000 1245.000
29.82500 1293.000
29.84000 1257.000
29.85500 1223.000
29.87000 1219.000
29.88500 1236.000
29.90000 1224.000
29.91500 1163.000
29.93000 1163.000
29.94500 1190.000
29.96000 1201.000
29.97500 1199.000
29.99000 1206.000
30.00500 1177.000
30.02000 1166.000
30.03500 1155.000
30.05000 1160.000
30.06500 1214.000
30.08000 1173.000
30.09500 1210.000
30.11000 1186.000
30.12500 1136.000
30.14000 1156.000
30.15500 1136.000
30.17000 1096.000
30.18500 1184.000
30.20000 1108.000
30.21500 1140.000
30.23000 1119.000
30.24500 1125.000
30.26000 1110.000
30.27500 1139.000
30.29000 1110.000
30.30500 1102.000
30.32000 1113.000
30.33500 1102.000
30.35000 1104.000
30.36500 1057.000
30.38000 1039.000
30.39500 1064.000
30.41000 1100.000
30.42500 1031.000
30.44000 1048.000
30.45500 1014.000
30.47000 1039.000
30.48500 1056.000
30.50000 1047.000
30.51500 1069.000
30.53000 1094.000
30.54500 1063.000
30.56000 1042.000
30.57500 1088.000
30.59000 1059.000
30.60500 1008.000
30.62000 1035.000
30.63500 1059.000
30.65000 1037.000
30.66500 1042.000
30.68000 1005.000
30.69500 1048.000
30.71000 1013.000
30.72500 1049.000
30.74000 1026.000
30.75500 1012.000
30.77000 996.000
30.78500 1018.000
30.80000 1046.000
30.81500 1005.000
30.83000 1010.000
30.84500 997.000
30.86000 1001.000
30.87500 962.000
30.89000 1015.000
30.90500 1037.000
30.92000 1023.000
30.93500 1016.000
30.95000 988.000
30.96500 993.000
30.98000 988.000
30.99500 1002.000
31.01000 1003.000
31.02500 1034.000
31.04000 1015.000
31.05500 993.000
31.07000 1011.000
31.08500 1002.000
31.10000 1004.000
31.11500 1003.000
31.13000 1024.000
31.14500 992.000
31.16000 946.000
31.17500 966.000
31.19000 986.000
31.20500 1008.000
31.22000 1005.000
31.23500 982.000
31.25000 1013.000
31.26500 972.000
31.28000 947.000
31.29500 970.000
31.31000 941.000
31.32500 911.000
31.34000 944.000
31.35500 979.000
31.37000 947.000
31.38500 971.000
31.40000 945.000
31.41500 952.000
31.43000 934.000
31.44500 941.000
31.46000 969.000
31.47500 944.000
31.49000 951.000
31.50500 950.000
31.52000 969.000
31.53500 945.000
31.55000 917.000
31.56500 890.000
31.58000 914.000
31.59500 942.000
31.61000 949.000
31.62500 980.000
31.64000 924.000
31.65500 916.000
31.67000 941.000
31.68500 937.000
31.70000 866.000
31.71500 918.000
31.73000 918.000
31.74500 900.000
31.76000 868.000
31.77500 957.000
31.79000 931.000
31.80500 913.000
31.82000 916.000
31.83500 935.000
31.85000 981.000
31.86500 940.000
31.88000 933.000
31.89500 942.000
31.91000 931.000
31.92500 899.000
31.94000 894.000
31.95500 901.000
31.97000 909.000
31.98500 926.000
32.00000 891.000
32.01500 946.000
32.03000 948.000
32.04500 931.000
32.06000 951.000
32.07500 929.000
32.09000 933.000
32.10500 936.000
32.12000 974.000
32.13500 1003.000
32.15000 985.000
32.16500 944.000
32.18000 932.000
32.19500 971.000
32.21000 988.000
32.22500 981.000
32.24000 1009.000
32.25500 1011.000
32.27000 1015.000
32.28500 1011.000
32.30000 1030.000
32.31500 1022.000
32.33000 1034.000
32.34500 1025.000
32.36000 1023.000
32.37500 1023.000
32.39000 1030.000
32.40500 1002.000
32.42000 1016.000
32.43500 1030.000
32.45000 999.000
32.46500 1007.000
32.48000 1012.000
32.49500 956.000
32.51000 998.000
32.52500 968.000
32.54000 992.000
32.55500 980.000
32.57000 977.000
32.58500 982.000
32.60000 965.000
32.61500 936.000
32.63000 924.000
32.64500 889.000
32.66000 902.000
32.67500 983.000
32.69000 949.000
32.70500 885.000
32.72000 869.000
32.73500 870.000
32.75000 898.000
32.76500 876.000
32.78000 850.000
32.79500 868.000
32.81000 861.000
32.82500 861.000
32.84000 873.000
32.85500 845.000
32.87000 802.000
32.88500 817.000
32.90000 869.000
32.91500 797.000
32.93000 854.000
32.94500 849.000
32.96000 817.000
32.97500 825.000
32.99000 846.000
33.00500 824.000
33.02000 763.000
33.03500 820.000
33.05000 817.000
33.06500 795.000
33.08000 798.000
33.09500 839.000
33.11000 790.000
33.12500 808.000
33.14000 820.000
33.15500 846.000
33.17000 823.000
33.18500 805.000
33.20000 770.000
33.21500 769.000
33.23000 761.000
33.24500 791.000
33.26000 767.000
33.27500 790.000
33.29000 739.000
33.30500 750.000
33.32000 744.000
33.33500 795.000
33.35000 785.000
33.36500 777.000
33.38000 777.000
33.39500 766.000
33.41000 749.000
33.42500 731.000
33.44000 794.000
33.45500 767.000
33.47000 766.000
33.48500 781.000
33.50000 758.000
33.51500 753.000
33.53000 766.000
33.54500 804.000
33.56000 788.000
33.57500 764.000
33.59000 777.000
33.60500 752.000
33.62000 741.000
33.63500 775.000
33.65000 764.000
33.66500 788.000
33.68000 772.000
33.69500 735.000
33.71000 745.000
33.72500 739.000
33.74000 738.000
33.75500 722.000
33.77000 773.000
33.78500 771.000
33.80000 767.000
33.81500 764.000
33.83000 755.000
33.84500 765.000
33.86000 747.000
33.87500 728.000
33.89000 771.000
33.90500 753.000
33.92000 744.000
33.93500 728.000
33.95000 745.000
33.96500 759.000
33.98000 769.000
33.99500 744.000
34.01000 756.000
34.02500 746.000
34.04000 734.000
34.05500 743.000
34.07000 762.000
34.08500 776.000
34.10000 726.000
34.11500 777.000
34.13000 754.000
34.14500 748.000
34.16000 764.000
34.17500 742.000
34.19000 696.000
34.20500 690.000
34.22000 747.000
34.23500 726.000
34.25000 736.000
34.26500 744.000
34.28000 753.000
34.29500 755.000
34.31000 732.000
34.32500 690.000
34.34000 692.000
34.35500 732.000
34.37000 721.000
34.38500 732.000
34.40000 741.000
34.41500 711.000
34.43000 727.000
34.44500 738.000
34.46000 771.000
34.47500 756.000
34.49000 743.000
34.50500 751.000
34.52000 754.000
34.53500 707.000
34.55000 714.000
34.56500 712.000
34.58000 744.000
34.59500 721.000
34.61000 717.000
34.62500 717.000
34.64000 733.000
34.65500 714.000
34.67000 717.000
34.68500 683.000
34.70000 719.000
34.71500 715.000
34.73000 752.000
34.74500 757.000
34.76000 717.000
34.77500 731.000
34.79000 748.000
34.80500 739.000
34.82000 777.000
34.83500 734.000
34.85000 704.000
34.86500 739.000
34.88000 727.000
34.89500 768.000
34.91000 771.000
34.92500 737.000
34.94000 765.000
34.95500 778.000
34.97000 749.000
34.98500 781.000
35.00000 767.000
35.01500 769.000
35.03000 737.000
35.04500 784.000
35.06000 807.000
35.07500 806.000
35.09000 818.000
35.10500 792.000
35.12000 808.000
35.13500 852.000
35.15000 809.000
35.16500 828.000
35.18000 855.000
35.19500 826.000
35.21000 864.000
35.22500 883.000
35.24000 869.000
35.25500 909.000
35.27000 920.000
35.28500 887.000
35.30000 850.000
35.31500 878.000
35.33000 885.000
35.34500 909.000
35.36000 952.000
35.37500 935.000
35.39000 928.000
35.40500 986.000
35.42000 964.000
35.43500 919.000
35.45000 933.000
35.46500 944.000
35.48000 910.000
35.49500 990.000
35.51000 1016.000
35.52500 980.000
35.54000 944.000
35.55500 936.000
35.57000 925.000
35.58500 973.000
35.60000 969.000
35.61500 933.000
35.63000 981.000
35.64500 955.000
35.66000 923.000
35.67500 969.000
35.69000 944.000
35.70500 935.000
35.72000 928.000
35.73500 963.000
35.75000 974.000
35.76500 890.000
35.78000 915.000
35.79500 937.000
35.81000 931.000
35.82500 935.000
35.84000 932.000
35.85500 912.000
35.87000 968.000
35.88500 975.000
35.90000 976.000
35.91500 899.000
35.93000 922.000
35.94500 882.000
35.96000 918.000
35.97500 954.000
35.99000 972.000
36.00500 907.000
36.02000 938.000
36.03500 948.000
36.05000 930.000
36.06500 900.000
36.08000 887.000
36.09500 917.000
36.11000 930.000
36.12500 900.000
36.14000 895.000
36.15500 912.000
36.17000 914.000
36.18500 880.000
36.20000 871.000
36.21500 877.000
36.23000 869.000
36.24500 902.000
36.26000 887.000
36.27500 906.000
36.29000 885.000
36.30500 936.000
36.32000 893.000
36.33500 861.000
36.35000 879.000
36.36500 906.000
36.38000 902.000
36.39500 901.000
36.41000 917.000
36.42500 895.000
36.44000 891.000
36.45500 887.000
36.47000 872.000
36.48500 865.000
36.50000 889.000
36.51500 874.000
36.53000 900.000
36.54500 906.000
36.56000 900.000
36.57500 860.000
36.59000 918.000
36.60500 859.000
36.62000 873.000
36.63500 903.000
36.65000 874.000
36.66500 869.000
36.68000 898.000
36.69500 864.000
36.71000 913.000
36.72500 897.000
36.74000 880.000
36.75500 876.000
36.77000 840.000
36.78500 911.000
36.80000 906.000
36.81500 898.000
36.83000 879.000
36.84500 856.000
36.86000 879.000
36.87500 879.000
36.89000 872.000
36.90500 919.000
36.92000 872.000
36.93500 853.000
36.95000 839.000
36.96500 889.000
36.98000 874.000
36.99500 894.000
37.01000 942.000
37.02500 913.000
37.04000 854.000
37.05500 860.000
37.07000 892.000
37.08500 859.000
37.10000 851.000
37.11500 847.000
37.13000 858.000
37.14500 873.000
37.16000 891.000
37.17500 888.000
37.19000 925.000
37.20500 895.000
37.22000 884.000
37.23500 926.000
37.25000 924.000
37.26500 925.000
37.28000 900.000
37.29500 878.000
37.31000 896.000
37.32500 935.000
37.34000 920.000
37.35500 857.000
37.37000 899.000
37.38500 899.000
37.40000 930.000
37.41500 882.000
37.43000 868.000
37.44500 894.000
37.46000 873.000
37.47500 866.000
37.49000 901.000
37.50500 855.000
37.52000 818.000
37.53500 860.000
37.55000 837.000
37.56500 802.000
37.58000 845.000
37.59500 838.000
37.61000 863.000
37.62500 854.000
37.64000 804.000
37.65500 836.000
37.67000 837.000
37.68500 835.000
37.70000 823.000
37.71500 799.000
37.73000 825.000
37.74500 833.000
37.76000 877.000
37.77500 823.000
37.79000 795.000
37.80500 793.000
37.82000 800.000
37.83500 831.000
37.85000 829.000
37.86500 747.000
37.88000 787.000
37.89500 777.000
37.91000 806.000
37.92500 807.000
37.94000 751.000
37.95500 773.000
37.97000 791.000
37.98500 796.000
38.00000 781.000
38.01500 806.000
38.03000 826.000
38.04500 826.000
38.06000 769.000
38.07500 750.000
38.09000 762.000
38.10500 745.000
38.12000 773.000
38.13500 777.000
38.15000 771.000
38.16500 775.000
38.18000 793.000
38.19500 815.000
38.21000 800.000
38.22500 757.000
38.24000 810.000
38.25500 803.000
38.27000 775.000
38.28500 753.000
38.30000 762.000
38.31500 816.000
38.33000 752.000
38.34500 760.000
38.36000 727.000
38.37500 744.000
38.39000 704.000
38.40500 732.000
38.42000 732.000
38.43500 746.000
38.45000 742.000
38.46500 757.000
38.48000 747.000
38.49500 740.000
38.51000 749.000
38.52500 766.000
38.54000 691.000
38.55500 739.000
38.57000 730.000
38.58500 760.000
38.60000 707.000
38.61500 713.000
38.63000 700.000
38.64500 739.000
38.66000 710.000
38.67500 692.000
38.69000 750.000
38.70500 743.000
38.72000 728.000
38.73500 716.000
38.75000 715.000
38.76500 765.000
38.78000 683.000
38.79500 717.000
38.81000 747.000
38.82500 741.000
38.84000 704.000
38.85500 717.000
38.87000 733.000
38.88500 755.000
38.90000 736.000
38.91500 714.000
38.93000 728.000
38.94500 734.000
38.96000 729.000
38.97500 734.000
38.99000 726.000
39.00500 715.000
39.02000 723.000
39.03500 721.000
39.05000 709.000
39.06500 739.000
39.08000 729.000
39.09500 717.000
39.11000 711.000
39.12500 696.000
39.14000 673.000
39.15500 711.000
39.17000 690.000
39.18500 656.000
39.20000 727.000
39.21500 755.000
39.23000 718.000
39.24500 731.000
39.26000 727.000
39.27500 728.000
39.29000 691.000
39.30500 687.000
39.32000 697.000
39.33500 686.000
39.35000 698.000
39.36500 696.000
39.38000 708.000
39.39500 697.000
39.41000 703.000
39.42500 679.000
39.44000 734.000
39.45500 736.000
39.47000 688.000
39.48500 687.000
39.50000 672.000
39.51500 681.000
39.53000 695.000
39.54500 697.000
39.56000 716.000
39.57500 650.000
39.59000 676.000
39.60500 670.000
39.62000 654.000
39.63500 715.000
39.65000 686.000
39.66500 689.000
39.68000 675.000
39.69500 667.000
39.71000 687.000
39.72500 672.000
39.74000 666.000
39.75500 696.000
39.77000 662.000
39.78500 688.000
39.80000 639.000
39.81500 668.000
39.83000 658.000
39.84500 680.000
39.86000 681.000
39.87500 673.000
39.89000 651.000
39.90500 651.000
39.92000 685.000
39.93500 691.000
39.95000 635.000
39.96500 662.000
39.98000 683.000
39.99500 668.000
40.01000 639.000
40.02500 660.000
40.04000 645.000
40.05500 677.000
40.07000 640.000
40.08500 671.000
40.10000 637.000
40.11500 638.000
40.13000 618.000
40.14500 658.000
40.16000 669.000
40.17500 642.000
40.19000 649.000
40.20500 632.000
40.22000 631.000
40.23500 658.000
40.25000 615.000
40.26500 617.000
40.28000 609.000
40.29500 621.000
40.31000 640.000
40.32500 646.000
40.34000 650.000
40.35500 642.000
40.37000 614.000
40.38500 621.000
40.40000 597.000
40.41500 613.000
40.43000 609.000
40.44500 638.000
40.46000 657.000
40.47500 616.000
40.49000 658.000
40.50500 617.000
40.52000 607.000
40.53500 603.000
40.55000 613.000
40.56500 630.000
40.58000 633.000
40.59500 608.000
40.61000 607.000
40.62500 598.000
40.64000 631.000
40.65500 665.000
40.67000 593.000
40.68500 604.000
40.70000 598.000
40.71500 618.000
40.73000 603.000
40.74500 585.000
40.76000 623.000
40.77500 607.000
40.79000 595.000
40.80500 595.000
40.82000 631.000
40.83500 642.000
40.85000 608.000
40.86500 614.000
40.88000 596.000
40.89500 593.000
40.91000 637.000
40.92500 613.000
40.94000 599.000
40.95500 618.000
40.97000 643.000
40.98500 614.000
41.00000 612.000
41.01500 613.000
41.03000 602.000
41.04500 589.000
41.06000 625.000
41.07500 619.000
41.09000 604.000
41.10500 620.000
41.12000 631.000
41.13500 598.000
41.15000 608.000
41.16500 592.000
41.18000 612.000
41.19500 607.000
41.21000 617.000
41.22500 669.000
41.24000 595.000
41.25500 567.000
41.27000 586.000
41.28500 595.000
41.30000 580.000
41.31500 576.000
41.33000 609.000
41.34500 578.000
41.36000 573.000
41.37500 559.000
41.39000 568.000
41.40500 569.000
41.42000 566.000
41.43500 585.000
41.45000 592.000
41.46500 557.000
41.48000 606.000
41.49500 587.000
41.51000 569.000
41.52500 556.000
41.54000 570.000
41.55500 587.000
41.57000 586.000
41.58500 589.000
41.60000 572.000
41.61500 557.000
41.63000 602.000
41.64500 573.000
41.66000 587.000
41.67500 543.000
41.69000 568.000
41.70500 547.000
41.72000 551.000
41.73500 611.000
41.75000 573.000
41.76500 569.000
41.78000 563.000
41.79500 610.000
41.81000 608.000
41.82500 553.000
41.84000 548.000
41.85500 549.000
41.87000 569.000
41.88500 587.000
41.90000 565.000
41.91500 550.000
41.93000 558.000
41.94500 563.000
41.96000 564.000
41.97500 591.000
41.99000 551.000
42.00500 561.000
42.02000 544.000
42.03500 574.000
42.05000 559.000
42.06500 546.000
42.08000 588.000
42.09500 550.000
42.11000 585.000
42.12500 572.000
42.14000 591.000
42.15500 609.000
42.17000 598.000
42.18500 564.000
42.20000 566.000
42.21500 594.000
42.23000 579.000
42.24500 590.000
42.26000 585.000
42.27500 565.000
42.29000 589.000
42.30500 603.000
42.32000 575.000
42.33500 595.000
42.35000 617.000
42.36500 556.000
42.38000 570.000
42.39500 568.000
42.41000 549.000
42.42500 581.000
42.44000 625.000
42.45500 639.000
42.47000 616.000
42.48500 631.000
42.50000 583.000
42.51500 601.000
42.53000 605.000
42.54500 605.000
42.56000 630.000
42.57500 602.000
42.59000 627.000
42.60500 612.000
42.62000 580.000
42.63500 590.000
42.65000 627.000
42.66500 608.000
42.68000 622.000
42.69500 621.000
42.71000 601.000
42.72500 631.000
42.74000 595.000
42.75500 620.000
42.77000 604.000
42.78500 611.000
42.80000 623.000
42.81500 570.000
42.83000 610.000
42.84500 612.000
42.86000 614.000
42.87500 653.000
42.89000 641.000
42.90500 585.000
42.92000 620.000
42.93500 623.000
42.95000 622.000
42.96500 652.000
42.98000 684.000
42.99500 677.000
43.01000 654.000
43.02500 674.000
43.04000 660.000
43.05500 640.000
43.07000 681.000
43.08500 679.000
43.10000 733.000
43.11500 731.000
43.13000 709.000
43.14500 695.000
43.16000 734.000
43.17500 764.000
43.19000 756.000
43.20500 784.000
43.22000 749.000
43.23500 740.000
43.25000 707.000
43.26500 765.000
43.28000 749.000
43.29500 782.000
43.31000 770.000
43.32500 771.000
43.34000 732.000
43.35500 775.000
43.37000 742.000
43.38500 786.000
43.40000 753.000
43.41500 742.000
43.43000 739.000
43.44500 760.000
43.46000 773.000
43.47500 760.000
43.49000 759.000
43.50500 754.000
43.52000 757.000
43.53500 785.000
43.55000 758.000
43.56500 739.000
43.58000 718.000
43.59500 735.000
43.61000 731.000
43.62500 769.000
43.64000 729.000
43.65500 748.000
43.67000 766.000
43.68500 708.000
43.70000 723.000
43.71500 744.000
43.73000 749.000
43.74500 684.000
43.76000 710.000
43.77500 735.000
43.79000 694.000
43.80500 704.000
43.82000 734.000
43.83500 762.000
43.85000 738.000
43.86500 728.000
43.88000 711.000
43.89500 716.000
43.91000 663.000
43.92500 698.000
43.94000 722.000
43.95500 741.000
43.97000 712.000
43.98500 678.000
44.00000 699.000
44.01500 731.000
44.03000 709.000
44.04500 739.000
44.06000 708.000
44.07500 668.000
44.09000 658.000
44.10500 670.000
44.12000 689.000
44.13500 700.000
44.15000 645.000
44.16500 714.000
44.18000 721.000
44.19500 669.000
44.21000 719.000
44.22500 676.000
44.24000 632.000
44.25500 715.000
44.27000 709.000
44.28500 668.000
44.30000 691.000
44.31500 707.000
44.33000 682.000
44.34500 677.000
44.36000 688.000
44.37500 680.000
44.39000 670.000
44.40500 684.000
44.42000 638.000
44.43500 684.000
44.45000 667.000
44.46500 684.000
44.48000 616.000
44.49500 662.000
44.51000 677.000
44.52500 667.000
44.54000 673.000
44.55500 675.000
44.57000 687.000
44.58500 700.000
44.60000 725.000
44.61500 674.000
44.63000 673.000
44.64500 656.000
44.66000 677.000
44.67500 679.000
44.69000 717.000
44.70500 675.000
44.72000 651.000
44.73500 684.000
44.75000 686.000
44.76500 667.000
44.78000 652.000
44.79500 663.000
44.81000 655.000
44.82500 680.000
44.84000 655.000
44.85500 650.000
44.87000 629.000
44.88500 645.000
44.90000 638.000
44.91500 700.000
44.93000 664.000
44.94500 647.000
44.96000 638.000
44.97500 661.000
44.99000 612.000
45.00500 628.000
45.02000 667.000
45.03500 643.000
45.05000 661.000
45.06500 611.000
45.08000 597.000
45.09500 638.000
45.11000 674.000
45.12500 664.000
45.14000 679.000
45.15500 664.000
45.17000 661.000
45.18500 652.000
45.20000 643.000
45.21500 656.000
45.23000 647.000
45.24500 643.000
45.26000 629.000
45.27500 620.000
45.29000 675.000
45.30500 627.000
45.32000 629.000
45.33500 619.000
45.35000 610.000
45.36500 646.000
45.38000 678.000
45.39500 648.000
45.41000 661.000
45.42500 645.000
45.44000 652.000
45.45500 629.000
45.47000 623.000
45.48500 605.000
45.50000 636.000
45.51500 641.000
45.53000 623.000
45.54500 612.000
45.56000 641.000
45.57500 626.000
45.59000 625.000
45.60500 617.000
45.62000 626.000
45.63500 640.000
45.65000 597.000
45.66500 600.000
45.68000 596.000
45.69500 602.000
45.71000 591.000
45.72500 582.000
45.74000 596.000
45.75500 601.000
45.77000 605.000
45.78500 579.000
45.80000 612.000
45.81500 640.000
45.83000 595.000
45.84500 591.000
45.86000 595.000
45.87500 582.000
45.89000 624.000
45.90500 587.000
45.92000 587.000
45.93500 566.000
45.95000 545.000
45.96500 597.000
45.98000 599.000
45.99500 575.000
46.01000 606.000
46.02500 617.000
46.04000 574.000
46.05500 561.000
46.07000 577.000
46.08500 557.000
46.10000 559.000
46.11500 583.000
46.13000 548.000
46.14500 565.000
46.16000 561.000
46.17500 581.000
46.19000 553.000
46.20500 544.000
46.22000 532.000
46.23500 546.000
46.25000 552.000
46.26500 546.000
46.28000 550.000
46.29500 580.000
46.31000 540.000
46.32500 519.000
46.34000 535.000
46.35500 581.000
46.37000 571.000
46.38500 561.000
46.40000 533.000
46.41500 523.000
46.43000 521.000
46.44500 533.000
46.46000 540.000
46.47500 562.000
46.49000 536.000
46.50500 549.000
46.52000 573.000
46.53500 540.000
46.55000 531.000
46.56500 536.000
46.58000 545.000
46.59500 535.000
46.61000 522.000
46.62500 535.000
46.64000 513.000
46.65500 543.000
46.67000 529.000
46.68500 547.000
46.70000 524.000
46.71500 564.000
46.73000 545.000
46.74500 490.000
46.76000 498.000
46.77500 506.000
46.79000 547.000
46.80500 537.000
46.82000 537.000
46.83500 522.000
46.85000 530.000
46.86500 526.000
46.88000 519.000
46.89500 539.000
46.91000 512.000
46.92500 508.000
46.94000 508.000
46.95500 504.000
46.97000 490.000
46.98500 538.000
47.00000 534.000
47.01500 503.000
47.03000 515.000
47.04500 535.000
47.06000 525.000
47.07500 499.000
47.09000 476.000
47.10500 514.000
47.12000 479.000
47.13500 505.000
47.15000 500.000
47.16500 530.000
47.18000 503.000
47.19500 517.000
47.21000 515.000
47.22500 508.000
47.24000 512.000
47.25500 497.000
47.27000 508.000
47.28500 514.000
47.30000 510.000
47.31500 493.000
47.33000 477.000
47.34500 486.000
47.36000 506.000
47.37500 466.000
47.39000 505.000
47.40500 503.000
47.42000 471.000
47.43500 505.000
47.45000 520.000
47.46500 483.000
47.48000 494.000
47.49500 515.000
47.51000 537.000
47.52500 503.000
47.54000 513.000
47.55500 514.000
47.57000 505.000
47.58500 501.000
47.60000 500.000
47.61500 486.000
47.63000 491.000
47.64500 467.000
47.66000 470.000
47.67500 508.000
47.69000 492.000
47.70500 465.000
47.72000 490.000
47.73500 491.000
47.75000 479.000
47.76500 474.000
47.78000 457.000
47.79500 468.000
47.81000 472.000
47.82500 469.000
47.84000 444.000
47.85500 458.000
47.87000 471.000
47.88500 442.000
47.90000 452.000
47.91500 478.000
47.93000 491.000
47.94500 479.000
47.96000 499.000
47.97500 507.000
47.99000 488.000
48.00500 471.000
48.02000 496.000
48.03500 498.000
48.05000 472.000
48.06500 462.000
48.08000 470.000
48.09500 484.000
48.11000 476.000
48.12500 473.000
48.14000 461.000
48.15500 453.000
48.17000 454.000
48.18500 430.000
48.20000 439.000
48.21500 473.000
48.23000 482.000
48.24500 453.000
48.26000 470.000
48.27500 463.000
48.29000 457.000
48.30500 452.000
48.32000 488.000
48.33500 449.000
48.35000 453.000
48.36500 484.000
48.38000 449.000
48.39500 419.000
48.41000 462.000
48.42500 467.000
48.44000 453.000
48.45500 460.000
48.47000 447.000
48.48500 472.000
48.50000 463.000
48.51500 473.000
48.53000 466.000
48.54500 444.000
48.56000 426.000
48.57500 461.000
48.59000 464.000
48.60500 462.000
48.62000 456.000
48.63500 488.000
48.65000 443.000
48.66500 472.000
48.68000 438.000
48.69500 439.000
48.71000 449.000
48.72500 446.000
48.74000 446.000
48.75500 431.000
48.77000 437.000
48.78500 428.000
48.80000 456.000
48.81500 471.000
48.83000 430.000
48.84500 467.000
48.86000 478.000
48.87500 462.000
48.89000 458.000
48.90500 476.000
48.92000 437.000
48.93500 445.000
48.95000 482.000
48.96500 470.000
48.98000 456.000
48.99500 462.000
49.01000 447.000
49.02500 439.000
49.04000 438.000
49.05500 433.000
49.07000 445.000
49.08500 453.000
49.10000 448.000
49.11500 445.000
49.13000 447.000
49.14500 411.000
49.16000 437.000
49.17500 409.000
49.19000 439.000
49.20500 445.000
49.22000 446.000
49.23500 453.000
49.25000 463.000
49.26500 447.000
49.28000 425.000
49.29500 458.000
49.31000 457.000
49.32500 430.000
49.34000 472.000
49.35500 447.000
49.37000 438.000
49.38500 462.000
49.40000 460.000
49.41500 452.000
49.43000 453.000
49.44500 448.000
49.46000 454.000
49.47500 430.000
49.49000 421.000
49.50500 452.000
49.52000 454.000
49.53500 441.000
49.55000 447.000
49.56500 442.000
49.58000 435.000
49.59500 460.000
49.61000 455.000
49.62500 482.000
49.64000 452.000
49.65500 475.000
49.67000 464.000
49.68500 434.000
49.70000 454.000
49.71500 431.000
49.73000 458.000
49.74500 431.000
49.76000 446.000
49.77500 453.000
49.79000 428.000
49.80500 438.000
49.82000 451.000
49.83500 471.000
49.85000 454.000
49.86500 455.000
49.88000 473.000
49.89500 466.000
49.91000 446.000
49.92500 458.000
49.94000 451.000
49.95500 426.000
49.97000 442.000
49.98500 475.000
50.00000 456.000
50.01500 460.000
50.03000 474.000
50.04500 490.000
50.06000 466.000
50.07500 424.000
50.09000 509.000
50.10500 499.000
50.12000 489.000
50.13500 472.000
50.15000 485.000
50.16500 473.000
50.18000 487.000
50.19500 480.000
50.21000 468.000
50.22500 492.000
50.24000 479.000
50.25500 475.000
50.27000 478.000
50.28500 469.000
50.30000 482.000
50.31500 458.000
50.33000 480.000
50.34500 484.000
50.36000 478.000
50.37500 456.000
50.39000 468.000
50.40500 434.000
50.42000 482.000
50.43500 487.000
50.45000 441.000
50.46500 449.000
50.48000 466.000
50.49500 456.000
50.51000 435.000
50.52500 468.000
50.54000 470.000
50.55500 464.000
50.57000 472.000
50.58500 439.000
50.60000 441.000
50.61500 445.000
50.63000 465.000
50.64500 450.000
50.66000 462.000
50.67500 467.000
50.69000 451.000
50.70500 466.000
50.72000 443.000
50.73500 441.000
50.75000 462.000
50.76500 458.000
50.78000 460.000
50.79500 443.000
50.81000 463.000
50.82500 459.000
50.84000 497.000
50.85500 469.000
50.87000 461.000
50.88500 484.000
50.90000 515.000
50.91500 435.000
50.93000 452.000
50.94500 442.000
50.96000 472.000
50.97500 452.000
50.99000 458.000
51.00500 464.000
51.02000 486.000
51.03500 456.000
51.05000 475.000
51.06500 464.000
51.08000 428.000
51.09500 443.000
51.11000 463.000
51.12500 451.000
51.14000 450.000
51.15500 438.000
51.17000 441.000
51.18500 438.000
51.20000 407.000
51.21500 423.000
51.23000 426.000
51.24500 435.000
51.26000 454.000
51.27500 482.000
51.29000 462.000
51.30500 477.000
51.32000 487.000
51.33500 425.000
51.35000 459.000
51.36500 467.000
51.38000 442.000
51.39500 456.000
51.41000 462.000
51.42500 469.000
51.44000 468.000
51.45500 492.000
51.47000 475.000
51.48500 469.000
51.50000 488.000
51.51500 491.000
51.53000 454.000
51.54500 482.000
51.56000 469.000
51.57500 452.000
51.59000 456.000
51.60500 457.000
51.62000 471.000
51.63500 470.000
51.65000 477.000
51.66500 500.000
51.68000 482.000
51.69500 511.000
51.71000 487.000
51.72500 514.000
51.74000 496.000
51.75500 482.000
51.77000 472.000
51.78500 475.000
51.80000 476.000
51.81500 488.000
51.83000 499.000
51.84500 496.000
51.86000 483.000
51.87500 491.000
51.89000 483.000
51.90500 460.000
51.92000 487.000
51.93500 455.000
51.95000 475.000
51.96500 477.000
51.98000 440.000
51.99500 457.000
52.01000 481.000
52.02500 517.000
52.04000 456.000
52.05500 473.000
52.07000 460.000
52.08500 471.000
52.10000 472.000
52.11500 434.000
52.13000 441.000
52.14500 467.000
52.16000 512.000
52.17500 498.000
52.19000 468.000
52.20500 449.000
52.22000 449.000
52.23500 494.000
52.25000 498.000
52.26500 472.000
52.28000 457.000
52.29500 463.000
52.31000 501.000
52.32500 477.000
52.34000 458.000
52.35500 465.000
52.37000 455.000
52.38500 473.000
52.40000 474.000
52.41500 442.000
52.43000 458.000
52.44500 456.000
52.46000 449.000
52.47500 454.000
52.49000 440.000
52.50500 469.000
52.52000 493.000
52.53500 470.000
52.55000 464.000
52.56500 436.000
52.58000 444.000
52.59500 483.000
52.61000 447.000
52.62500 465.000
52.64000 473.000
52.65500 473.000
52.67000 455.000
52.68500 440.000
52.70000 438.000
52.71500 445.000
52.73000 456.000
52.74500 451.000
52.76000 461.000
52.77500 464.000
52.79000 459.000
52.80500 457.000
52.82000 476.000
52.83500 468.000
52.85000 479.000
52.86500 468.000
52.88000 442.000
52.89500 444.000
52.91000 441.000
52.92500 442.000
52.94000 454.000
52.95500 462.000
52.97000 492.000
52.98500 469.000
53.00000 453.000
53.01500 470.000
53.03000 429.000
53.04500 445.000
53.06000 468.000
53.07500 432.000
53.09000 473.000
53.10500 413.000
53.12000 441.000
53.13500 438.000
53.15000 444.000
53.16500 459.000
53.18000 452.000
53.19500 460.000
53.21000 423.000
53.22500 481.000
53.24000 452.000
53.25500 453.000
53.27000 455.000
53.28500 459.000
53.30000 446.000
53.31500 470.000
53.33000 444.000
53.34500 451.000
53.36000 434.000
53.37500 438.000
53.39000 449.000
53.40500 444.000
53.42000 442.000
53.43500 450.000
53.45000 456.000
53.46500 463.000
53.48000 445.000
53.49500 455.000
53.51000 465.000
53.52500 453.000
53.54000 456.000
53.55500 465.000
53.57000 467.000
53.58500 467.000
53.60000 480.000
53.61500 484.000
53.63000 459.000
53.64500 464.000
53.66000 446.000
53.67500 428.000
53.69000 438.000
53.70500 448.000
53.72000 457.000
53.73500 453.000
53.75000 464.000
53.76500 479.000
53.78000 450.000
53.79500 434.000
53.81000 433.000
53.82500 458.000
53.84000 442.000
53.85500 423.000
53.87000 406.000
53.88500 449.000
53.90000 451.000
53.91500 468.000
53.93000 470.000
53.94500 465.000
53.96000 455.000
53.97500 449.000
53.99000 443.000
54.00500 432.000
54.02000 448.000
54.03500 444.000
54.05000 409.000
54.06500 464.000
54.08000 443.000
54.09500 453.000
54.11000 456.000
54.12500 431.000
54.14000 402.000
54.15500 466.000
54.17000 452.000
54.18500 419.000
54.20000 457.000
54.21500 413.000
54.23000 445.000
54.24500 439.000
54.26000 412.000
54.27500 452.000
54.29000 436.000
54.30500 426.000
54.32000 445.000
54.33500 423.000
54.35000 437.000
54.36500 423.000
54.38000 431.000
54.39500 422.000
54.41000 450.000
54.42500 438.000
54.44000 478.000
54.45500 450.000
54.47000 419.000
54.48500 428.000
54.50000 419.000
54.51500 431.000
54.53000 395.000
54.54500 433.000
54.56000 443.000
54.57500 436.000
54.59000 423.000
54.60500 413.000
54.62000 438.000
54.63500 458.000
54.65000 461.000
54.66500 469.000
54.68000 448.000
54.69500 433.000
54.71000 423.000
54.72500 443.000
54.74000 466.000
54.75500 422.000
54.77000 418.000
54.78500 434.000
54.80000 443.000
54.81500 424.000
54.83000 432.000
54.84500 433.000
54.86000 448.000
54.87500 424.000
54.89000 419.000
54.90500 416.000
54.92000 420.000
54.93500 414.000
54.95000 389.000
54.96500 416.000
54.98000 429.000
54.99500 418.000
55.01000 447.000
55.02500 459.000
55.04000 427.000
55.05500 436.000
55.07000 428.000
55.08500 427.000
55.10000 428.000
55.11500 441.000
55.13000 430.000
55.14500 423.000
55.16000 438.000
55.17500 420.000
55.19000 405.000
55.20500 379.000
55.22000 413.000
55.23500 460.000
55.25000 443.000
55.26500 416.000
55.28000 389.000
55.29500 375.000
55.31000 416.000
55.32500 414.000
55.34000 415.000
55.35500 427.000
55.37000 419.000
55.38500 406.000
55.40000 423.000
55.41500 419.000
55.43000 411.000
55.44500 401.000
55.46000 419.000
55.47500 404.000
55.49000 439.000
55.50500 388.000
55.52000 448.000
55.53500 439.000
55.55000 431.000
55.56500 413.000
55.58000 410.000
55.59500 409.000
55.61000 385.000
55.62500 423.000
55.64000 400.000
55.65500 396.000
55.67000 418.000
55.68500 400.000
55.70000 432.000
55.71500 445.000
55.73000 439.000
55.74500 416.000
55.76000 410.000
55.77500 434.000
55.79000 448.000
55.80500 392.000
55.82000 421.000
55.83500 405.000
55.85000 422.000
55.86500 423.000
55.88000 390.000
55.89500 396.000
55.91000 396.000
55.92500 401.000
55.94000 408.000
55.95500 422.000
55.97000 405.000
55.98500 405.000
56.00000 434.000
56.01500 436.000
56.03000 416.000
56.04500 421.000
56.06000 415.000
56.07500 410.000
56.09000 403.000
56.10500 437.000
56.12000 448.000
56.13500 417.000
56.15000 406.000
56.16500 413.000
56.18000 392.000
56.19500 414.000
56.21000 414.000
56.22500 411.000
56.24000 443.000
56.25500 400.000
56.27000 412.000
56.28500 402.000
56.30000 398.000
56.31500 396.000
56.33000 393.000
56.34500 397.000
56.36000 404.000
56.37500 415.000
56.39000 391.000
56.40500 411.000
56.42000 400.000
56.43500 408.000
56.45000 400.000
56.46500 406.000
56.48000 404.000
56.49500 412.000
56.51000 423.000
56.52500 451.000
56.54000 421.000
56.55500 410.000
56.57000 427.000
56.58500 432.000
56.60000 421.000
56.61500 412.000
56.63000 405.000
56.64500 395.000
56.66000 417.000
56.67500 433.000
56.69000 408.000
56.70500 405.000
56.72000 447.000
56.73500 418.000
56.75000 431.000
56.76500 399.000
56.78000 394.000
56.79500 406.000
56.81000 397.000
56.82500 400.000
56.84000 377.000
56.85500 378.000
56.87000 374.000
56.88500 396.000
56.90000 422.000
56.91500 401.000
56.93000 418.000
56.94500 418.000
56.96000 454.000
56.97500 409.000
56.99000 414.000
57.00500 416.000
57.02000 401.000
57.03500 408.000
57.05000 410.000
57.06500 420.000
57.08000 413.000
57.09500 400.000
57.11000 388.000
57.12500 389.000
57.14000 411.000
57.15500 422.000
57.17000 428.000
57.18500 407.000
57.20000 416.000
57.21500 405.000
57.23000 392.000
57.24500 446.000
57.26000 461.000
57.27500 432.000
57.29000 384.000
57.30500 416.000
57.32000 411.000
57.33500 419.000
57.35000 437.000
57.36500 408.000
57.38000 433.000
57.39500 464.000
57.41000 450.000
57.42500 416.000
57.44000 423.000
57.45500 431.000
57.47000 392.000
57.48500 413.000
57.50000 420.000
57.51500 434.000
57.53000 414.000
57.54500 442.000
57.56000 398.000
57.57500 426.000
57.59000 406.000
57.60500 418.000
57.62000 407.000
57.63500 454.000
57.65000 446.000
57.66500 432.000
57.68000 390.000
57.69500 408.000
57.71000 424.000
57.72500 448.000
57.74000 446.000
57.75500 455.000
57.77000 425.000
57.78500 412.000
57.80000 431.000
57.81500 458.000
57.83000 424.000
57.84500 443.000
57.86000 478.000
57.87500 437.000
57.89000 435.000
57.90500 433.000
57.92000 454.000
57.93500 451.000
57.95000 443.000
57.96500 431.000
57.98000 434.000
57.99500 440.000
58.01000 465.000
58.02500 415.000
58.04000 453.000
58.05500 469.000
58.07000 439.000
58.08500 451.000
58.10000 490.000
58.11500 475.000
58.13000 449.000
58.14500 470.000
58.16000 489.000
58.17500 481.000
58.19000 483.000
58.20500 448.000
58.22000 473.000
58.23500 470.000
58.25000 475.000
58.26500 488.000
58.28000 465.000
58.29500 465.000
58.31000 478.000
58.32500 484.000
58.34000 479.000
58.35500 472.000
58.37000 476.000
58.38500 472.000
58.40000 490.000
58.41500 467.000
58.43000 487.000
58.44500 499.000
58.46000 464.000
58.47500 445.000
58.49000 516.000
58.50500 550.000
58.52000 498.000
58.53500 502.000
58.55000 501.000
58.56500 507.000
58.58000 517.000
58.59500 518.000
58.61000 514.000
58.62500 541.000
58.64000 490.000
58.65500 506.000
58.67000 508.000
58.68500 479.000
58.70000 510.000
58.71500 524.000
58.73000 515.000
58.74500 514.000
58.76000 506.000
58.77500 503.000
58.79000 503.000
58.80500 532.000
58.82000 492.000
58.83500 486.000
58.85000 479.000
58.86500 461.000
58.88000 488.000
58.89500 479.000
58.91000 482.000
58.92500 515.000
58.94000 493.000
58.95500 488.000
58.97000 504.000
58.98500 478.000
59.00000 461.000
59.01500 493.000
59.03000 473.000
59.04500 458.000
59.06000 466.000
59.07500 467.000
59.09000 460.000
59.10500 446.000
59.12000 474.000
59.13500 438.000
59.15000 446.000
59.16500 459.000
59.18000 446.000
59.19500 489.000
59.21000 458.000
59.22500 438.000
59.24000 422.000
59.25500 431.000
59.27000 412.000
59.28500 438.000
59.30000 427.000
59.31500 425.000
59.33000 414.000
59.34500 402.000
59.36000 441.000
59.37500 424.000
59.39000 413.000
59.40500 464.000
59.42000 435.000
59.43500 409.000
59.45000 408.000
59.46500 417.000
59.48000 419.000
59.49500 432.000
59.51000 455.000
59.52500 446.000
59.54000 421.000
59.55500 447.000
59.57000 427.000
59.58500 418.000
59.60000 430.000
59.61500 416.000
59.63000 431.000
59.64500 421.000
59.66000 431.000
59.67500 416.000
59.69000 407.000
59.70500 416.000
59.72000 414.000
59.73500 433.000
59.75000 427.000
59.76500 390.000
59.78000 401.000
59.79500 399.000
59.81000 412.000
59.82500 426.000
59.84000 408.000
59.85500 415.000
59.87000 424.000
59.88500 412.000
59.90000 410.000
59.91500 418.000
59.93000 405.000
59.94500 420.000
59.96000 393.000
59.97500 405.000
59.99000 389.000
60.00500 392.000
60.02000 388.000
60.03500 412.000
60.05000 426.000
60.06500 395.000
60.08000 414.000
60.09500 414.000
60.11000 357.000
60.12500 396.000
60.14000 416.000
60.15500 392.000
60.17000 415.000
60.18500 401.000
60.20000 401.000
60.21500 395.000
60.23000 392.000
60.24500 404.000
60.26000 398.000
60.27500 381.000
60.29000 402.000
60.30500 428.000
60.32000 427.000
60.33500 415.000
60.35000 396.000
60.36500 373.000
60.38000 380.000
60.39500 387.000
60.41000 393.000
60.42500 400.000
60.44000 394.000
60.45500 396.000
60.47000 394.000
60.48500 409.000
