2.00000 534.000
2.01500 543.000
2.03000 569.000
2.04500 530.000
2.06000 548.000
2.07500 531.000
2.09000 577.000
2.10500 531.000
2.12000 545.000
2.13500 536.000
2.15000 582.000
2.16500 588.000
2.18000 572.000
2.19500 577.000
2.21000 537.000
2.22500 557.000
2.24000 509.000
2.25500 474.000
2.27000 485.000
2.28500 472.000
2.30000 474.000
2.31500 486.000
2.33000 429.000
2.34500 426.000
2.36000 422.000
2.37500 381.000
2.39000 381.000
2.40500 375.000
2.42000 334.000
2.43500 351.000
2.45000 331.000
2.46500 313.000
2.48000 309.000
2.49500 305.000
2.51000 257.000
2.52500 278.000
2.54000 268.000
2.55500 246.000
2.57000 259.000
2.58500 255.000
2.60000 231.000
2.61500 206.000
2.63000 222.000
2.64500 225.000
2.66000 197.000
2.67500 227.000
2.69000 211.000
2.70500 201.000
2.72000 198.000
2.73500 191.000
2.75000 181.000
2.76500 187.000
2.78000 183.000
2.79500 207.000
2.81000 205.000
2.82500 187.000
2.84000 189.000
2.85500 183.000
2.87000 195.000
2.88500 181.000
2.90000 166.000
2.91500 188.000
2.93000 170.000
2.94500 147.000
2.96000 183.000
2.97500 173.000
2.99000 179.000
3.00500 189.000
3.02000 160.000
3.03500 173.000
3.05000 187.000
3.06500 170.000
3.08000 144.000
3.09500 162.000
3.11000 159.000
3.12500 153.000
3.14000 156.000
3.15500 158.000
3.17000 157.000
3.18500 174.000
3.20000 151.000
3.21500 166.000
3.23000 167.000
3.24500 155.000
3.26000 145.000
3.27500 164.000
3.29000 145.000
3.30500 148.000
3.32000 144.000
3.33500 137.000
3.35000 141.000
3.36500 132.000
3.38000 148.000
3.39500 142.000
3.41000 146.000
3.42500 145.000
3.44000 150.000
3.45500 148.000
3.47000 139.000
3.48500 133.000
3.50000 162.000
3.51500 146.000
3.53000 157.000
3.54500 133.000
3.56000 131.000
3.57500 161.000
3.59000 155.000
3.60500 153.000
3.62000 170.000
3.63500 149.000
3.65000 150.000
3.66500 133.000
3.68000 128.000
3.69500 159.000
3.71000 149.000
3.72500 152.000
3.74000 140.000
3.75500 147.000
3.77000 135.000
3.78500 156.000
3.80000 151.000
3.81500 151.000
3.83000 144.000
3.84500 144.000
3.86000 138.000
3.87500 132.000
3.89000 117.000
3.90500 134.000
3.92000 139.000
3.93500 131.000
3.95000 128.000
3.96500 120.000
3.98000 140.000
3.99500 149.000
4.01000 136.000
4.02500 130.000
4.04000 121.000
4.05500 123.000
4.07000 141.000
4.08500 141.000
4.10000 141.000
4.11500 125.000
4.13000 128.000
4.14500 124.000
4.16000 132.000
4.17500 129.000
4.19000 124.000
4.20500 117.000
4.22000 137.000
4.23500 138.000
4.25000 137.000
4.26500 126.000
4.28000 130.000
4.29500 129.000
4.31000 121.000
4.32500 131.000
4.34000 134.000
4.35500 141.000
4.37000 128.000
4.38500 134.000
4.40000 125.000
4.41500 128.000
4.43000 127.000
4.44500 132.000
4.46000 119.000
4.47500 119.000
4.49000 116.000
4.50500 125.000
4.52000 118.000
4.53500 127.000
4.55000 130.000
4.56500 130.000
4.58000 105.000
4.59500 125.000
4.61000 120.000
4.62500 118.000
4.64000 117.000
4.65500 126.000
4.67000 109.000
4.68500 114.000
4.70000 119.000
4.71500 110.000
4.73000 118.000
4.74500 132.000
4.76000 108.000
4.77500 119.000
4.79000 117.000
4.80500 117.000
4.82000 106.000
4.83500 115.000
4.85000 110.000
4.86500 129.000
4.88000 112.000
4.89500 114.000
4.91000 124.000
4.92500 136.000
4.94000 125.000
4.95500 121.000
4.97000 115.000
4.98500 100.000
5.00000 114.000
5.01500 129.000
5.03000 107.000
5.04500 119.000
5.06000 126.000
5.07500 108.000
5.09000 121.000
5.10500 114.000
5.12000 104.000
5.13500 101.000
5.15000 124.000
5.16500 115.000
5.18000 103.000
5.19500 110.000
5.21000 117.000
5.22500 92.000
5.24000 112.000
5.25500 106.000
5.27000 110.000
5.28500 120.000
5.30000 115.000
5.31500 118.000
5.33000 109.000
5.34500 108.000
5.36000 113.000
5.37500 106.000
5.39000 124.000
5.40500 114.000
5.42000 119.000
5.43500 123.000
5.45000 105.000
5.46500 102.000
5.48000 106.000
5.49500 117.000
5.51000 120.000
5.52500 115.000
5.54000 114.000
5.55500 99.000
5.57000 121.000
5.58500 107.000
5.60000 100.000
5.61500 100.000
5.63000 100.000
5.64500 113.000
5.66000 108.000
5.67500 108.000
5.69000 106.000
5.70500 115.000
5.72000 116.000
5.73500 111.000
5.75000 117.000
5.76500 112.000
5.78000 119.000
5.79500 113.000
5.81000 108.000
5.82500 107.000
5.84000 129.000
5.85500 120.000
5.87000 117.000
5.88500 119.000
5.90000 109.000
5.91500 110.000
5.93000 117.000
5.94500 104.000
5.96000 108.000
5.97500 121.000
5.99000 123.000
6.00500 112.000
6.02000 116.000
6.03500 121.000
6.05000 112.000
6.06500 111.000
6.08000 111.000
6.09500 118.000
6.11000 108.000
6.12500 115.000
6.14000 118.000
6.15500 97.000
6.17000 114.000
6.18500 96.000
6.20000 91.000
6.21500 102.000
6.23000 111.000
6.24500 134.000
6.26000 138.000
6.27500 135.000
6.29000 113.000
6.30500 108.000
6.32000 103.000
6.33500 104.000
6.35000 116.000
6.36500 98.000
6.38000 107.000
6.39500 112.000
6.41000 125.000
6.42500 117.000
6.44000 107.000
6.45500 119.000
6.47000 123.000
6.48500 112.000
6.50000 108.000
6.51500 122.000
6.53000 104.000
6.54500 113.000
6.56000 109.000
6.57500 112.000
6.59000 115.000
6.60500 115.000
6.62000 121.000
6.63500 108.000
6.65000 115.000
6.66500 132.000
6.68000 95.000
6.69500 114.000
6.71000 110.000
6.72500 115.000
6.74000 135.000
6.75500 124.000
6.77000 117.000
6.78500 103.000
6.80000 115.000
6.81500 116.000
6.83000 101.000
6.84500 119.000
6.86000 107.000
6.87500 107.000
6.89000 118.000
6.90500 117.000
6.92000 114.000
6.93500 124.000
6.95000 114.000
6.96500 111.000
6.98000 114.000
6.99500 113.000
7.01000 123.000
7.02500 129.000
7.04000 132.000
7.05500 107.000
7.07000 124.000
7.08500 111.000
7.10000 116.000
7.11500 120.000
7.13000 112.000
7.14500 95.000
7.16000 103.000
7.17500 105.000
7.19000 107.000
7.20500 116.000
7.22000 115.000
7.23500 112.000
7.25000 111.000
7.26500 113.000
7.28000 114.000
7.29500 118.000
7.31000 100.000
7.32500 124.000
7.34000 134.000
7.35500 123.000
7.37000 103.000
7.38500 117.000
7.40000 121.000
7.41500 118.000
7.43000 97.000
7.44500 103.000
7.46000 119.000
7.47500 125.000
7.49000 127.000
7.50500 131.000
7.52000 119.000
7.53500 114.000
7.55000 124.000
7.56500 107.000
7.58000 101.000
7.59500 105.000
7.61000 106.000
7.62500 113.000
7.64000 117.000
7.65500 89.000
7.67000 111.000
7.68500 114.000
7.70000 107.000
7.71500 111.000
7.73000 102.000
7.74500 119.000
7.76000 118.000
7.77500 108.000
7.79000 117.000
7.80500 119.000
7.82000 115.000
7.83500 116.000
7.85000 111.000
7.86500 108.000
7.88000 119.000
7.89500 111.000
7.91000 112.000
7.92500 110.000
7.94000 127.000
7.95500 118.000
7.97000 119.000
7.98500 119.000
8.00000 126.000
8.01500 114.000
8.03000 117.000
8.04500 117.000
8.06000 112.000
8.07500 115.000
8.09000 113.000
8.10500 110.000
8.12000 124.000
8.13500 117.000
8.15000 101.000
8.16500 111.000
8.18000 119.000
8.19500 121.000
8.21000 121.000
8.22500 101.000
8.24000 110.000
8.25500 127.000
8.27000 126.000
8.28500 111.000
8.30000 117.000
8.31500 107.000
8.33000 109.000
8.34500 112.000
8.36000 122.000
8.37500 116.000
8.39000 110.000
8.40500 130.000
8.42000 128.000
8.43500 127.000
8.45000 120.000
8.46500 111.000
8.48000 107.000
8.49500 116.000
8.51000 133.000
8.52500 132.000
8.54000 123.000
8.55500 116.000
8.57000 115.000
8.58500 121.000
8.60000 112.000
8.61500 119.000
8.63000 107.000
8.64500 117.000
8.66000 114.000
8.67500 103.000
8.69000 132.000
8.70500 123.000
8.72000 115.000
8.73500 125.000
8.75000 116.000
8.76500 127.000
8.78000 103.000
8.79500 101.000
8.81000 115.000
8.82500 115.000
8.84000 114.000
8.85500 131.000
8.87000 114.000
8.88500 128.000
8.90000 108.000
8.91500 112.000
8.93000 116.000
8.94500 126.000
8.96000 125.000
8.97500 121.000
8.99000 120.000
9.00500 125.000
9.02000 105.000
9.03500 128.000
9.05000 117.000
9.06500 123.000
9.08000 126.000
9.09500 110.000
9.11000 120.000
9.12500 121.000
9.14000 100.000
9.15500 116.000
9.17000 111.000
9.18500 114.000
9.20000 122.000
9.21500 129.000
9.23000 119.000
9.24500 112.000
9.26000 127.000
9.27500 140.000
9.29000 136.000
9.30500 114.000
9.32000 104.000
9.33500 119.000
9.35000 106.000
9.36500 110.000
9.38000 116.000
9.39500 121.000
9.41000 117.000
9.42500 126.000
9.44000 126.000
9.45500 113.000
9.47000 117.000
9.48500 101.000
9.50000 122.000
9.51500 136.000
9.53000 111.000
9.54500 118.000
9.56000 135.000
9.57500 112.000
9.59000 108.000
9.60500 115.000
9.62000 117.000
9.63500 119.000
9.65000 110.000
9.66500 120.000
9.68000 112.000
9.69500 128.000
9.71000 115.000
9.72500 115.000
9.74000 120.000
9.75500 130.000
9.77000 111.000
9.78500 122.000
9.80000 109.000
9.81500 118.000
9.83000 123.000
9.84500 111.000
9.86000 131.000
9.87500 106.000
9.89000 125.000
9.90500 114.000
9.92000 118.000
9.93500 118.000
9.95000 120.000
9.96500 106.000
9.98000 114.000
9.99500 151.000
10.01000 118.000
10.02500 122.000
10.04000 115.000
10.05500 108.000
10.07000 122.000
10.08500 133.000
10.10000 132.000
10.11500 130.000
10.13000 134.000
10.14500 129.000
10.16000 124.000
10.17500 123.000
10.19000 135.000
10.20500 132.000
10.22000 128.000
10.23500 135.000
10.25000 137.000
10.26500 132.000
10.28000 132.000
10.29500 124.000
10.31000 113.000
10.32500 130.000
10.34000 117.000
10.35500 145.000
10.37000 146.000
10.38500 147.000
10.40000 131.000
10.41500 127.000
10.43000 126.000
10.44500 121.000
10.46000 137.000
10.47500 129.000
10.49000 144.000
10.50500 130.000
10.52000 136.000
10.53500 127.000
10.55000 122.000
10.56500 114.000
10.58000 111.000
10.59500 114.000
10.61000 126.000
10.62500 116.000
10.64000 137.000
10.65500 137.000
10.67000 119.000
10.68500 126.000
10.70000 146.000
10.71500 133.000
10.73000 117.000
10.74500 103.000
10.76000 109.000
10.77500 118.000
10.79000 125.000
10.80500 112.000
10.82000 124.000
10.83500 136.000
10.85000 120.000
10.86500 121.000
10.88000 126.000
10.89500 126.000
10.91000 132.000
10.92500 138.000
10.94000 115.000
10.95500 131.000
10.97000 140.000
10.98500 127.000
11.00000 121.000
11.01500 142.000
11.03000 138.000
11.04500 147.000
11.06000 123.000
11.07500 125.000
11.09000 139.000
11.10500 127.000
11.12000 144.000
11.13500 128.000
11.15000 126.000
11.16500 137.000
11.18000 143.000
11.19500 145.000
11.21000 143.000
11.22500 144.000
11.24000 137.000
11.25500 123.000
11.27000 149.000
11.28500 130.000
11.30000 132.000
11.31500 140.000
11.33000 144.000
11.34500 149.000
11.36000 127.000
11.37500 124.000
11.39000 122.000
11.40500 146.000
11.42000 116.000
11.43500 125.000
11.45000 143.000
11.46500 134.000
11.48000 118.000
11.49500 129.000
11.51000 141.000
11.52500 140.000
11.54000 118.000
11.55500 131.000
11.57000 141.000
11.58500 140.000
11.60000 145.000
11.61500 152.000
11.63000 131.000
11.64500 130.000
11.66000 137.000
11.67500 140.000
11.69000 123.000
11.70500 130.000
11.72000 131.000
11.73500 145.000
11.75000 143.000
11.76500 132.000
11.78000 137.000
11.79500 138.000
11.81000 143.000
11.82500 143.000
11.84000 133.000
11.85500 136.000
11.87000 132.000
11.88500 145.000
11.90000 132.000
11.91500 129.000
11.93000 138.000
11.94500 138.000
11.96000 138.000
11.97500 141.000
11.99000 157.000
12.00500 135.000
12.02000 137.000
12.03500 162.000
12.05000 128.000
12.06500 139.000
12.08000 134.000
12.09500 148.000
12.11000 145.000
12.12500 146.000
12.14000 159.000
12.15500 145.000
12.17000 138.000
12.18500 150.000
12.20000 134.000
12.21500 143.000
12.23000 124.000
12.24500 149.000
12.26000 142.000
12.27500 152.000
12.29000 151.000
12.30500 145.000
12.32000 141.000
12.33500 159.000
12.35000 156.000
12.36500 151.000
12.38000 155.000
12.39500 145.000
12.41000 135.000
12.42500 145.000
12.44000 143.000
12.45500 139.000
12.47000 152.000
12.48500 132.000
12.50000 146.000
12.51500 133.000
12.53000 129.000
12.54500 147.000
12.56000 158.000
12.57500 145.000
12.59000 153.000
12.60500 151.000
12.62000 136.000
12.63500 155.000
12.65000 156.000
12.66500 170.000
12.68000 166.000
12.69500 174.000
12.71000 154.000
12.72500 143.000
12.74000 149.000
12.75500 170.000
12.77000 176.000
12.78500 163.000
12.80000 177.000
12.81500 171.000
12.83000 176.000
12.84500 157.000
12.86000 170.000
12.87500 180.000
12.89000 156.000
12.90500 158.000
12.92000 169.000
12.93500 163.000
12.95000 159.000
12.96500 148.000
12.98000 147.000
12.99500 160.000
13.01000 176.000
13.02500 166.000
13.04000 149.000
13.05500 172.000
13.07000 158.000
13.08500 178.000
13.10000 162.000
13.11500 165.000
13.13000 171.000
13.14500 161.000
13.16000 162.000
13.17500 157.000
13.19000 159.000
13.20500 166.000
13.22000 167.000
13.23500 170.000
13.25000 173.000
13.26500 157.000
13.28000 143.000
13.29500 170.000
13.31000 135.000
13.32500 151.000
13.34000 172.000
13.35500 165.000
13.37000 179.000
13.38500 167.000
13.40000 162.000
13.41500 155.000
13.43000 171.000
13.44500 191.000
13.46000 178.000
13.47500 157.000
13.49000 168.000
13.50500 177.000
13.52000 180.000
13.53500 161.000
13.55000 161.000
13.56500 171.000
13.58000 182.000
13.59500 179.000
13.61000 160.000
13.62500 155.000
13.64000 157.000
13.65500 172.000
13.67000 165.000
13.68500 176.000
13.70000 182.000
13.71500 172.000
13.73000 183.000
13.74500 178.000
13.76000 169.000
13.77500 176.000
13.79000 162.000
13.80500 160.000
13.82000 185.000
13.83500 177.000
13.85000 177.000
13.86500 177.000
13.88000 165.000
13.89500 153.000
13.91000 150.000
13.92500 155.000
13.94000 184.000
13.95500 177.000
13.97000 181.000
13.98500 186.000
14.00000 168.000
14.01500 167.000
14.03000 174.000
14.04500 170.000
14.06000 187.000
14.07500 163.000
14.09000 159.000
14.10500 167.000
14.12000 179.000
14.13500 174.000
14.15000 179.000
14.16500 172.000
14.18000 171.000
14.19500 172.000
14.21000 188.000
14.22500 193.000
14.24000 186.000
14.25500 190.000
14.27000 180.000
14.28500 178.000
14.30000 192.000
14.31500 193.000
14.33000 193.000
14.34500 169.000
14.36000 196.000
14.37500 190.000
14.39000 192.000
14.40500 192.000
14.42000 176.000
14.43500 177.000
14.45000 194.000
14.46500 182.000
14.48000 180.000
14.49500 182.000
14.51000 195.000
14.52500 178.000
14.54000 156.000
14.55500 169.000
14.57000 187.000
14.58500 197.000
14.60000 167.000
14.61500 175.000
14.63000 169.000
14.64500 186.000
14.66000 171.000
14.67500 170.000
14.69000 186.000
14.70500 198.000
14.72000 198.000
14.73500 175.000
14.75000 186.000
14.76500 163.000
14.78000 181.000
14.79500 186.000
14.81000 183.000
14.82500 180.000
14.84000 169.000
14.85500 164.000
14.87000 156.000
14.88500 155.000
14.90000 186.000
14.91500 186.000
14.93000 167.000
14.94500 182.000
14.96000 179.000
14.97500 180.000
14.99000 178.000
15.00500 159.000
15.02000 187.000
15.03500 185.000
15.05000 182.000
15.06500 167.000
15.08000 171.000
15.09500 191.000
15.11000 175.000
15.12500 175.000
15.14000 191.000
15.15500 190.000
15.17000 181.000
15.18500 178.000
15.20000 196.000
15.21500 186.000
15.23000 193.000
15.24500 182.000
15.26000 182.000
15.27500 178.000
15.29000 174.000
15.30500 175.000
15.32000 184.000
15.33500 186.000
15.35000 181.000
15.36500 185.000
15.38000 179.000
15.39500 192.000
15.41000 205.000
15.42500 181.000
15.44000 197.000
15.45500 183.000
15.47000 179.000
15.48500 191.000
15.50000 165.000
15.51500 181.000
15.53000 176.000
15.54500 198.000
15.56000 208.000
15.57500 187.000
15.59000 207.000
15.60500 198.000
15.62000 177.000
15.63500 201.000
15.65000 170.000
15.66500 181.000
15.68000 182.000
15.69500 195.000
15.71000 204.000
15.72500 216.000
15.74000 196.000
15.75500 190.000
15.77000 187.000
15.78500 189.000
15.80000 194.000
15.81500 197.000
15.83000 176.000
15.84500 194.000
15.86000 200.000
15.87500 202.000
15.89000 196.000
15.90500 211.000
15.92000 208.000
15.93500 195.000
15.95000 182.000
15.96500 187.000
15.98000 211.000
15.99500 212.000
16.01000 199.000
16.02500 205.000
16.04000 220.000
16.05500 205.000
16.07000 196.000
16.08500 220.000
16.10000 220.000
16.11500 194.000
16.13000 214.000
16.14500 190.000
16.16000 191.000
16.17500 195.000
16.19000 193.000
16.20500 195.000
16.22000 209.000
16.23500 206.000
16.25000 218.000
16.26500 201.000
16.28000 195.000
16.29500 171.000
16.31000 197.000
16.32500 210.000
16.34000 214.000
16.35500 208.000
16.37000 189.000
16.38500 191.000
16.40000 214.000
16.41500 210.000
16.43000 217.000
16.44500 206.000
16.46000 213.000
16.47500 216.000
16.49000 207.000
16.50500 193.000
16.52000 188.000
16.53500 206.000
16.55000 202.000
16.56500 200.000
16.58000 202.000
16.59500 213.000
16.61000 192.000
16.62500 211.000
16.64000 206.000
16.65500 195.000
16.67000 231.000
16.68500 211.000
16.70000 215.000
16.71500 196.000
16.73000 194.000
16.74500 185.000
16.76000 215.000
16.77500 208.000
16.79000 188.000
16.80500 210.000
16.82000 220.000
16.83500 194.000
16.85000 206.000
16.86500 200.000
16.88000 198.000
16.89500 212.000
16.91000 196.000
16.92500 176.000
16.94000 200.000
16.95500 186.000
16.97000 191.000
16.98500 205.000
17.00000 213.000
17.01500 217.000
17.03000 227.000
17.04500 222.000
17.06000 222.000
17.07500 228.000
17.09000 222.000
17.10500 203.000
17.12000 210.000
17.13500 202.000
17.15000 188.000
17.16500 217.000
17.18000 218.000
17.19500 191.000
17.21000 199.000
17.22500 209.000
17.24000 228.000
17.25500 214.000
17.27000 189.000
17.28500 196.000
17.30000 195.000
17.31500 205.000
17.33000 186.000
17.34500 197.000
17.36000 195.000
17.37500 204.000
17.39000 201.000
17.40500 215.000
17.42000 202.000
17.43500 210.000
17.45000 211.000
17.46500 210.000
17.48000 213.000
17.49500 214.000
17.51000 224.000
17.52500 217.000
17.54000 218.000
17.55500 197.000
17.57000 211.000
17.58500 219.000
17.60000 214.000
17.61500 213.000
17.63000 212.000
17.64500 210.000
17.66000 214.000
17.67500 196.000
17.69000 202.000
17.70500 217.000
17.72000 206.000
17.73500 201.000
17.75000 219.000
17.76500 206.000
17.78000 177.000
17.79500 200.000
17.81000 205.000
17.82500 235.000
17.84000 226.000
17.85500 214.000
17.87000 216.000
17.88500 193.000
17.90000 199.000
17.91500 224.000
17.93000 232.000
17.94500 214.000
17.96000 199.000
17.97500 196.000
17.99000 207.000
18.00500 222.000
18.02000 224.000
18.03500 232.000
18.05000 201.000
18.06500 198.000
18.08000 225.000
18.09500 220.000
18.11000 209.000
18.12500 217.000
18.14000 213.000
18.15500 239.000
18.17000 203.000
18.18500 216.000
18.20000 243.000
18.21500 210.000
18.23000 223.000
18.24500 209.000
18.26000 223.000
18.27500 225.000
18.29000 208.000
18.30500 213.000
18.32000 210.000
18.33500 212.000
18.35000 208.000
18.36500 219.000
18.38000 229.000
18.39500 239.000
18.41000 215.000
18.42500 221.000
18.44000 251.000
18.45500 253.000
18.47000 244.000
18.48500 260.000
18.50000 264.000
18.51500 267.000
18.53000 260.000
18.54500 284.000
18.56000 273.000
18.57500 279.000
18.59000 304.000
18.60500 318.000
18.62000 332.000
18.63500 323.000
18.65000 329.000
18.66500 346.000
18.68000 324.000
18.69500 332.000
18.71000 310.000
18.72500 361.000
18.74000 333.000
18.75500 333.000
18.77000 314.000
18.78500 325.000
18.80000 305.000
18.81500 307.000
18.83000 276.000
18.84500 279.000
18.86000 284.000
18.87500 272.000
18.89000 310.000
18.90500 279.000
18.92000 281.000
18.93500 303.000
18.95000 274.000
18.96500 265.000
18.98000 270.000
18.99500 247.000
19.01000 249.000
19.02500 264.000
19.04000 236.000
19.05500 236.000
19.07000 232.000
19.08500 233.000
19.10000 249.000
19.11500 248.000
19.13000 238.000
19.14500 235.000
19.16000 226.000
19.17500 221.000
19.19000 241.000
19.20500 233.000
19.22000 202.000
19.23500 213.000
19.25000 218.000
19.26500 232.000
19.28000 234.000
19.29500 213.000
19.31000 212.000
19.32500 222.000
19.34000 219.000
19.35500 232.000
19.37000 204.000
19.38500 212.000
19.40000 222.000
19.41500 229.000
19.43000 221.000
19.44500 208.000
19.46000 218.000
19.47500 220.000
19.49000 207.000
19.50500 208.000
19.52000 225.000
19.53500 213.000
19.55000 196.000
19.56500 225.000
19.58000 231.000
19.59500 215.000
19.61000 227.000
19.62500 236.000
19.64000 232.000
19.65500 217.000
19.67000 233.000
19.68500 254.000
19.70000 251.000
19.71500 234.000
19.73000 230.000
19.74500 230.000
19.76000 212.000
19.77500 239.000
19.79000 234.000
19.80500 224.000
19.82000 232.000
19.83500 230.000
19.85000 214.000
19.86500 232.000
19.88000 242.000
19.89500 221.000
19.91000 248.000
19.92500 244.000
19.94000 229.000
19.95500 249.000
19.97000 229.000
19.98500 218.000
20.00000 213.000
20.01500 240.000
20.03000 202.000
20.04500 225.000
20.06000 254.000
20.07500 230.000
20.09000 227.000
20.10500 238.000
20.12000 241.000
20.13500 227.000
20.15000 230.000
20.16500 239.000
20.18000 201.000
20.19500 227.000
20.21000 226.000
20.22500 238.000
20.24000 243.000
20.25500 239.000
20.27000 236.000
20.28500 222.000
20.30000 203.000
20.31500 219.000
20.33000 234.000
20.34500 220.000
20.36000 245.000
20.37500 223.000
20.39000 230.000
20.40500 211.000
20.42000 220.000
20.43500 212.000
20.45000 228.000
20.46500 234.000
20.48000 231.000
20.49500 220.000
20.51000 215.000
20.52500 226.000
20.54000 215.000
20.55500 237.000
20.57000 243.000
20.58500 240.000
20.60000 209.000
20.61500 224.000
20.63000 240.000
20.64500 221.000
20.66000 232.000
20.67500 209.000
20.69000 234.000
20.70500 237.000
20.72000 225.000
20.73500 219.000
20.75000 239.000
20.76500 238.000
20.78000 221.000
20.79500 218.000
20.81000 229.000
20.82500 248.000
20.84000 222.000
20.85500 232.000
20.87000 223.000
20.88500 236.000
20.90000 241.000
20.91500 235.000
20.93000 245.000
20.94500 211.000
20.96000 230.000
20.97500 240.000
20.99000 235.000
21.00500 220.000
21.02000 220.000
21.03500 220.000
21.05000 216.000
21.06500 220.000
21.08000 224.000
21.09500 237.000
21.11000 228.000
21.12500 238.000
21.14000 226.000
21.15500 204.000
21.17000 225.000
21.18500 214.000
21.20000 211.000
21.21500 221.000
21.23000 260.000
21.24500 223.000
21.26000 232.000
21.27500 213.000
21.29000 236.000
21.30500 242.000
21.32000 228.000
21.33500 236.000
21.35000 206.000
21.36500 224.000
21.38000 214.000
21.39500 246.000
21.41000 210.000
21.42500 222.000
21.44000 228.000
21.45500 245.000
21.47000 218.000
21.48500 236.000
21.50000 241.000
21.51500 226.000
21.53000 221.000
21.54500 246.000
21.56000 222.000
21.57500 211.000
21.59000 213.000
21.60500 234.000
21.62000 222.000
21.63500 222.000
21.65000 226.000
21.66500 222.000
21.68000 229.000
21.69500 221.000
21.71000 227.000
21.72500 219.000
21.74000 210.000
21.75500 213.000
21.77000 230.000
21.78500 237.000
21.80000 254.000
21.81500 231.000
21.83000 227.000
21.84500 239.000
21.86000 253.000
21.87500 242.000
21.89000 262.000
21.90500 226.000
21.92000 218.000
21.93500 237.000
21.95000 224.000
21.96500 240.000
21.98000 233.000
21.99500 239.000
22.01000 232.000
22.02500 255.000
22.04000 248.000
22.05500 255.000
22.07000 236.000
22.08500 238.000
22.10000 254.000
22.11500 250.000
22.13000 255.000
22.14500 228.000
22.16000 220.000
22.17500 240.000
22.19000 255.000
22.20500 237.000
22.22000 233.000
22.23500 246.000
22.25000 245.000
22.26500 259.000
22.28000 242.000
22.29500 234.000
22.31000 238.000
22.32500 236.000
22.34000 247.000
22.35500 236.000
22.37000 231.000
22.38500 242.000
22.40000 263.000
22.41500 266.000
22.43000 252.000
22.44500 229.000
22.46000 249.000
22.47500 249.000
22.49000 242.000
22.50500 245.000
22.52000 245.000
22.53500 218.000
22.55000 231.000
22.56500 240.000
22.58000 234.000
22.59500 232.000
22.61000 259.000
22.62500 267.000
22.64000 237.000
22.65500 243.000
22.67000 270.000
22.68500 261.000
22.70000 240.000
22.71500 234.000
22.73000 245.000
22.74500 244.000
22.76000 243.000
22.77500 228.000
22.79000 246.000
22.80500 249.000
22.82000 237.000
22.83500 276.000
22.85000 250.000
22.86500 224.000
22.88000 213.000
22.89500 261.000
22.91000 255.000
22.92500 243.000
22.94000 249.000
22.95500 271.000
22.97000 247.000
22.98500 240.000
23.00000 214.000
23.01500 231.000
23.03000 237.000
23.04500 259.000
23.06000 253.000
23.07500 229.000
23.09000 213.000
23.10500 229.000
23.12000 232.000
23.13500 235.000
23.15000 260.000
23.16500 255.000
23.18000 242.000
23.19500 263.000
23.21000 229.000
23.22500 260.000
23.24000 235.000
23.25500 236.000
23.27000 243.000
23.28500 249.000
23.30000 228.000
23.31500 237.000
23.33000 257.000
23.34500 243.000
23.36000 230.000
23.37500 268.000
23.39000 300.000
23.40500 252.000
23.42000 240.000
23.43500 269.000
23.45000 243.000
23.46500 244.000
23.48000 251.000
23.49500 260.000
23.51000 246.000
23.52500 245.000
23.54000 246.000
23.55500 241.000
23.57000 262.000
23.58500 244.000
23.60000 227.000
23.61500 242.000
23.63000 260.000
23.64500 272.000
23.66000 247.000
23.67500 271.000
23.69000 253.000
23.70500 203.000
23.72000 234.000
23.73500 241.000
23.75000 234.000
23.76500 270.000
23.78000 257.000
23.79500 235.000
23.81000 248.000
23.82500 280.000
23.84000 288.000
23.85500 267.000
23.87000 282.000
23.88500 292.000
23.90000 270.000
23.91500 257.000
23.93000 287.000
23.94500 267.000
23.96000 274.000
23.97500 287.000
23.99000 295.000
24.00500 302.000
24.02000 281.000
24.03500 299.000
24.05000 308.000
24.06500 326.000
24.08000 316.000
24.09500 322.000
24.11000 330.000
24.12500 321.000
24.14000 339.000
24.15500 358.000
24.17000 367.000
24.18500 365.000
24.20000 372.000
24.21500 373.000
24.23000 384.000
24.24500 374.000
24.26000 368.000
24.27500 398.000
24.29000 378.000
24.30500 400.000
24.32000 386.000
24.33500 406.000
24.35000 377.000
24.36500 381.000
24.38000 388.000
24.39500 424.000
24.41000 414.000
24.42500 369.000
24.44000 386.000
24.45500 391.000
24.47000 376.000
24.48500 385.000
24.50000 389.000
24.51500 357.000
24.53000 370.000
24.54500 359.000
24.56000 332.000
24.57500 332.000
24.59000 326.000
24.60500 321.000
24.62000 327.000
24.63500 325.000
24.65000 311.000
24.66500 314.000
24.68000 291.000
24.69500 308.000
24.71000 275.000
24.72500 296.000
24.74000 276.000
24.75500 277.000
24.77000 283.000
24.78500 280.000
24.80000 285.000
24.81500 295.000
24.83000 258.000
24.84500 268.000
24.86000 265.000
24.87500 265.000
24.89000 260.000
24.90500 262.000
24.92000 268.000
24.93500 260.000
24.95000 237.000
24.96500 240.000
24.98000 256.000
24.99500 278.000
25.01000 283.000
25.02500 234.000
25.04000 261.000
25.05500 268.000
25.07000 274.000
25.08500 281.000
25.10000 285.000
25.11500 265.000
25.13000 259.000
25.14500 225.000
25.16000 239.000
25.17500 238.000
25.19000 236.000
25.20500 244.000
25.22000 252.000
25.23500 262.000
25.25000 264.000
25.26500 265.000
25.28000 230.000
25.29500 251.000
25.31000 244.000
25.32500 254.000
25.34000 273.000
25.35500 271.000
25.37000 263.000
25.38500 252.000
25.40000 261.000
25.41500 255.000
25.43000 240.000
25.44500 233.000
25.46000 234.000
25.47500 211.000
25.49000 242.000
25.50500 244.000
25.52000 243.000
25.53500 257.000
25.55000 229.000
25.56500 226.000
25.58000 223.000
25.59500 238.000
25.61000 246.000
25.62500 248.000
25.64000 225.000
25.65500 229.000
25.67000 240.000
25.68500 248.000
25.70000 248.000
25.71500 246.000
25.73000 250.000
25.74500 245.000
25.76000 246.000
25.77500 244.000
25.79000 234.000
25.80500 243.000
25.82000 245.000
25.83500 264.000
25.85000 273.000
25.86500 250.000
25.88000 262.000
25.89500 239.000
25.91000 238.000
25.92500 223.000
25.94000 241.000
25.95500 237.000
25.97000 246.000
25.98500 259.000
26.00000 241.000
26.01500 245.000
26.03000 243.000
26.04500 262.000
26.06000 248.000
26.07500 249.000
26.09000 251.000
26.10500 233.000
26.12000 243.000
26.13500 251.000
26.15000 251.000
26.16500 229.000
26.18000 227.000
26.19500 232.000
26.21000 241.000
26.22500 233.000
26.24000 236.000
26.25500 242.000
26.27000 248.000
26.28500 226.000
26.30000 248.000
26.31500 241.000
26.33000 236.000
26.34500 237.000
26.36000 235.000
26.37500 248.000
26.39000 222.000
26.40500 228.000
26.42000 236.000
26.43500 204.000
26.45000 244.000
26.46500 225.000
26.48000 245.000
26.49500 233.000
26.51000 245.000
26.52500 241.000
26.54000 248.000
26.55500 249.000
26.57000 254.000
26.58500 253.000
26.60000 223.000
26.61500 247.000
26.63000 239.000
26.64500 243.000
26.66000 225.000
26.67500 257.000
26.69000 224.000
26.70500 249.000
26.72000 252.000
26.73500 244.000
26.75000 240.000
26.76500 234.000
26.78000 240.000
26.79500 232.000
26.81000 228.000
26.82500 240.000
26.84000 223.000
26.85500 233.000
26.87000 243.000
26.88500 227.000
26.90000 252.000
26.91500 233.000
26.93000 213.000
26.94500 220.000
26.96000 251.000
26.97500 227.000
26.99000 248.000
27.00500 254.000
27.02000 241.000
27.03500 236.000
27.05000 238.000
27.06500 235.000
27.08000 239.000
27.09500 247.000
27.11000 241.000
27.12500 232.000
27.14000 248.000
27.15500 231.000
27.17000 237.000
27.18500 252.000
27.20000 250.000
27.21500 227.000
27.23000 233.000
27.24500 225.000
27.26000 249.000
27.27500 252.000
27.29000 237.000
27.30500 224.000
27.32000 239.000
27.33500 233.000
27.35000 228.000
27.36500 236.000
27.38000 230.000
27.39500 222.000
27.41000 236.000
27.42500 264.000
27.44000 248.000
27.45500 252.000
27.47000 251.000
27.48500 214.000
27.50000 248.000
27.51500 250.000
27.53000 255.000
27.54500 276.000
27.56000 242.000
27.57500 251.000
27.59000 252.000
27.60500 275.000
27.62000 273.000
27.63500 271.000
27.65000 269.000
27.66500 283.000
27.68000 304.000
27.69500 301.000
27.71000 302.000
27.72500 330.000
27.74000 347.000
27.75500 361.000
27.77000 348.000
27.78500 380.000
27.80000 378.000
27.81500 402.000
27.83000 424.000
27.84500 415.000
27.86000 447.000
27.87500 468.000
27.89000 462.000
27.90500 508.000
27.92000 529.000
27.93500 572.000
27.95000 557.000
27.96500 535.000
27.98000 530.000
27.99500 492.000
28.01000 525.000
28.02500 484.000
28.04000 411.000
28.05500 404.000
28.07000 338.000
28.08500 332.000
28.10000 323.000
28.11500 306.000
28.13000 271.000
28.14500 278.000
28.16000 282.000
28.17500 256.000
28.19000 257.000
28.20500 245.000
28.22000 243.000
28.23500 226.000
28.25000 212.000
28.26500 229.000
28.28000 247.000
28.29500 244.000
28.31000 251.000
28.32500 239.000
28.34000 228.000
28.35500 231.000
28.37000 219.000
28.38500 217.000
28.40000 237.000
28.41500 233.000
28.43000 222.000
28.44500 231.000
28.46000 210.000
28.47500 238.000
28.49000 245.000
28.50500 228.000
28.52000 230.000
28.53500 205.000
28.55000 195.000
28.56500 223.000
28.58000 223.000
28.59500 200.000
28.61000 216.000
28.62500 206.000
28.64000 217.000
28.65500 223.000
28.67000 204.000
28.68500 208.000
28.70000 238.000
28.71500 239.000
28.73000 224.000
28.74500 221.000
28.76000 223.000
28.77500 224.000
28.79000 239.000
28.80500 234.000
28.82000 215.000
28.83500 206.000
28.85000 208.000
28.86500 221.000
28.88000 230.000
28.89500 221.000
28.91000 216.000
28.92500 205.000
28.94000 200.000
28.95500 208.000
28.97000 203.000
28.98500 204.000
29.00000 187.000
29.01500 208.000
29.03000 199.000
29.04500 215.000
29.06000 206.000
29.07500 225.000
29.09000 228.000
29.10500 208.000
29.12000 213.000
29.13500 239.000
29.15000 227.000
29.16500 212.000
29.18000 228.000
29.19500 202.000
29.21000 216.000
29.22500 225.000
29.24000 201.000
29.25500 204.000
29.27000 205.000
29.28500 194.000
29.30000 198.000
29.31500 208.000
29.33000 210.000
29.34500 206.000
29.36000 189.000
29.37500 215.000
29.39000 219.000
29.40500 223.000
29.42000 194.000
29.43500 202.000
29.45000 208.000
29.46500 221.000
29.48000 204.000
29.49500 200.000
29.51000 199.000
29.52500 192.000
29.54000 201.000
29.55500 214.000
29.57000 200.000
29.58500 202.000
29.60000 197.000
29.61500 217.000
29.63000 203.000
29.64500 231.000
29.66000 224.000
29.67500 208.000
29.69000 206.000
29.70500 226.000
29.72000 223.000
29.73500 186.000
29.75000 197.000
29.76500 227.000
29.78000 216.000
29.79500 225.000
29.81000 208.000
29.82500 197.000
29.84000 199.000
29.85500 214.000
29.87000 204.000
29.88500 181.000
29.90000 208.000
29.91500 210.000
29.93000 203.000
29.94500 192.000
29.96000 220.000
29.97500 211.000
29.99000 229.000
30.00500 215.000
30.02000 210.000
30.03500 208.000
30.05000 188.000
30.06500 210.000
30.08000 211.000
30.09500 215.000
30.11000 205.000
30.12500 216.000
30.14000 200.000
30.15500 205.000
30.17000 216.000
30.18500 227.000
30.20000 212.000
30.21500 197.000
30.23000 200.000
30.24500 177.000
30.26000 197.000
30.27500 204.000
30.29000 220.000
30.30500 210.000
30.32000 201.000
30.33500 214.000
30.35000 221.000
30.36500 227.000
30.38000 224.000
30.39500 217.000
30.41000 189.000
30.42500 195.000
30.44000 206.000
30.45500 224.000
30.47000 238.000
30.48500 220.000
30.50000 206.000
30.51500 220.000
30.53000 230.000
30.54500 240.000
30.56000 215.000
30.57500 214.000
30.59000 228.000
30.60500 225.000
30.62000 197.000
30.63500 233.000
30.65000 230.000
30.66500 206.000
30.68000 213.000
30.69500 216.000
30.71000 223.000
30.72500 217.000
30.74000 229.000
30.75500 212.000
30.77000 225.000
30.78500 212.000
30.80000 211.000
30.81500 219.000
30.83000 217.000
30.84500 205.000
30.86000 224.000
30.87500 218.000
30.89000 207.000
30.90500 217.000
30.92000 199.000
30.93500 207.000
30.95000 234.000
30.96500 213.000
30.98000 207.000
30.99500 197.000
31.01000 201.000
31.02500 207.000
31.04000 220.000
31.05500 222.000
31.07000 216.000
31.08500 193.000
31.10000 183.000
31.11500 197.000
31.13000 199.000
31.14500 196.000
31.16000 198.000
31.17500 191.000
31.19000 167.000
31.20500 178.000
31.22000 197.000
31.23500 187.000
31.25000 196.000
31.26500 209.000
31.28000 201.000
31.29500 197.000
31.31000 196.000
31.32500 200.000
31.34000 182.000
31.35500 175.000
31.37000 189.000
31.38500 191.000
31.40000 189.000
31.41500 186.000
31.43000 192.000
31.44500 177.000
31.46000 208.000
31.47500 192.000
31.49000 169.000
31.50500 175.000
31.52000 185.000
31.53500 192.000
31.55000 165.000
31.56500 192.000
31.58000 191.000
31.59500 200.000
31.61000 192.000
31.62500 173.000
31.64000 168.000
31.65500 201.000
31.67000 193.000
31.68500 192.000
31.70000 194.000
31.71500 184.000
31.73000 198.000
31.74500 167.000
31.76000 158.000
31.77500 206.000
31.79000 180.000
31.80500 183.000
31.82000 178.000
31.83500 176.000
31.85000 165.000
31.86500 180.000
31.88000 191.000
31.89500 180.000
31.91000 163.000
31.92500 178.000
31.94000 183.000
31.95500 159.000
31.97000 166.000
31.98500 190.000
32.00000 185.000
32.01500 170.000
32.03000 172.000
32.04500 164.000
32.06000 171.000
32.07500 159.000
32.09000 172.000
32.10500 172.000
32.12000 187.000
32.13500 173.000
32.15000 182.000
32.16500 171.000
32.18000 189.000
32.19500 197.000
32.21000 167.000
32.22500 168.000
32.24000 163.000
32.25500 182.000
32.27000 172.000
32.28500 181.000
32.30000 198.000
32.31500 193.000
32.33000 168.000
32.34500 156.000
32.36000 165.000
32.37500 191.000
32.39000 193.000
32.40500 163.000
32.42000 170.000
32.43500 163.000
32.45000 171.000
32.46500 171.000
32.48000 182.000
32.49500 182.000
32.51000 179.000
32.52500 166.000
32.54000 163.000
32.55500 183.000
32.57000 163.000
32.58500 185.000
32.60000 175.000
32.61500 169.000
32.63000 158.000
32.64500 166.000
32.66000 172.000
32.67500 189.000
32.69000 191.000
32.70500 182.000
32.72000 181.000
32.73500 176.000
32.75000 177.000
32.76500 180.000
32.78000 178.000
32.79500 175.000
32.81000 178.000
32.82500 176.000
32.84000 171.000
32.85500 167.000
32.87000 154.000
32.88500 173.000
32.90000 187.000
32.91500 170.000
32.93000 184.000
32.94500 179.000
32.96000 174.000
32.97500 161.000
32.99000 175.000
33.00500 180.000
33.02000 190.000
33.03500 176.000
33.05000 152.000
33.06500 158.000
33.08000 170.000
33.09500 179.000
33.11000 191.000
33.12500 165.000
33.14000 165.000
33.15500 192.000
33.17000 190.000
33.18500 174.000
33.20000 191.000
33.21500 193.000
33.23000 169.000
33.24500 162.000
33.26000 153.000
33.27500 181.000
33.29000 172.000
33.30500 166.000
33.32000 189.000
33.33500 192.000
33.35000 164.000
33.36500 163.000
33.38000 178.000
33.39500 149.000
33.41000 158.000
33.42500 183.000
33.44000 179.000
33.45500 172.000
33.47000 156.000
33.48500 168.000
33.50000 155.000
33.51500 150.000
33.53000 161.000
33.54500 154.000
33.56000 161.000
33.57500 167.000
33.59000 171.000
33.60500 162.000
33.62000 157.000
33.63500 183.000
33.65000 163.000
33.66500 176.000
33.68000 171.000
33.69500 169.000
33.71000 165.000
33.72500 151.000
33.74000 164.000
33.75500 178.000
33.77000 155.000
33.78500 143.000
33.80000 148.000
33.81500 163.000
33.83000 157.000
33.84500 160.000
33.86000 160.000
33.87500 154.000
33.89000 162.000
33.90500 180.000
33.92000 153.000
33.93500 158.000
33.95000 174.000
33.96500 157.000
33.98000 161.000
33.99500 151.000
34.01000 150.000
34.02500 148.000
34.04000 152.000
34.05500 149.000
34.07000 156.000
34.08500 155.000
34.10000 153.000
34.11500 155.000
34.13000 138.000
34.14500 154.000
34.16000 167.000
34.17500 157.000
34.19000 170.000
34.20500 152.000
34.22000 160.000
34.23500 149.000
34.25000 144.000
34.26500 156.000
34.28000 174.000
34.29500 158.000
34.31000 166.000
34.32500 146.000
34.34000 151.000
34.35500 167.000
34.37000 166.000
34.38500 170.000
34.40000 150.000
34.41500 143.000
34.43000 150.000
34.44500 154.000
34.46000 149.000
34.47500 135.000
34.49000 140.000
34.50500 148.000
34.52000 155.000
34.53500 139.000
34.55000 156.000
34.56500 159.000
34.58000 165.000
34.59500 151.000
34.61000 160.000
34.62500 162.000
34.64000 161.000
34.65500 162.000
34.67000 143.000
34.68500 147.000
34.70000 144.000
34.71500 169.000
34.73000 151.000
34.74500 143.000
34.76000 148.000
34.77500 141.000
34.79000 156.000
34.80500 158.000
34.82000 161.000
34.83500 161.000
34.85000 151.000
34.86500 151.000
34.88000 167.000
34.89500 152.000
34.91000 136.000
34.92500 140.000
34.94000 160.000
34.95500 156.000
34.97000 146.000
34.98500 146.000
35.00000 144.000
35.01500 150.000
35.03000 150.000
35.04500 172.000
35.06000 166.000
35.07500 155.000
35.09000 146.000
35.10500 138.000
35.12000 143.000
35.13500 150.000
35.15000 153.000
35.16500 146.000
35.18000 148.000
35.19500 164.000
35.21000 153.000
35.22500 152.000
35.24000 136.000
35.25500 152.000
35.27000 140.000
35.28500 138.000
35.30000 143.000
35.31500 139.000
35.33000 147.000
35.34500 149.000
35.36000 141.000
35.37500 147.000
35.39000 145.000
35.40500 137.000
35.42000 133.000
35.43500 146.000
35.45000 160.000
35.46500 150.000
35.48000 155.000
35.49500 149.000
35.51000 143.000
35.52500 165.000
35.54000 150.000
35.55500 146.000
35.57000 143.000
35.58500 138.000
35.60000 156.000
35.61500 144.000
35.63000 167.000
35.64500 146.000
35.66000 169.000
35.67500 142.000
35.69000 134.000
35.70500 141.000
35.72000 138.000
35.73500 141.000
35.75000 143.000
35.76500 165.000
35.78000 159.000
35.79500 152.000
35.81000 139.000
35.82500 163.000
35.84000 165.000
35.85500 151.000
35.87000 158.000
35.88500 142.000
35.90000 140.000
35.91500 144.000
35.93000 157.000
35.94500 152.000
35.96000 146.000
35.97500 155.000
35.99000 133.000
36.00500 129.000
36.02000 143.000
36.03500 137.000
36.05000 157.000
36.06500 137.000
36.08000 159.000
36.09500 143.000
36.11000 148.000
36.12500 134.000
36.14000 148.000
36.15500 153.000
36.17000 140.000
36.18500 133.000
36.20000 142.000
36.21500 147.000
36.23000 130.000
36.24500 131.000
36.26000 133.000
36.27500 147.000
36.29000 159.000
36.30500 151.000
36.32000 150.000
36.33500 143.000
36.35000 132.000
36.36500 122.000
36.38000 127.000
36.39500 141.000
36.41000 128.000
36.42500 124.000
36.44000 130.000
36.45500 138.000
36.47000 142.000
36.48500 150.000
36.50000 144.000
36.51500 153.000
36.53000 141.000
36.54500 129.000
36.56000 155.000
36.57500 145.000
36.59000 151.000
36.60500 145.000
36.62000 138.000
36.63500 143.000
36.65000 143.000
36.66500 135.000
36.68000 113.000
36.69500 124.000
36.71000 138.000
36.72500 143.000
36.74000 137.000
36.75500 146.000
36.77000 127.000
36.78500 139.000
36.80000 150.000
36.81500 129.000
36.83000 120.000
36.84500 141.000
36.86000 142.000
36.87500 136.000
36.89000 136.000
36.90500 141.000
36.92000 140.000
36.93500 141.000
36.95000 132.000
36.96500 132.000
36.98000 131.000
36.99500 144.000
37.01000 138.000
37.02500 139.000
37.04000 125.000
37.05500 125.000
37.07000 154.000
37.08500 143.000
37.10000 139.000
37.11500 131.000
37.13000 125.000
37.14500 126.000
37.16000 122.000
37.17500 126.000
37.19000 142.000
37.20500 139.000
37.22000 129.000
37.23500 139.000
37.25000 134.000
37.26500 147.000
37.28000 135.000
37.29500 128.000
37.31000 141.000
37.32500 145.000
37.34000 123.000
37.35500 119.000
37.37000 124.000
37.38500 136.000
37.40000 129.000
37.41500 126.000
37.43000 143.000
37.44500 137.000
37.46000 126.000
37.47500 131.000
37.49000 150.000
37.50500 150.000
37.52000 148.000
37.53500 159.000
37.55000 149.000
37.56500 125.000
37.58000 125.000
37.59500 134.000
37.61000 140.000
37.62500 135.000
37.64000 157.000
37.65500 154.000
37.67000 143.000
37.68500 131.000
37.70000 119.000
37.71500 119.000
37.73000 145.000
37.74500 133.000
37.76000 125.000
37.77500 134.000
37.79000 122.000
37.80500 145.000
37.82000 143.000
37.83500 144.000
37.85000 148.000
37.86500 125.000
37.88000 135.000
37.89500 130.000
37.91000 136.000
37.92500 142.000
37.94000 127.000
37.95500 134.000
37.97000 142.000
37.98500 117.000
38.00000 115.000
38.01500 122.000
38.03000 128.000
38.04500 128.000
38.06000 129.000
38.07500 146.000
38.09000 141.000
38.10500 142.000
38.12000 140.000
38.13500 142.000
38.15000 142.000
38.16500 133.000
38.18000 127.000
38.19500 139.000
38.21000 128.000
38.22500 129.000
38.24000 121.000
38.25500 131.000
38.27000 134.000
38.28500 143.000
38.30000 145.000
38.31500 146.000
38.33000 126.000
38.34500 135.000
38.36000 133.000
38.37500 139.000
38.39000 134.000
38.40500 124.000
38.42000 129.000
38.43500 148.000
38.45000 118.000
38.46500 140.000
38.48000 138.000
38.49500 131.000
38.51000 148.000
38.52500 140.000
38.54000 134.000
38.55500 125.000
38.57000 129.000
38.58500 121.000
38.60000 134.000
38.61500 141.000
38.63000 125.000
38.64500 107.000
38.66000 127.000
38.67500 138.000
38.69000 130.000
38.70500 146.000
38.72000 129.000
38.73500 130.000
38.75000 118.000
38.76500 128.000
38.78000 124.000
38.79500 128.000
38.81000 142.000
38.82500 122.000
38.84000 114.000
38.85500 115.000
38.87000 127.000
38.88500 140.000
38.90000 140.000
38.91500 125.000
38.93000 144.000
38.94500 139.000
38.96000 128.000
38.97500 136.000
38.99000 149.000
39.00500 135.000
39.02000 139.000
39.03500 129.000
39.05000 127.000
39.06500 133.000
39.08000 134.000
39.09500 144.000
39.11000 121.000
39.12500 144.000
39.14000 145.000
39.15500 143.000
39.17000 134.000
39.18500 141.000
39.20000 141.000
39.21500 126.000
39.23000 122.000
39.24500 144.000
39.26000 128.000
39.27500 134.000
39.29000 132.000
39.30500 135.000
39.32000 128.000
39.33500 131.000
39.35000 150.000
39.36500 139.000
39.38000 129.000
39.39500 134.000
39.41000 138.000
39.42500 143.000
39.44000 116.000
39.45500 136.000
39.47000 145.000
39.48500 142.000
39.50000 143.000
39.51500 136.000
39.53000 144.000
39.54500 141.000
39.56000 120.000
39.57500 128.000
39.59000 133.000
39.60500 129.000
39.62000 141.000
39.63500 138.000
39.65000 146.000
39.66500 131.000
39.68000 142.000
39.69500 134.000
39.71000 139.000
39.72500 151.000
39.74000 140.000
39.75500 150.000
39.77000 148.000
39.78500 130.000
39.80000 121.000
39.81500 126.000
39.83000 130.000
39.84500 140.000
39.86000 124.000
39.87500 134.000
39.89000 142.000
39.90500 134.000
39.92000 143.000
39.93500 128.000
39.95000 155.000
39.96500 128.000
39.98000 127.000
39.99500 124.000
40.01000 149.000
40.02500 141.000
40.04000 120.000
40.05500 119.000
40.07000 135.000
40.08500 132.000
40.10000 138.000
40.11500 123.000
40.13000 135.000
40.14500 147.000
40.16000 139.000
40.17500 137.000
40.19000 131.000
40.20500 127.000
40.22000 122.000
40.23500 121.000
40.25000 138.000
40.26500 136.000
40.28000 126.000
40.29500 126.000
40.31000 119.000
40.32500 127.000
40.34000 129.000
40.35500 128.000
40.37000 126.000
40.38500 126.000
40.40000 128.000
40.41500 123.000
40.43000 128.000
40.44500 137.000
40.46000 151.000
40.47500 145.000
40.49000 142.000
40.50500 140.000
40.52000 141.000
40.53500 150.000
40.55000 122.000
40.56500 139.000
40.58000 141.000
40.59500 131.000
40.61000 148.000
40.62500 136.000
40.64000 124.000
40.65500 127.000
40.67000 120.000
40.68500 141.000
40.70000 138.000
40.71500 131.000
40.73000 134.000
40.74500 137.000
40.76000 132.000
40.77500 130.000
40.79000 119.000
40.80500 129.000
40.82000 145.000
40.83500 129.000
40.85000 133.000
40.86500 122.000
40.88000 128.000
40.89500 130.000
40.91000 129.000
40.92500 129.000
40.94000 143.000
40.95500 153.000
40.97000 149.000
40.98500 146.000
41.00000 135.000
41.01500 127.000
41.03000 145.000
41.04500 142.000
41.06000 133.000
41.07500 129.000
41.09000 141.000
41.10500 118.000
41.12000 127.000
41.13500 139.000
41.15000 126.000
41.16500 135.000
41.18000 150.000
41.19500 150.000
41.21000 151.000
41.22500 159.000
41.24000 154.000
41.25500 132.000
41.27000 129.000
41.28500 136.000
41.30000 128.000
41.31500 131.000
41.33000 129.000
41.34500 135.000
41.36000 131.000
41.37500 132.000
41.39000 127.000
41.40500 141.000
41.42000 151.000
41.43500 139.000
41.45000 124.000
41.46500 132.000
41.48000 134.000
41.49500 137.000
41.51000 145.000
41.52500 128.000
41.54000 123.000
41.55500 137.000
41.57000 149.000
41.58500 114.000
41.60000 139.000
41.61500 141.000
41.63000 156.000
41.64500 145.000
41.66000 140.000
41.67500 141.000
41.69000 143.000
41.70500 136.000
41.72000 132.000
41.73500 133.000
41.75000 156.000
41.76500 127.000
41.78000 132.000
41.79500 140.000
41.81000 132.000
41.82500 139.000
41.84000 139.000
41.85500 128.000
41.87000 145.000
41.88500 137.000
41.90000 135.000
41.91500 134.000
41.93000 136.000
41.94500 147.000
41.96000 141.000
41.97500 128.000
41.99000 134.000
42.00500 130.000
42.02000 134.000
42.03500 136.000
42.05000 136.000
42.06500 151.000
42.08000 142.000
42.09500 146.000
42.11000 151.000
42.12500 142.000
42.14000 138.000
42.15500 136.000
42.17000 142.000
42.18500 136.000
42.20000 134.000
42.21500 129.000
42.23000 135.000
42.24500 141.000
42.26000 127.000
42.27500 163.000
42.29000 153.000
42.30500 135.000
42.32000 130.000
42.33500 129.000
42.35000 127.000
42.36500 137.000
42.38000 144.000
42.39500 134.000
42.41000 144.000
42.42500 141.000
42.44000 137.000
42.45500 140.000
42.47000 139.000
42.48500 152.000
42.50000 141.000
42.51500 138.000
42.53000 131.000
42.54500 136.000
42.56000 134.000
42.57500 117.000
42.59000 131.000
42.60500 134.000
42.62000 146.000
42.63500 163.000
42.65000 133.000
42.66500 137.000
42.68000 143.000
42.69500 124.000
42.71000 131.000
42.72500 137.000
42.74000 120.000
42.75500 133.000
42.77000 144.000
42.78500 141.000
42.80000 131.000
42.81500 136.000
42.83000 135.000
42.84500 132.000
42.86000 147.000
42.87500 142.000
42.89000 154.000
42.90500 151.000
42.92000 138.000
42.93500 136.000
42.95000 142.000
42.96500 135.000
42.98000 140.000
42.99500 133.000
43.01000 147.000
43.02500 136.000
43.04000 135.000
43.05500 127.000
43.07000 135.000
43.08500 137.000
43.10000 147.000
43.11500 119.000
43.13000 128.000
43.14500 124.000
43.16000 141.000
43.17500 146.000
43.19000 143.000
43.20500 124.000
43.22000 144.000
43.23500 151.000
43.25000 150.000
43.26500 126.000
43.28000 140.000
43.29500 148.000
43.31000 134.000
43.32500 118.000
43.34000 142.000
43.35500 141.000
43.37000 151.000
43.38500 155.000
43.40000 153.000
43.41500 142.000
43.43000 155.000
43.44500 145.000
43.46000 141.000
43.47500 135.000
43.49000 158.000
43.50500 153.000
43.52000 139.000
43.53500 143.000
43.55000 142.000
43.56500 140.000
43.58000 143.000
43.59500 147.000
43.61000 128.000
43.62500 144.000
43.64000 149.000
43.65500 143.000
43.67000 133.000
43.68500 136.000
43.70000 145.000
43.71500 141.000
43.73000 136.000
43.74500 137.000
43.76000 132.000
43.77500 140.000
43.79000 147.000
43.80500 154.000
43.82000 142.000
43.83500 148.000
43.85000 138.000
43.86500 131.000
43.88000 134.000
43.89500 133.000
43.91000 141.000
43.92500 135.000
43.94000 127.000
43.95500 130.000
43.97000 145.000
43.98500 113.000
44.00000 137.000
44.01500 157.000
44.03000 153.000
44.04500 151.000
44.06000 138.000
44.07500 120.000
44.09000 124.000
44.10500 137.000
44.12000 140.000
44.13500 152.000
44.15000 148.000
44.16500 144.000
44.18000 143.000
44.19500 132.000
44.21000 145.000
44.22500 145.000
44.24000 137.000
44.25500 147.000
44.27000 148.000
44.28500 114.000
44.30000 123.000
44.31500 135.000
44.33000 129.000
44.34500 135.000
44.36000 152.000
44.37500 138.000
44.39000 132.000
44.40500 135.000
44.42000 129.000
44.43500 134.000
44.45000 142.000
44.46500 129.000
44.48000 120.000
44.49500 142.000
44.51000 146.000
44.52500 129.000
44.54000 139.000
44.55500 148.000
44.57000 165.000
44.58500 148.000
44.60000 129.000
44.61500 125.000
44.63000 134.000
44.64500 142.000
44.66000 146.000
44.67500 124.000
44.69000 130.000
44.70500 145.000
44.72000 123.000
44.73500 140.000
44.75000 165.000
44.76500 134.000
44.78000 126.000
44.79500 139.000
44.81000 143.000
44.82500 146.000
44.84000 147.000
44.85500 143.000
44.87000 138.000
44.88500 152.000
44.90000 144.000
44.91500 134.000
44.93000 147.000
44.94500 135.000
44.96000 136.000
44.97500 124.000
44.99000 126.000
45.00500 150.000
45.02000 153.000
45.03500 152.000
45.05000 117.000
45.06500 130.000
45.08000 142.000
45.09500 147.000
45.11000 140.000
45.12500 130.000
45.14000 118.000
45.15500 134.000
45.17000 122.000
45.18500 130.000
45.20000 137.000
45.21500 142.000
45.23000 124.000
45.24500 148.000
45.26000 141.000
45.27500 133.000
45.29000 141.000
45.30500 141.000
45.32000 147.000
45.33500 140.000
45.35000 137.000
45.36500 119.000
45.38000 140.000
45.39500 143.000
45.41000 121.000
45.42500 136.000
45.44000 132.000
45.45500 144.000
45.47000 129.000
45.48500 129.000
45.50000 108.000
45.51500 101.000
45.53000 149.000
45.54500 131.000
45.56000 135.000
45.57500 114.000
45.59000 134.000
45.60500 134.000
45.62000 140.000
45.63500 126.000
45.65000 139.000
45.66500 132.000
45.68000 139.000
45.69500 132.000
45.71000 117.000
45.72500 145.000
45.74000 143.000
45.75500 128.000
45.77000 145.000
45.78500 140.000
45.80000 128.000
45.81500 132.000
45.83000 127.000
45.84500 116.000
45.86000 117.000
45.87500 119.000
45.89000 132.000
45.90500 127.000
45.92000 148.000
45.93500 144.000
45.95000 136.000
45.96500 149.000
45.98000 143.000
45.99500 144.000
46.01000 154.000
46.02500 136.000
46.04000 124.000
46.05500 141.000
46.07000 146.000
46.08500 135.000
46.10000 139.000
46.11500 124.000
46.13000 136.000
46.14500 144.000
46.16000 129.000
46.17500 129.000
46.19000 138.000
46.20500 154.000
46.22000 140.000
46.23500 126.000
46.25000 151.000
46.26500 138.000
46.28000 145.000
46.29500 136.000
46.31000 131.000
46.32500 149.000
46.34000 148.000
46.35500 114.000
46.37000 134.000
46.38500 129.000
46.40000 138.000
46.41500 136.000
46.43000 115.000
46.44500 114.000
46.46000 120.000
46.47500 129.000
46.49000 111.000
46.50500 142.000
46.52000 134.000
46.53500 145.000
46.55000 141.000
46.56500 143.000
46.58000 124.000
46.59500 130.000
46.61000 132.000
46.62500 151.000
46.64000 143.000
46.65500 142.000
46.67000 120.000
46.68500 140.000
46.70000 140.000
46.71500 151.000
46.73000 126.000
46.74500 129.000
46.76000 138.000
46.77500 120.000
46.79000 138.000
46.80500 146.000
46.82000 128.000
46.83500 134.000
46.85000 135.000
46.86500 125.000
46.88000 125.000
46.89500 109.000
46.91000 138.000
46.92500 132.000
46.94000 124.000
46.95500 117.000
46.97000 122.000
46.98500 134.000
47.00000 133.000
47.01500 133.000
47.03000 131.000
47.04500 126.000
47.06000 126.000
47.07500 149.000
47.09000 128.000
47.10500 123.000
47.12000 135.000
47.13500 132.000
47.15000 136.000
47.16500 127.000
47.18000 119.000
47.19500 133.000
47.21000 124.000
47.22500 112.000
47.24000 126.000
47.25500 119.000
47.27000 119.000
47.28500 123.000
47.30000 120.000
47.31500 134.000
47.33000 120.000
47.34500 125.000
47.36000 126.000
47.37500 121.000
47.39000 127.000
47.40500 138.000
47.42000 131.000
47.43500 131.000
47.45000 124.000
47.46500 136.000
47.48000 122.000
47.49500 126.000
47.51000 124.000
47.52500 114.000
47.54000 120.000
47.55500 122.000
47.57000 128.000
47.58500 115.000
47.60000 127.000
47.61500 144.000
47.63000 118.000
47.64500 118.000
47.66000 127.000
47.67500 124.000
47.69000 126.000
47.70500 108.000
47.72000 113.000
47.73500 121.000
47.75000 134.000
47.76500 106.000
47.78000 114.000
47.79500 143.000
47.81000 134.000
47.82500 123.000
47.84000 118.000
47.85500 128.000
47.87000 135.000
47.88500 123.000
47.90000 124.000
47.91500 138.000
47.93000 142.000
47.94500 137.000
47.96000 142.000
47.97500 118.000
47.99000 132.000
48.00500 115.000
48.02000 128.000
48.03500 139.000
48.05000 133.000
48.06500 148.000
48.08000 127.000
48.09500 127.000
48.11000 128.000
48.12500 117.000
48.14000 118.000
48.15500 120.000
48.17000 123.000
48.18500 123.000
48.20000 114.000
48.21500 122.000
48.23000 126.000
48.24500 118.000
48.26000 134.000
48.27500 117.000
48.29000 120.000
48.30500 109.000
48.32000 136.000
48.33500 127.000
48.35000 137.000
48.36500 129.000
48.38000 113.000
48.39500 118.000
48.41000 131.000
48.42500 132.000
48.44000 121.000
48.45500 128.000
48.47000 119.000
48.48500 125.000
48.50000 109.000
48.51500 121.000
48.53000 132.000
48.54500 122.000
48.56000 116.000
48.57500 119.000
48.59000 132.000
48.60500 131.000
48.62000 114.000
48.63500 119.000
48.65000 116.000
48.66500 127.000
48.68000 120.000
48.69500 133.000
48.71000 140.000
48.72500 146.000
48.74000 136.000
48.75500 137.000
48.77000 120.000
48.78500 124.000
48.80000 136.000
48.81500 133.000
48.83000 131.000
48.84500 125.000
48.86000 134.000
48.87500 144.000
48.89000 141.000
48.90500 140.000
48.92000 134.000
48.93500 119.000
48.95000 123.000
48.96500 113.000
48.98000 124.000
48.99500 124.000
49.01000 115.000
49.02500 119.000
49.04000 131.000
49.05500 121.000
49.07000 138.000
49.08500 131.000
49.10000 117.000
49.11500 120.000
49.13000 128.000
49.14500 112.000
49.16000 120.000
49.17500 119.000
49.19000 122.000
49.20500 124.000
49.22000 125.000
49.23500 117.000
49.25000 116.000
49.26500 128.000
49.28000 140.000
49.29500 134.000
49.31000 140.000
49.32500 132.000
49.34000 132.000
49.35500 130.000
49.37000 118.000
49.38500 116.000
49.40000 120.000
49.41500 127.000
49.43000 122.000
49.44500 105.000
49.46000 124.000
49.47500 124.000
49.49000 119.000
49.50500 120.000
49.52000 133.000
49.53500 114.000
49.55000 122.000
49.56500 113.000
49.58000 122.000
49.59500 152.000
49.61000 138.000
49.62500 119.000
49.64000 122.000
49.65500 120.000
49.67000 122.000
49.68500 129.000
49.70000 128.000
49.71500 129.000
49.73000 124.000
49.74500 125.000
49.76000 114.000
49.77500 114.000
49.79000 118.000
49.80500 127.000
49.82000 114.000
49.83500 128.000
49.85000 105.000
49.86500 109.000
49.88000 128.000
49.89500 130.000
49.91000 115.000
49.92500 127.000
49.94000 130.000
49.95500 129.000
49.97000 128.000
49.98500 133.000
50.00000 118.000
50.01500 113.000
50.03000 112.000
50.04500 110.000
50.06000 129.000
50.07500 143.000
50.09000 121.000
50.10500 123.000
50.12000 127.000
50.13500 124.000
50.15000 113.000
50.16500 116.000
50.18000 118.000
50.19500 113.000
50.21000 117.000
50.22500 110.000
50.24000 114.000
50.25500 120.000
50.27000 120.000
50.28500 122.000
50.30000 122.000
50.31500 129.000
50.33000 126.000
50.34500 117.000
50.36000 126.000
50.37500 134.000
50.39000 119.000
50.40500 121.000
50.42000 119.000
50.43500 111.000
50.45000 112.000
50.46500 132.000
50.48000 126.000
50.49500 126.000
50.51000 131.000
50.52500 133.000
50.54000 131.000
50.55500 121.000
50.57000 128.000
50.58500 138.000
50.60000 126.000
50.61500 127.000
50.63000 115.000
50.64500 116.000
50.66000 118.000
50.67500 114.000
50.69000 125.000
50.70500 112.000
50.72000 111.000
50.73500 116.000
50.75000 127.000
50.76500 125.000
50.78000 126.000
50.79500 143.000
50.81000 129.000
50.82500 116.000
50.84000 125.000
50.85500 125.000
50.87000 131.000
50.88500 120.000
50.90000 120.000
50.91500 122.000
50.93000 132.000
50.94500 119.000
50.96000 122.000
50.97500 114.000
50.99000 111.000
51.00500 119.000
51.02000 120.000
51.03500 126.000
51.05000 118.000
51.06500 133.000
51.08000 135.000
51.09500 140.000
51.11000 119.000
51.12500 121.000
51.14000 134.000
51.15500 123.000
51.17000 121.000
51.18500 100.000
51.20000 105.000
51.21500 134.000
51.23000 123.000
51.24500 107.000
51.26000 126.000
51.27500 122.000
51.29000 113.000
51.30500 120.000
51.32000 109.000
51.33500 118.000
51.35000 123.000
51.36500 110.000
51.38000 116.000
51.39500 116.000
51.41000 124.000
51.42500 113.000
51.44000 109.000
51.45500 103.000
51.47000 124.000
51.48500 114.000
51.50000 123.000
51.51500 114.000
51.53000 111.000
51.54500 111.000
51.56000 122.000
51.57500 125.000
51.59000 124.000
51.60500 118.000
51.62000 118.000
51.63500 126.000
51.65000 119.000
51.66500 125.000
51.68000 140.000
51.69500 144.000
51.71000 123.000
51.72500 122.000
51.74000 122.000
51.75500 124.000
51.77000 117.000
51.78500 106.000
51.80000 106.000
51.81500 108.000
51.83000 125.000
51.84500 117.000
51.86000 107.000
51.87500 102.000
51.89000 108.000
51.90500 111.000
51.92000 116.000
51.93500 131.000
51.95000 117.000
51.96500 106.000
51.98000 117.000
51.99500 123.000
52.01000 122.000
52.02500 135.000
52.04000 112.000
52.05500 114.000
52.07000 111.000
52.08500 109.000
52.10000 122.000
52.11500 110.000
52.13000 117.000
52.14500 131.000
52.16000 113.000
52.17500 107.000
52.19000 118.000
52.20500 127.000
52.22000 124.000
52.23500 115.000
52.25000 129.000
52.26500 114.000
52.28000 112.000
52.29500 134.000
52.31000 122.000
52.32500 112.000
52.34000 135.000
52.35500 115.000
52.37000 100.000
52.38500 115.000
52.40000 111.000
52.41500 126.000
52.43000 104.000
52.44500 110.000
52.46000 117.000
52.47500 109.000
52.49000 107.000
52.50500 107.000
52.52000 115.000
52.53500 135.000
52.55000 113.000
52.56500 100.000
52.58000 134.000
52.59500 117.000
52.61000 108.000
52.62500 120.000
52.64000 120.000
52.65500 113.000
52.67000 137.000
52.68500 128.000
52.70000 116.000
52.71500 113.000
52.73000 117.000
52.74500 116.000
52.76000 103.000
52.77500 110.000
52.79000 116.000
52.80500 122.000
52.82000 120.000
52.83500 116.000
52.85000 140.000
52.86500 116.000
52.88000 108.000
52.89500 110.000
52.91000 108.000
52.92500 101.000
52.94000 106.000
52.95500 114.000
52.97000 105.000
52.98500 105.000
53.00000 120.000
53.01500 148.000
53.03000 122.000
53.04500 123.000
53.06000 140.000
53.07500 123.000
53.09000 125.000
53.10500 114.000
53.12000 107.000
53.13500 125.000
53.15000 118.000
53.16500 115.000
53.18000 101.000
53.19500 117.000
53.21000 110.000
53.22500 119.000
53.24000 105.000
53.25500 117.000
53.27000 117.000
53.28500 116.000
53.30000 108.000
53.31500 120.000
53.33000 117.000
53.34500 130.000
53.36000 129.000
53.37500 111.000
53.39000 118.000
53.40500 130.000
53.42000 116.000
53.43500 115.000
53.45000 113.000
53.46500 124.000
53.48000 103.000
53.49500 112.000
53.51000 120.000
53.52500 119.000
53.54000 125.000
53.55500 112.000
53.57000 107.000
53.58500 115.000
53.60000 109.000
53.61500 121.000
53.63000 110.000
53.64500 106.000
53.66000 118.000
53.67500 125.000
53.69000 107.000
53.70500 113.000
53.72000 135.000
53.73500 117.000
53.75000 113.000
53.76500 105.000
53.78000 100.000
53.79500 117.000
53.81000 110.000
53.82500 109.000
53.84000 109.000
53.85500 112.000
53.87000 107.000
53.88500 110.000
53.90000 110.000
53.91500 113.000
53.93000 117.000
53.94500 134.000
53.96000 131.000
53.97500 119.000
53.99000 118.000
54.00500 119.000
54.02000 111.000
54.03500 109.000
54.05000 110.000
54.06500 100.000
54.08000 115.000
54.09500 115.000
54.11000 112.000
54.12500 114.000
54.14000 122.000
54.15500 121.000
54.17000 115.000
54.18500 111.000
54.20000 108.000
54.21500 118.000
54.23000 105.000
54.24500 117.000
54.26000 102.000
54.27500 94.000
54.29000 114.000
54.30500 127.000
54.32000 108.000
54.33500 107.000
54.35000 103.000
54.36500 110.000
54.38000 116.000
54.39500 107.000
54.41000 104.000
54.42500 118.000
54.44000 122.000
54.45500 111.000
54.47000 120.000
54.48500 118.000
54.50000 112.000
54.51500 115.000
54.53000 127.000
54.54500 124.000
54.56000 117.000
54.57500 122.000
54.59000 120.000
54.60500 104.000
54.62000 120.000
54.63500 106.000
54.65000 104.000
54.66500 120.000
54.68000 117.000
54.69500 112.000
54.71000 111.000
54.72500 127.000
54.74000 123.000
54.75500 116.000
54.77000 115.000
54.78500 134.000
54.80000 119.000
54.81500 114.000
54.83000 109.000
54.84500 109.000
54.86000 123.000
54.87500 115.000
54.89000 117.000
54.90500 112.000
54.92000 126.000
54.93500 109.000
54.95000 104.000
54.96500 112.000
54.98000 99.000
54.99500 112.000
55.01000 121.000
55.02500 107.000
55.04000 103.000
55.05500 109.000
55.07000 113.000
55.08500 108.000
55.10000 99.000
55.11500 110.000
55.13000 118.000
55.14500 105.000
55.16000 116.000
55.17500 116.000
55.19000 117.000
55.20500 109.000
55.22000 122.000
55.23500 111.000
55.25000 97.000
55.26500 112.000
55.28000 120.000
55.29500 106.000
55.31000 121.000
55.32500 110.000
55.34000 119.000
55.35500 133.000
55.37000 108.000
55.38500 106.000
55.40000 106.000
55.41500 127.000
55.43000 118.000
55.44500 116.000
55.46000 109.000
55.47500 116.000
55.49000 117.000
55.50500 111.000
55.52000 103.000
55.53500 114.000
55.55000 106.000
55.56500 109.000
55.58000 122.000
55.59500 115.000
55.61000 115.000
55.62500 115.000
55.64000 113.000
55.65500 110.000
55.67000 103.000
55.68500 102.000
55.70000 110.000
55.71500 118.000
55.73000 108.000
55.74500 108.000
55.76000 104.000
55.77500 92.000
55.79000 109.000
55.80500 108.000
55.82000 108.000
55.83500 102.000
55.85000 106.000
55.86500 102.000
55.88000 103.000
55.89500 124.000
55.91000 96.000
55.92500 97.000
55.94000 95.000
55.95500 107.000
55.97000 108.000
55.98500 111.000
56.00000 107.000
56.01500 110.000
56.03000 108.000
56.04500 122.000
56.06000 108.000
56.07500 104.000
56.09000 107.000
56.10500 104.000
56.12000 92.000
56.13500 113.000
56.15000 113.000
56.16500 110.000
56.18000 123.000
56.19500 101.000
56.21000 108.000
56.22500 124.000
56.24000 113.000
56.25500 100.000
56.27000 106.000
56.28500 121.000
56.30000 124.000
56.31500 109.000
56.33000 111.000
56.34500 111.000
56.36000 101.000
56.37500 104.000
56.39000 111.000
56.40500 101.000
56.42000 112.000
56.43500 108.000
56.45000 108.000
56.46500 116.000
56.48000 114.000
56.49500 110.000
56.51000 102.000
56.52500 115.000
56.54000 109.000
56.55500 107.000
56.57000 101.000
56.58500 95.000
56.60000 116.000
56.61500 100.000
56.63000 122.000
56.64500 113.000
56.66000 108.000
56.67500 95.000
56.69000 99.000
56.70500 102.000
56.72000 109.000
56.73500 92.000
56.75000 90.000
56.76500 96.000
56.78000 111.000
56.79500 109.000
56.81000 108.000
56.82500 97.000
56.84000 117.000
56.85500 103.000
56.87000 107.000
56.88500 121.000
56.90000 110.000
56.91500 110.000
56.93000 115.000
56.94500 115.000
56.96000 116.000
56.97500 116.000
56.99000 93.000
57.00500 102.000
57.02000 109.000
57.03500 97.000
57.05000 113.000
57.06500 105.000
57.08000 104.000
57.09500 108.000
57.11000 110.000
57.12500 101.000
57.14000 94.000
57.15500 99.000
57.17000 106.000
57.18500 98.000
57.20000 111.000
57.21500 107.000
57.23000 102.000
57.24500 127.000
57.26000 103.000
57.27500 114.000
57.29000 117.000
57.30500 105.000
57.32000 120.000
57.33500 106.000
57.35000 113.000
57.36500 108.000
57.38000 114.000
57.39500 118.000
57.41000 109.000
57.42500 96.000
57.44000 116.000
57.45500 107.000
57.47000 108.000
57.48500 108.000
57.50000 107.000
57.51500 101.000
57.53000 119.000
57.54500 106.000
57.56000 93.000
57.57500 98.000
57.59000 123.000
57.60500 119.000
57.62000 115.000
57.63500 109.000
57.65000 108.000
57.66500 121.000
57.68000 115.000
57.69500 116.000
57.71000 116.000
57.72500 99.000
57.74000 101.000
57.75500 116.000
57.77000 127.000
57.78500 129.000
57.80000 105.000
57.81500 102.000
57.83000 100.000
57.84500 93.000
57.86000 103.000
57.87500 97.000
57.89000 102.000
57.90500 109.000
57.92000 115.000
57.93500 119.000
57.95000 125.000
57.96500 123.000
57.98000 122.000
57.99500 114.000
58.01000 105.000
58.02500 103.000
58.04000 98.000
58.05500 106.000
58.07000 105.000
58.08500 115.000
58.10000 111.000
58.11500 104.000
58.13000 100.000
58.14500 107.000
58.16000 111.000
58.17500 101.000
58.19000 96.000
58.20500 111.000
58.22000 111.000
58.23500 109.000
58.25000 104.000
58.26500 107.000
58.28000 97.000
58.29500 94.000
58.31000 87.000
58.32500 104.000
58.34000 106.000
58.35500 112.000
58.37000 109.000
58.38500 92.000
58.40000 92.000
58.41500 108.000
58.43000 116.000
58.44500 106.000
58.46000 89.000
58.47500 111.000
58.49000 114.000
58.50500 123.000
58.52000 100.000
58.53500 102.000
58.55000 96.000
58.56500 106.000
58.58000 103.000
58.59500 116.000
58.61000 105.000
58.62500 94.000
58.64000 88.000
58.65500 80.000
58.67000 102.000
58.68500 98.000
58.70000 112.000
58.71500 111.000
58.73000 107.000
58.74500 106.000
58.76000 104.000
58.77500 96.000
58.79000 97.000
58.80500 97.000
58.82000 109.000
58.83500 91.000
58.85000 95.000
58.86500 91.000
58.88000 116.000
58.89500 107.000
58.91000 96.000
58.92500 90.000
58.94000 94.000
58.95500 102.000
58.97000 100.000
58.98500 83.000
59.00000 95.000
59.01500 101.000
59.03000 98.000
59.04500 103.000
59.06000 102.000
59.07500 100.000
59.09000 104.000
59.10500 97.000
59.12000 96.000
59.13500 112.000
59.15000 110.000
59.16500 111.000
59.18000 97.000
59.19500 103.000
59.21000 100.000
59.22500 106.000
59.24000 95.000
59.25500 95.000
59.27000 107.000
59.28500 87.000
59.30000 100.000
59.31500 106.000
59.33000 89.000
59.34500 101.000
59.36000 111.000
59.37500 104.000
59.39000 98.000
59.40500 87.000
59.42000 90.000
59.43500 85.000
59.45000 106.000
59.46500 107.000
59.48000 90.000
59.49500 89.000
59.51000 107.000
59.52500 96.000
59.54000 98.000
59.55500 96.000
59.57000 96.000
59.58500 110.000
59.60000 110.000
59.61500 100.000
59.63000 101.000
59.64500 104.000
59.66000 117.000
59.67500 122.000
59.69000 100.000
59.70500 98.000
59.72000 99.000
59.73500 103.000
59.75000 105.000
59.76500 100.000
59.78000 94.000
59.79500 90.000
59.81000 86.000
59.82500 98.000
59.84000 86.000
59.85500 95.000
59.87000 111.000
59.88500 111.000
59.90000 99.000
59.91500 103.000
59.93000 107.000
59.94500 103.000
59.96000 93.000
59.97500 104.000
59.99000 116.000
60.00500 90.000
60.02000 95.000
60.03500 114.000
60.05000 103.000
60.06500 90.000
60.08000 105.000
60.09500 107.000
60.11000 97.000
60.12500 96.000
60.14000 109.000
60.15500 107.000
60.17000 91.000
60.18500 81.000
60.20000 103.000
60.21500 90.000
60.23000 105.000
60.24500 89.000
60.26000 97.000
60.27500 98.000
60.29000 91.000
60.30500 85.000
60.32000 92.000
60.33500 99.000
60.35000 103.000
60.36500 103.000
60.38000 94.000
60.39500 99.000
60.41000 103.000
60.42500 95.000
60.44000 92.000
60.45500 96.000
60.47000 92.000
60.48500 91.000
60.50000 79.000
60.51500 88.000
60.53000 96.000
60.54500 105.000
60.56000 103.000
60.57500 92.000
60.59000 111.000
60.60500 101.000
60.62000 102.000
60.63500 109.000
60.65000 103.000
60.66500 90.000
60.68000 92.000
60.69500 98.000
60.71000 95.000
60.72500 95.000
60.74000 89.000
60.75500 105.000
60.77000 90.000
60.78500 103.000
60.80000 97.000
60.81500 102.000
60.83000 95.000
60.84500 102.000
60.86000 102.000
60.87500 97.000
60.89000 103.000
60.90500 105.000
60.92000 103.000
60.93500 81.000
60.95000 103.000
60.96500 97.000
60.98000 94.000
60.99500 98.000
61.01000 87.000
61.02500 83.000
61.04000 103.000
61.05500 88.000
61.07000 91.000
61.08500 99.000
61.10000 103.000
61.11500 97.000
61.13000 103.000
61.14500 92.000
61.16000 87.000
61.17500 92.000
61.19000 92.000
61.20500 97.000
61.22000 97.000
61.23500 110.000
61.25000 100.000
61.26500 90.000
61.28000 101.000
61.29500 103.000
61.31000 99.000
61.32500 111.000
61.34000 104.000
61.35500 98.000
61.37000 86.000
61.38500 87.000
61.40000 88.000
61.41500 102.000
61.43000 90.000
61.44500 93.000
61.46000 93.000
61.47500 89.000
61.49000 94.000
61.50500 99.000
61.52000 95.000
61.53500 96.000
61.55000 103.000
61.56500 109.000
61.58000 88.000
61.59500 101.000
61.61000 100.000
61.62500 91.000
61.64000 81.000
61.65500 92.000
61.67000 100.000
61.68500 92.000
61.70000 84.000
61.71500 116.000
61.73000 88.000
61.74500 88.000
61.76000 106.000
61.77500 99.000
61.79000 106.000
61.80500 100.000
61.82000 93.000
61.83500 96.000
61.85000 95.000
61.86500 90.000
61.88000 102.000
61.89500 116.000
61.91000 111.000
61.92500 102.000
61.94000 93.000
61.95500 91.000
61.97000 95.000
61.98500 86.000
