2.0 1460.0
2.015 1381.0
2.03 1375.0
2.045 1376.0
2.06 1296.0
2.075 1309.0
2.09 1276.0
2.105 1244.0
2.12 1206.0
2.135 1226.0
2.15 1180.0
2.165 1166.0
2.18 1126.0
2.195 1123.0
2.21 1113.0
2.225 1128.0
2.24 1045.0
2.255 1003.0
2.27 989.0
2.285 976.0
2.3 1011.0
2.315 964.0
2.33 939.0
2.345 940.0
2.36 879.0
2.375 869.0
2.39 841.0
2.405 873.0
2.42 843.0
2.435 825.0
2.45 858.0
2.465 803.0
2.48 767.0
2.495 785.0
2.51 784.0
2.525 786.0
2.54 750.0
2.555 744.0
2.57 747.0
2.585 737.0
2.6 695.0
2.615 697.0
2.63 682.0
2.645 691.0
2.66 698.0
2.675 703.0
2.69 665.0
2.705 615.0
2.72 622.0
2.735 595.0
2.75 596.0
2.765 643.0
2.78 601.0
2.795 605.0
2.81 588.0
2.825 638.0
2.84 605.0
2.855 573.0
2.87 586.0
2.885 592.0
2.9 579.0
2.915 575.0
2.93 617.0
2.945 553.0
2.96 528.0
2.975 537.0
2.99 539.0
3.005 526.0
3.02 523.0
3.035 536.0
3.05 524.0
3.065 531.0
3.08 505.0
3.095 512.0
3.11 505.0
3.125 530.0
3.14 480.0
3.155 515.0
3.17 494.0
3.185 490.0
3.2 445.0
3.215 480.0
3.23 464.0
3.245 465.0
3.26 466.0
3.275 461.0
3.29 468.0
3.305 462.0
3.32 420.0
3.335 438.0
3.35 483.0
3.365 463.0
3.38 430.0
3.395 423.0
3.41 412.0
3.425 394.0
3.44 406.0
3.455 407.0
3.47 438.0
3.485 435.0
3.5 435.0
3.515 426.0
3.53 433.0
3.545 414.0
3.56 429.0
3.575 380.0
3.59 405.0
3.605 419.0
3.62 408.0
3.635 409.0
3.65 397.0
3.665 394.0
3.68 411.0
3.695 407.0
3.71 405.0
3.725 409.0
3.74 401.0
3.755 401.0
3.77 397.0
3.785 391.0
3.8 384.0
3.815 385.0
3.83 390.0
3.845 376.0
3.86 378.0
3.875 337.0
3.89 401.0
3.905 396.0
3.92 386.0
3.935 384.0
3.95 380.0
3.965 375.0
3.98 367.0
3.995 359.0
4.01 365.0
4.025 385.0
4.04 375.0
4.055 389.0
4.07 387.0
4.085 345.0
4.1 374.0
4.115 372.0
4.13 367.0
4.145 373.0
4.16 388.0
4.175 377.0
4.19 357.0
4.205 362.0
4.22 366.0
4.235 360.0
4.25 361.0
4.265 386.0
4.28 388.0
4.295 355.0
4.31 362.0
4.325 361.0
4.34 370.0
4.355 372.0
4.37 365.0
4.385 373.0
4.4 356.0
4.415 331.0
4.43 364.0
4.445 349.0
4.46 358.0
4.475 350.0
4.49 375.0
4.505 346.0
4.52 353.0
4.535 349.0
4.55 351.0
4.565 365.0
4.58 372.0
4.595 360.0
4.61 342.0
4.625 361.0
4.64 329.0
4.655 317.0
4.67 345.0
4.685 343.0
4.7 316.0
4.715 325.0
4.73 340.0
4.745 332.0
4.76 337.0
4.775 334.0
4.79 309.0
4.805 346.0
4.82 378.0
4.835 348.0
4.85 355.0
4.865 335.0
4.88 326.0
4.895 330.0
4.91 338.0
4.925 365.0
4.94 362.0
4.955 342.0
4.97 363.0
4.985 339.0
5.0 337.0
5.015 323.0
5.03 337.0
5.045 348.0
5.06 353.0
5.075 348.0
5.09 360.0
5.105 317.0
5.12 333.0
5.135 344.0
5.15 329.0
5.165 350.0
5.18 327.0
5.195 338.0
5.21 334.0
5.225 328.0
5.24 308.0
5.255 334.0
5.27 347.0
5.285 346.0
5.3 330.0
5.315 331.0
5.33 312.0
5.345 347.0
5.36 364.0
5.375 341.0
5.39 356.0
5.405 371.0
5.42 367.0
5.435 354.0
5.45 314.0
5.465 312.0
5.48 334.0
5.495 354.0
5.51 342.0
5.525 352.0
5.54 338.0
5.555 335.0
5.57 350.0
5.585 322.0
5.6 320.0
5.615 348.0
5.63 340.0
5.645 346.0
5.66 348.0
5.675 352.0
5.69 314.0
5.705 313.0
5.72 330.0
5.735 346.0
5.75 312.0
5.765 360.0
5.78 382.0
5.795 366.0
5.81 337.0
5.825 345.0
5.84 343.0
5.855 338.0
5.87 345.0
5.885 314.0
5.9 310.0
5.915 314.0
5.93 330.0
5.945 307.0
5.96 362.0
5.975 354.0
5.99 346.0
6.005 346.0
6.02 353.0
6.035 338.0
6.05 362.0
6.065 340.0
6.08 314.0
6.095 342.0
6.11 359.0
6.125 340.0
6.14 301.0
6.155 331.0
6.17 339.0
6.185 346.0
6.2 345.0
6.215 332.0
6.23 335.0
6.245 334.0
6.26 330.0
6.275 339.0
6.29 350.0
6.305 375.0
6.32 370.0
6.335 349.0
6.35 338.0
6.365 310.0
6.38 338.0
6.395 366.0
6.41 341.0
6.425 323.0
6.44 310.0
6.455 330.0
6.47 331.0
6.485 334.0
6.5 369.0
6.515 329.0
6.53 333.0
6.545 365.0
6.56 347.0
6.575 334.0
6.59 352.0
6.605 344.0
6.62 345.0
6.635 335.0
6.65 344.0
6.665 329.0
6.68 335.0
6.695 330.0
6.71 331.0
6.725 336.0
6.74 321.0
6.755 342.0
6.77 330.0
6.785 345.0
6.8 355.0
6.815 339.0
6.83 334.0
6.845 341.0
6.86 323.0
6.875 354.0
6.89 348.0
6.905 337.0
6.92 328.0
6.935 364.0
6.95 312.0
6.965 327.0
6.98 363.0
6.995 341.0
7.01 337.0
7.025 348.0
7.04 348.0
7.055 341.0
7.07 351.0
7.085 329.0
7.1 351.0
7.115 351.0
7.13 334.0
7.145 342.0
7.16 357.0
7.175 369.0
7.19 343.0
7.205 329.0
7.22 368.0
7.235 367.0
7.25 360.0
7.265 331.0
7.28 334.0
7.295 314.0
7.31 323.0
7.325 319.0
7.34 342.0
7.355 360.0
7.37 361.0
7.385 353.0
7.4 342.0
7.415 345.0
7.43 342.0
7.445 345.0
7.46 355.0
7.475 370.0
7.49 348.0
7.505 332.0
7.52 338.0
7.535 343.0
7.55 341.0
7.565 363.0
7.58 338.0
7.595 342.0
7.61 372.0
7.625 354.0
7.64 332.0
7.655 340.0
7.67 337.0
7.685 346.0
7.7 311.0
7.715 362.0
7.73 355.0
7.745 337.0
7.76 344.0
7.775 341.0
7.79 331.0
7.805 318.0
7.82 364.0
7.835 373.0
7.85 334.0
7.865 356.0
7.88 365.0
7.895 341.0
7.91 342.0
7.925 352.0
7.94 373.0
7.955 378.0
7.97 353.0
7.985 345.0
8.0 365.0
8.015 364.0
8.03 361.0
8.045 363.0
8.06 377.0
8.075 356.0
8.09 371.0
8.105 356.0
8.12 395.0
8.135 382.0
8.15 395.0
8.165 375.0
8.18 397.0
8.195 340.0
8.21 363.0
8.225 398.0
8.24 404.0
8.255 380.0
8.27 405.0
8.285 396.0
8.3 386.0
8.315 404.0
8.33 421.0
8.345 441.0
8.36 414.0
8.375 419.0
8.39 453.0
8.405 429.0
8.42 466.0
8.435 471.0
8.45 440.0
8.465 472.0
8.48 470.0
8.495 479.0
8.51 470.0
8.525 497.0
8.54 506.0
8.555 464.0
8.57 456.0
8.585 498.0
8.6 523.0
8.615 498.0
8.63 494.0
8.645 491.0
8.66 501.0
8.675 499.0
8.69 490.0
8.705 483.0
8.72 492.0
8.735 477.0
8.75 469.0
8.765 471.0
8.78 447.0
8.795 421.0
8.81 424.0
8.825 462.0
8.84 418.0
8.855 424.0
8.87 404.0
8.885 418.0
8.9 411.0
8.915 388.0
8.93 387.0
8.945 389.0
8.96 374.0
8.975 392.0
8.99 379.0
9.005 376.0
9.02 355.0
9.035 341.0
9.05 336.0
9.065 329.0
9.08 335.0
9.095 361.0
9.11 354.0
9.125 367.0
9.14 368.0
9.155 361.0
9.17 373.0
9.185 360.0
9.2 367.0
9.215 374.0
9.23 353.0
9.245 365.0
9.26 345.0
9.275 326.0
9.29 353.0
9.305 344.0
9.32 315.0
9.335 344.0
9.35 348.0
9.365 375.0
9.38 329.0
9.395 351.0
9.41 349.0
9.425 351.0
9.44 348.0
9.455 345.0
9.47 370.0
9.485 357.0
9.5 356.0
9.515 339.0
9.53 353.0
9.545 353.0
9.56 353.0
9.575 381.0
9.59 369.0
9.605 361.0
9.62 379.0
9.635 367.0
9.65 349.0
9.665 356.0
9.68 351.0
9.695 371.0
9.71 355.0
9.725 360.0
9.74 329.0
9.755 354.0
9.77 361.0
9.785 363.0
9.8 327.0
9.815 333.0
9.83 344.0
9.845 359.0
9.86 399.0
9.875 356.0
9.89 384.0
9.905 388.0
9.92 369.0
9.935 368.0
9.95 371.0
9.965 381.0
9.98 403.0
9.995 398.0
10.01 406.0
10.025 412.0
10.04 385.0
10.055 399.0
10.07 402.0
10.085 411.0
10.1 416.0
10.115 415.0
10.13 392.0
10.145 367.0
10.16 395.0
10.175 388.0
10.19 373.0
10.205 358.0
10.22 368.0
10.235 385.0
10.25 355.0
10.265 351.0
10.28 338.0
10.295 336.0
10.31 348.0
10.325 354.0
10.34 356.0
10.355 378.0
10.37 348.0
10.385 352.0
10.4 384.0
10.415 389.0
10.43 374.0
10.445 358.0
10.46 361.0
10.475 373.0
10.49 361.0
10.505 379.0
10.52 357.0
10.535 379.0
10.55 368.0
10.565 363.0
10.58 365.0
10.595 360.0
10.61 369.0
10.625 367.0
10.64 403.0
10.655 357.0
10.67 361.0
10.685 385.0
10.7 395.0
10.715 398.0
10.73 387.0
10.745 370.0
10.76 374.0
10.775 393.0
10.79 407.0
10.805 398.0
10.82 380.0
10.835 395.0
10.85 388.0
10.865 370.0
10.88 434.0
10.895 402.0
10.91 425.0
10.925 433.0
10.94 421.0
10.955 414.0
10.97 430.0
10.985 419.0
11.0 435.0
11.015 458.0
11.03 465.0
11.045 459.0
11.06 480.0
11.075 488.0
11.09 465.0
11.105 467.0
11.12 487.0
11.135 515.0
11.15 493.0
11.165 540.0
11.18 535.0
11.195 556.0
11.21 556.0
11.225 635.0
11.24 577.0
11.255 599.0
11.27 605.0
11.285 649.0
11.3 707.0
11.315 711.0
11.33 695.0
11.345 747.0
11.36 819.0
11.375 851.0
11.39 934.0
11.405 939.0
11.42 977.0
11.435 1020.0
11.45 1020.0
11.465 1091.0
11.48 1125.0
11.495 1214.0
11.51 1247.0
11.525 1285.0
11.54 1326.0
11.555 1353.0
11.57 1321.0
11.585 1324.0
11.6 1347.0
11.615 1258.0
11.63 1255.0
11.645 1195.0
11.66 1149.0
11.675 1096.0
11.69 1122.0
11.705 1013.0
11.72 1011.0
11.735 1041.0
11.75 966.0
11.765 904.0
11.78 868.0
11.795 856.0
11.81 872.0
11.825 869.0
11.84 831.0
11.855 813.0
11.87 812.0
11.885 830.0
11.9 803.0
11.915 768.0
11.93 779.0
11.945 789.0
11.96 759.0
11.975 721.0
11.99 712.0
12.005 703.0
12.02 664.0
12.035 632.0
12.05 566.0
12.065 505.0
12.08 508.0
12.095 499.0
12.11 463.0
12.125 405.0
12.14 403.0
12.155 400.0
12.17 410.0
12.185 414.0
12.2 400.0
12.215 389.0
12.23 391.0
12.245 363.0
12.26 383.0
12.275 397.0
12.29 378.0
12.305 390.0
12.32 335.0
12.335 357.0
12.35 362.0
12.365 374.0
12.38 368.0
12.395 380.0
12.41 367.0
12.425 367.0
12.44 374.0
12.455 362.0
12.47 374.0
12.485 388.0
12.5 352.0
12.515 374.0
12.53 383.0
12.545 380.0
12.56 363.0
12.575 402.0
12.59 377.0
12.605 371.0
12.62 400.0
12.635 395.0
12.65 423.0
12.665 417.0
12.68 409.0
12.695 424.0
12.71 403.0
12.725 408.0
12.74 435.0
12.755 408.0
12.77 466.0
12.785 461.0
12.8 477.0
12.815 481.0
12.83 491.0
12.845 488.0
12.86 477.0
12.875 492.0
12.89 513.0
12.905 515.0
12.92 493.0
12.935 472.0
12.95 481.0
12.965 447.0
12.98 486.0
12.995 455.0
13.01 444.0
13.025 495.0
13.04 484.0
13.055 445.0
13.07 444.0
13.085 427.0
13.1 438.0
13.115 434.0
13.13 460.0
13.145 455.0
13.16 424.0
13.175 452.0
13.19 430.0
13.205 427.0
13.22 431.0
13.235 434.0
13.25 442.0
13.265 452.0
13.28 454.0
13.295 450.0
13.31 449.0
13.325 447.0
13.34 405.0
13.355 417.0
13.37 404.0
13.385 427.0
13.4 443.0
13.415 410.0
13.43 398.0
13.445 403.0
13.46 389.0
13.475 398.0
13.49 415.0
13.505 421.0
13.52 358.0
13.535 370.0
13.55 367.0
13.565 369.0
13.58 385.0
13.595 385.0
13.61 385.0
13.625 376.0
13.64 336.0
13.655 354.0
13.67 367.0
13.685 353.0
13.7 362.0
13.715 361.0
13.73 358.0
13.745 347.0
13.76 374.0
13.775 351.0
13.79 328.0
13.805 345.0
13.82 339.0
13.835 360.0
13.85 356.0
13.865 340.0
13.88 345.0
13.895 361.0
13.91 345.0
13.925 375.0
13.94 351.0
13.955 336.0
13.97 347.0
13.985 310.0
14.0 355.0
14.015 362.0
14.03 354.0
14.045 351.0
14.06 357.0
14.075 362.0
14.09 344.0
14.105 324.0
14.12 329.0
14.135 350.0
14.15 368.0
14.165 350.0
14.18 325.0
14.195 361.0
14.21 334.0
14.225 341.0
14.24 361.0
14.255 332.0
14.27 334.0
14.285 334.0
14.3 324.0
14.315 358.0
14.33 353.0
14.345 353.0
14.36 332.0
14.375 337.0
14.39 352.0
14.405 343.0
14.42 331.0
14.435 338.0
14.45 326.0
14.465 309.0
14.48 366.0
14.495 329.0
14.51 335.0
14.525 380.0
14.54 353.0
14.555 369.0
14.57 322.0
14.585 329.0
14.6 315.0
14.615 347.0
14.63 330.0
14.645 325.0
14.66 344.0
14.675 348.0
14.69 346.0
14.705 333.0
14.72 329.0
14.735 320.0
14.75 332.0
14.765 346.0
14.78 342.0
14.795 330.0
14.81 334.0
14.825 331.0
14.84 359.0
14.855 353.0
14.87 332.0
14.885 353.0
14.9 344.0
14.915 324.0
14.93 324.0
14.945 334.0
14.96 347.0
14.975 325.0
14.99 344.0
15.005 358.0
15.02 329.0
15.035 340.0
15.05 326.0
15.065 321.0
15.08 323.0
15.095 330.0
15.11 361.0
15.125 348.0
15.14 346.0
15.155 346.0
15.17 364.0
15.185 340.0
15.2 335.0
15.215 295.0
15.23 320.0
15.245 330.0
15.26 313.0
15.275 328.0
15.29 345.0
15.305 334.0
15.32 324.0
15.335 323.0
15.35 341.0
15.365 332.0
15.38 337.0
15.395 335.0
15.41 311.0
15.425 332.0
15.44 362.0
15.455 345.0
15.47 319.0
15.485 338.0
15.5 353.0
15.515 361.0
15.53 325.0
15.545 331.0
15.56 326.0
15.575 352.0
15.59 354.0
15.605 336.0
15.62 347.0
15.635 322.0
15.65 341.0
15.665 363.0
15.68 387.0
15.695 360.0
15.71 346.0
15.725 330.0
15.74 337.0
15.755 329.0
15.77 337.0
15.785 346.0
15.8 347.0
15.815 347.0
15.83 344.0
15.845 373.0
15.86 353.0
15.875 348.0
15.89 329.0
15.905 341.0
15.92 331.0
15.935 345.0
15.95 318.0
15.965 350.0
15.98 345.0
15.995 336.0
16.01 361.0
16.025 357.0
16.04 360.0
16.055 354.0
16.07 352.0
16.085 347.0
16.1 354.0
16.115 342.0
16.13 369.0
16.145 324.0
16.16 321.0
16.175 317.0
16.19 331.0
16.205 348.0
16.22 399.0
16.235 402.0
16.25 353.0
16.265 364.0
16.28 386.0
16.295 367.0
16.31 365.0
16.325 372.0
16.34 351.0
16.355 352.0
16.37 342.0
16.385 359.0
16.4 335.0
16.415 349.0
16.43 350.0
16.445 331.0
16.46 325.0
16.475 333.0
16.49 357.0
16.505 365.0
16.52 361.0
16.535 355.0
16.55 331.0
16.565 337.0
16.58 336.0
16.595 368.0
16.61 358.0
16.625 327.0
16.64 328.0
16.655 361.0
16.67 375.0
16.685 328.0
16.7 325.0
16.715 336.0
16.73 337.0
16.745 366.0
16.76 345.0
16.775 358.0
16.79 363.0
16.805 333.0
16.82 340.0
16.835 368.0
16.85 341.0
16.865 347.0
16.88 340.0
16.895 356.0
16.91 352.0
16.925 336.0
16.94 381.0
16.955 346.0
16.97 361.0
16.985 353.0
17.0 341.0
17.015 339.0
17.03 365.0
17.045 345.0
17.06 351.0
17.075 369.0
17.09 347.0
17.105 354.0
17.12 339.0
17.135 340.0
17.15 341.0
17.165 384.0
17.18 352.0
17.195 375.0
17.21 344.0
17.225 362.0
17.24 357.0
17.255 343.0
17.27 364.0
17.285 367.0
17.3 364.0
17.315 364.0
17.33 365.0
17.345 340.0
17.36 351.0
17.375 356.0
17.39 370.0
17.405 369.0
17.42 360.0
17.435 350.0
17.45 341.0
17.465 356.0
17.48 372.0
17.495 376.0
17.51 377.0
17.525 347.0
17.54 348.0
17.555 359.0
17.57 367.0
17.585 353.0
17.6 377.0
17.615 381.0
17.63 360.0
17.645 358.0
17.66 324.0
17.675 350.0
17.69 353.0
17.705 360.0
17.72 351.0
17.735 353.0
17.75 381.0
17.765 378.0
17.78 348.0
17.795 319.0
17.81 371.0
17.825 374.0
17.84 379.0
17.855 374.0
17.87 358.0
17.885 368.0
17.9 368.0
17.915 338.0
17.93 347.0
17.945 364.0
17.96 360.0
17.975 383.0
17.99 397.0
18.005 320.0
18.02 348.0
18.035 374.0
18.05 363.0
18.065 379.0
18.08 376.0
18.095 383.0
18.11 381.0
18.125 374.0
18.14 386.0
18.155 371.0
18.17 378.0
18.185 359.0
18.2 404.0
18.215 376.0
18.23 377.0
18.245 386.0
18.26 360.0
18.275 354.0
18.29 364.0
18.305 342.0
18.32 392.0
18.335 409.0
18.35 398.0
18.365 357.0
18.38 382.0
18.395 405.0
18.41 415.0
18.425 393.0
18.44 403.0
18.455 387.0
18.47 368.0
18.485 366.0
18.5 405.0
18.515 436.0
18.53 434.0
18.545 407.0
18.56 397.0
18.575 422.0
18.59 414.0
18.605 392.0
18.62 427.0
18.635 393.0
18.65 406.0
18.665 407.0
18.68 372.0
18.695 415.0
18.71 402.0
18.725 413.0
18.74 398.0
18.755 409.0
18.77 397.0
18.785 410.0
18.8 366.0
18.815 402.0
18.83 410.0
18.845 417.0
18.86 418.0
18.875 422.0
18.89 411.0
18.905 398.0
18.92 404.0
18.935 419.0
18.95 403.0
18.965 377.0
18.98 385.0
18.995 385.0
19.01 374.0
19.025 412.0
19.04 408.0
19.055 423.0
19.07 397.0
19.085 359.0
19.1 392.0
19.115 401.0
19.13 401.0
19.145 400.0
19.16 421.0
19.175 433.0
19.19 431.0
19.205 403.0
19.22 420.0
19.235 417.0
19.25 422.0
19.265 386.0
19.28 406.0
19.295 400.0
19.31 381.0
19.325 410.0
19.34 389.0
19.355 413.0
19.37 401.0
19.385 388.0
19.4 434.0
19.415 425.0
19.43 423.0
19.445 400.0
19.46 432.0
19.475 414.0
19.49 412.0
19.505 387.0
19.52 391.0
19.535 384.0
19.55 419.0
19.565 394.0
19.58 393.0
19.595 443.0
19.61 420.0
19.625 427.0
19.64 420.0
19.655 427.0
19.67 421.0
19.685 421.0
19.7 409.0
19.715 454.0
19.73 414.0
19.745 433.0
19.76 451.0
19.775 425.0
19.79 420.0
19.805 416.0
19.82 437.0
19.835 451.0
19.85 435.0
19.865 430.0
19.88 436.0
19.895 416.0
19.91 429.0
19.925 460.0
19.94 412.0
19.955 429.0
19.97 419.0
19.985 432.0
20.0 425.0
20.015 408.0
20.03 415.0
20.045 447.0
20.06 434.0
20.075 420.0
20.09 414.0
20.105 420.0
20.12 427.0
20.135 442.0
20.15 439.0
20.165 481.0
20.18 431.0
20.195 406.0
20.21 419.0
20.225 424.0
20.24 462.0
20.255 419.0
20.27 431.0
20.285 409.0
20.3 427.0
20.315 450.0
20.33 432.0
20.345 480.0
20.36 450.0
20.375 441.0
20.39 430.0
20.405 426.0
20.42 411.0
20.435 415.0
20.45 417.0
20.465 409.0
20.48 435.0
20.495 430.0
20.51 447.0
20.525 455.0
20.54 443.0
20.555 458.0
20.57 428.0
20.585 411.0
20.6 433.0
20.615 429.0
20.63 409.0
20.645 448.0
20.66 433.0
20.675 431.0
20.69 455.0
20.705 426.0
20.72 437.0
20.735 419.0
20.75 418.0
20.765 438.0
20.78 435.0
20.795 434.0
20.81 455.0
20.825 435.0
20.84 410.0
20.855 427.0
20.87 434.0
20.885 432.0
20.9 416.0
20.915 412.0
20.93 432.0
20.945 448.0
20.96 459.0
20.975 438.0
20.99 415.0
21.005 431.0
21.02 412.0
21.035 432.0
21.05 433.0
21.065 450.0
21.08 444.0
21.095 411.0
21.11 441.0
21.125 420.0
21.14 418.0
21.155 423.0
21.17 428.0
21.185 418.0
21.2 440.0
21.215 448.0
21.23 436.0
21.245 428.0
21.26 434.0
21.275 453.0
21.29 458.0
21.305 430.0
21.32 428.0
21.335 444.0
21.35 468.0
21.365 434.0
21.38 447.0
21.395 411.0
21.41 429.0
21.425 441.0
21.44 421.0
21.455 429.0
21.47 437.0
21.485 451.0
21.5 431.0
21.515 427.0
21.53 450.0
21.545 451.0
21.56 411.0
21.575 428.0
21.59 421.0
21.605 431.0
21.62 422.0
21.635 451.0
21.65 443.0
21.665 460.0
21.68 449.0
21.695 424.0
21.71 453.0
21.725 446.0
21.74 459.0
21.755 431.0
21.77 436.0
21.785 465.0
21.8 461.0
21.815 473.0
21.83 455.0
21.845 410.0
21.86 448.0
21.875 440.0
21.89 434.0
21.905 454.0
21.92 448.0
21.935 463.0
21.95 440.0
21.965 428.0
21.98 437.0
21.995 482.0
22.01 476.0
22.025 439.0
22.04 439.0
22.055 453.0
22.07 467.0
22.085 473.0
22.1 440.0
22.115 461.0
22.13 491.0
22.145 466.0
22.16 443.0
22.175 447.0
22.19 468.0
22.205 456.0
22.22 465.0
22.235 458.0
22.25 448.0
22.265 455.0
22.28 463.0
22.295 454.0
22.31 458.0
22.325 457.0
22.34 472.0
22.355 453.0
22.37 437.0
22.385 458.0
22.4 464.0
22.415 444.0
22.43 452.0
22.445 444.0
22.46 461.0
22.475 481.0
22.49 486.0
22.505 462.0
22.52 448.0
22.535 442.0
22.55 467.0
22.565 451.0
22.58 451.0
22.595 456.0
22.61 457.0
22.625 429.0
22.64 455.0
22.655 451.0
22.67 472.0
22.685 464.0
22.7 467.0
22.715 506.0
22.73 467.0
22.745 456.0
22.76 444.0
22.775 475.0
22.79 475.0
22.805 449.0
22.82 489.0
22.835 492.0
22.85 466.0
22.865 481.0
22.88 472.0
22.895 458.0
22.91 441.0
22.925 463.0
22.94 434.0
22.955 486.0
22.97 483.0
22.985 463.0
23.0 477.0
23.015 512.0
23.03 502.0
23.045 512.0
23.06 476.0
23.075 475.0
23.09 504.0
23.105 522.0
23.12 525.0
23.135 501.0
23.15 502.0
23.165 535.0
23.18 516.0
23.195 543.0
23.21 512.0
23.225 485.0
23.24 496.0
23.255 508.0
23.27 534.0
23.285 489.0
23.3 527.0
23.315 500.0
23.33 499.0
23.345 511.0
23.36 501.0
23.375 496.0
23.39 491.0
23.405 498.0
23.42 514.0
23.435 510.0
23.45 479.0
23.465 498.0
23.48 491.0
23.495 512.0
23.51 514.0
23.525 513.0
23.54 527.0
23.555 529.0
23.57 530.0
23.585 537.0
23.6 503.0
23.615 486.0
23.63 500.0
23.645 500.0
23.66 484.0
23.675 529.0
23.69 512.0
23.705 509.0
23.72 504.0
23.735 507.0
23.75 503.0
23.765 497.0
23.78 552.0
23.795 521.0
23.81 535.0
23.825 526.0
23.84 527.0
23.855 515.0
23.87 516.0
23.885 528.0
23.9 516.0
23.915 505.0
23.93 515.0
23.945 512.0
23.96 537.0
23.975 540.0
23.99 535.0
24.005 503.0
24.02 545.0
24.035 542.0
24.05 521.0
24.065 528.0
24.08 552.0
24.095 521.0
24.11 530.0
24.125 547.0
24.14 556.0
24.155 559.0
24.17 549.0
24.185 531.0
24.2 525.0
24.215 569.0
24.23 534.0
24.245 525.0
24.26 558.0
24.275 562.0
24.29 542.0
24.305 537.0
24.32 516.0
24.335 554.0
24.35 567.0
24.365 556.0
24.38 539.0
24.395 573.0
24.41 571.0
24.425 537.0
24.44 577.0
24.455 538.0
24.47 562.0
24.485 533.0
24.5 523.0
24.515 592.0
24.53 580.0
24.545 596.0
24.56 564.0
24.575 587.0
24.59 554.0
24.605 583.0
24.62 552.0
24.635 561.0
24.65 556.0
24.665 570.0
24.68 604.0
24.695 552.0
24.71 557.0
24.725 620.0
24.74 589.0
24.755 630.0
24.77 612.0
24.785 609.0
24.8 601.0
24.815 636.0
24.83 607.0
24.845 672.0
24.86 627.0
24.875 630.0
24.89 610.0
24.905 654.0
24.92 672.0
24.935 708.0
24.95 675.0
24.965 719.0
24.98 695.0
24.995 737.0
25.01 703.0
25.025 714.0
25.04 670.0
25.055 733.0
25.07 771.0
25.085 739.0
25.1 772.0
25.115 749.0
25.13 774.0
25.145 790.0
25.16 806.0
25.175 825.0
25.19 774.0
25.205 826.0
25.22 796.0
25.235 772.0
25.25 836.0
25.265 831.0
25.28 803.0
25.295 859.0
25.31 848.0
25.325 871.0
25.34 907.0
25.355 922.0
25.37 966.0
25.385 965.0
25.4 1001.0
25.415 995.0
25.43 1000.0
25.445 993.0
25.46 1030.0
25.475 1074.0
25.49 1126.0
25.505 1054.0
25.52 1134.0
25.535 1144.0
25.55 1120.0
25.565 1112.0
25.58 1169.0
25.595 1175.0
25.61 1129.0
25.625 1134.0
25.64 1135.0
25.655 1111.0
25.67 1070.0
25.685 1028.0
25.7 1006.0
25.715 1067.0
25.73 1046.0
25.745 947.0
25.76 907.0
25.775 968.0
25.79 887.0
25.805 881.0
25.82 832.0
25.835 855.0
25.85 892.0
25.865 860.0
25.88 841.0
25.895 827.0
25.91 859.0
25.925 782.0
25.94 715.0
25.955 765.0
25.97 762.0
25.985 767.0
26.0 762.0
26.015 783.0
26.03 728.0
26.045 703.0
26.06 736.0
26.075 699.0
26.09 698.0
26.105 682.0
26.12 721.0
26.135 690.0
26.15 711.0
26.165 677.0
26.18 704.0
26.195 721.0
26.21 734.0
26.225 727.0
26.24 690.0
26.255 718.0
26.27 663.0
26.285 645.0
26.3 671.0
26.315 684.0
26.33 705.0
26.345 708.0
26.36 677.0
26.375 696.0
26.39 701.0
26.405 716.0
26.42 712.0
26.435 729.0
26.45 669.0
26.465 706.0
26.48 747.0
26.495 699.0
26.51 729.0
26.525 734.0
26.54 673.0
26.555 702.0
26.57 700.0
26.585 720.0
26.6 705.0
26.615 765.0
26.63 767.0
26.645 707.0
26.66 709.0
26.675 700.0
26.69 711.0
26.705 712.0
26.72 721.0
26.735 722.0
26.75 731.0
26.765 734.0
26.78 752.0
26.795 724.0
26.81 746.0
26.825 750.0
26.84 731.0
26.855 699.0
26.87 766.0
26.885 752.0
26.9 748.0
26.915 732.0
26.93 771.0
26.945 795.0
26.96 818.0
26.975 801.0
26.99 804.0
27.005 844.0
27.02 898.0
27.035 857.0
27.05 884.0
27.065 965.0
27.08 956.0
27.095 957.0
27.11 954.0
27.125 996.0
27.14 1009.0
27.155 1038.0
27.17 1054.0
27.185 1002.0
27.2 1044.0
27.215 1052.0
27.23 1083.0
27.245 1123.0
27.26 1133.0
27.275 1085.0
27.29 1122.0
27.305 1092.0
27.32 1136.0
27.335 1150.0
27.35 1146.0
27.365 1152.0
27.38 1171.0
27.395 1233.0
27.41 1209.0
27.425 1238.0
27.44 1234.0
27.455 1246.0
27.47 1238.0
27.485 1250.0
27.5 1262.0
27.515 1230.0
27.53 1218.0
27.545 1187.0
27.56 1212.0
27.575 1153.0
27.59 1150.0
27.605 1128.0
27.62 1106.0
27.635 1080.0
27.65 1068.0
27.665 1011.0
27.68 976.0
27.695 941.0
27.71 889.0
27.725 871.0
27.74 828.0
27.755 760.0
27.77 751.0
27.785 734.0
27.8 758.0
27.815 731.0
27.83 687.0
27.845 681.0
27.86 674.0
27.875 629.0
27.89 642.0
27.905 636.0
27.92 643.0
27.935 616.0
27.95 579.0
27.965 592.0
27.98 564.0
27.995 571.0
28.01 567.0
28.025 546.0
28.04 549.0
28.055 558.0
28.07 567.0
28.085 533.0
28.1 549.0
28.115 514.0
28.13 512.0
28.145 492.0
28.16 495.0
28.175 523.0
28.19 519.0
28.205 508.0
28.22 484.0
28.235 512.0
28.25 512.0
28.265 492.0
28.28 481.0
28.295 486.0
28.31 486.0
28.325 460.0
28.34 479.0
28.355 450.0
28.37 437.0
28.385 471.0
28.4 429.0
28.415 444.0
28.43 442.0
28.445 466.0
28.46 514.0
28.475 480.0
28.49 487.0
28.505 444.0
28.52 427.0
28.535 465.0
28.55 432.0
28.565 441.0
28.58 437.0
28.595 447.0
28.61 434.0
28.625 425.0
28.64 448.0
28.655 482.0
28.67 440.0
28.685 459.0
28.7 449.0
28.715 393.0
28.73 428.0
28.745 429.0
28.76 471.0
28.775 446.0
28.79 444.0
28.805 437.0
28.82 457.0
28.835 411.0
28.85 416.0
28.865 430.0
28.88 433.0
28.895 419.0
28.91 412.0
28.925 406.0
28.94 426.0
28.955 408.0
28.97 414.0
28.985 426.0
29.0 390.0
29.015 410.0
29.03 420.0
29.045 444.0
29.06 442.0
29.075 429.0
29.09 431.0
29.105 421.0
29.12 412.0
29.135 413.0
29.15 460.0
29.165 424.0
29.18 414.0
29.195 399.0
29.21 423.0
29.225 401.0
29.24 421.0
29.255 401.0
29.27 437.0
29.285 413.0
29.3 423.0
29.315 422.0
29.33 421.0
29.345 421.0
29.36 420.0
29.375 412.0
29.39 429.0
29.405 446.0
29.42 412.0
29.435 453.0
29.45 424.0
29.465 408.0
29.48 424.0
29.495 406.0
29.51 398.0
29.525 408.0
29.54 409.0
29.555 426.0
29.57 437.0
29.585 410.0
29.6 431.0
29.615 423.0
29.63 407.0
29.645 468.0
29.66 415.0
29.675 400.0
29.69 408.0
29.705 418.0
29.72 431.0
29.735 448.0
29.75 431.0
29.765 430.0
29.78 408.0
29.795 441.0
29.81 436.0
29.825 400.0
29.84 415.0
29.855 426.0
29.87 420.0
29.885 445.0
29.9 407.0
29.915 427.0
29.93 429.0
29.945 413.0
29.96 432.0
29.975 447.0
29.99 431.0
30.005 432.0
30.02 437.0
30.035 424.0
30.05 436.0
30.065 415.0
30.08 412.0
30.095 452.0
30.11 466.0
30.125 429.0
30.14 450.0
30.155 446.0
30.17 437.0
30.185 450.0
30.2 419.0
30.215 464.0
30.23 477.0
30.245 489.0
30.26 477.0
30.275 507.0
30.29 487.0
30.305 456.0
30.32 504.0
30.335 486.0
30.35 486.0
30.365 467.0
30.38 464.0
30.395 519.0
30.41 495.0
30.425 505.0
30.44 528.0
30.455 521.0
30.47 538.0
30.485 526.0
30.5 522.0
30.515 482.0
30.53 463.0
30.545 477.0
30.56 439.0
30.575 462.0
30.59 486.0
30.605 456.0
30.62 442.0
30.635 461.0
30.65 454.0
30.665 452.0
30.68 456.0
30.695 467.0
30.71 444.0
30.725 417.0
30.74 433.0
30.755 432.0
30.77 448.0
30.785 420.0
30.8 428.0
30.815 418.0
30.83 413.0
30.845 434.0
30.86 384.0
30.875 407.0
30.89 435.0
30.905 412.0
30.92 415.0
30.935 420.0
30.95 401.0
30.965 399.0
30.98 374.0
30.995 387.0
31.01 385.0
31.025 377.0
31.04 389.0
31.055 392.0
31.07 391.0
31.085 389.0
31.1 390.0
31.115 391.0
31.13 357.0
31.145 412.0
31.16 419.0
31.175 379.0
31.19 381.0
31.205 353.0
31.22 386.0
31.235 380.0
31.25 384.0
31.265 360.0
31.28 366.0
31.295 355.0
31.31 355.0
31.325 360.0
31.34 356.0
31.355 363.0
31.37 332.0
31.385 329.0
31.4 369.0
31.415 342.0
31.43 355.0
31.445 334.0
31.46 351.0
31.475 354.0
31.49 345.0
31.505 328.0
31.52 377.0
31.535 351.0
31.55 315.0
31.565 339.0
31.58 342.0
31.595 352.0
31.61 366.0
31.625 354.0
31.64 359.0
31.655 343.0
31.67 330.0
31.685 342.0
31.7 348.0
31.715 362.0
31.73 365.0
31.745 333.0
31.76 318.0
31.775 338.0
31.79 356.0
31.805 345.0
31.82 339.0
31.835 337.0
31.85 358.0
31.865 343.0
31.88 343.0
31.895 333.0
31.91 340.0
31.925 338.0
31.94 319.0
31.955 324.0
31.97 333.0
31.985 323.0
32.0 350.0
32.015 327.0
32.03 347.0
32.045 328.0
32.06 337.0
32.075 325.0
32.09 331.0
32.105 331.0
32.12 325.0
32.135 350.0
32.15 348.0
32.165 329.0
32.18 342.0
32.195 332.0
32.21 317.0
32.225 333.0
32.24 336.0
32.255 331.0
32.27 312.0
32.285 332.0
32.3 333.0
32.315 314.0
32.33 330.0
32.345 336.0
32.36 311.0
32.375 315.0
32.39 341.0
32.405 323.0
32.42 315.0
32.435 315.0
32.45 286.0
32.465 304.0
32.48 299.0
32.495 317.0
32.51 314.0
32.525 320.0
32.54 336.0
32.555 327.0
32.57 324.0
32.585 306.0
32.6 334.0
32.615 317.0
32.63 328.0
32.645 306.0
32.66 309.0
32.675 318.0
32.69 321.0
32.705 314.0
32.72 328.0
32.735 327.0
32.75 309.0
32.765 288.0
32.78 296.0
32.795 302.0
32.81 282.0
32.825 317.0
32.84 339.0
32.855 327.0
32.87 325.0
32.885 317.0
32.9 319.0
32.915 287.0
32.93 337.0
32.945 329.0
32.96 324.0
32.975 307.0
32.99 307.0
33.005 305.0
33.02 317.0
33.035 333.0
33.05 288.0
33.065 317.0
33.08 300.0
33.095 287.0
33.11 282.0
33.125 287.0
33.14 280.0
33.155 311.0
33.17 325.0
33.185 325.0
33.2 284.0
33.215 314.0
33.23 306.0
33.245 286.0
33.26 293.0
33.275 299.0
33.29 286.0
33.305 304.0
33.32 332.0
33.335 314.0
33.35 292.0
33.365 295.0
33.38 305.0
33.395 319.0
33.41 300.0
33.425 290.0
33.44 308.0
33.455 319.0
33.47 302.0
33.485 292.0
33.5 306.0
33.515 298.0
33.53 305.0
33.545 324.0
33.56 306.0
33.575 268.0
33.59 303.0
33.605 296.0
33.62 284.0
33.635 263.0
33.65 294.0
33.665 305.0
33.68 297.0
33.695 286.0
33.71 305.0
33.725 301.0
33.74 282.0
33.755 304.0
33.77 288.0
33.785 285.0
33.8 292.0
33.815 296.0
33.83 285.0
33.845 270.0
33.86 293.0
33.875 290.0
33.89 304.0
33.905 294.0
33.92 276.0
33.935 279.0
33.95 280.0
33.965 288.0
33.98 301.0
33.995 288.0
34.01 306.0
34.025 276.0
34.04 285.0
34.055 287.0
34.07 285.0
34.085 281.0
34.1 277.0
34.115 290.0
34.13 286.0
34.145 285.0
34.16 286.0
34.175 286.0
34.19 266.0
34.205 266.0
34.22 258.0
34.235 303.0
34.25 293.0
34.265 282.0
34.28 284.0
34.295 295.0
34.31 303.0
34.325 294.0
34.34 258.0
34.355 267.0
34.37 287.0
34.385 300.0
34.4 284.0
34.415 269.0
34.43 261.0
34.445 265.0
34.46 280.0
34.475 284.0
34.49 294.0
34.505 271.0
34.52 280.0
34.535 277.0
34.55 285.0
34.565 286.0
34.58 283.0
34.595 264.0
34.61 268.0
34.625 279.0
34.64 270.0
34.655 265.0
34.67 281.0
34.685 299.0
34.7 282.0
34.715 293.0
34.73 267.0
34.745 254.0
34.76 290.0
34.775 285.0
34.79 265.0
34.805 269.0
34.82 267.0
34.835 281.0
34.85 266.0
34.865 248.0
34.88 255.0
34.895 268.0
34.91 263.0
34.925 274.0
34.94 278.0
34.955 257.0
34.97 255.0
34.985 258.0
35.0 241.0
35.015 273.0
35.03 296.0
35.045 281.0
35.06 277.0
35.075 267.0
35.09 265.0
35.105 255.0
35.12 269.0
35.135 277.0
35.15 260.0
35.165 252.0
35.18 268.0
35.195 267.0
35.21 284.0
35.225 267.0
35.24 264.0
35.255 272.0
35.27 243.0
35.285 244.0
35.3 271.0
35.315 261.0
35.33 269.0
35.345 256.0
35.36 238.0
35.375 251.0
35.39 239.0
35.405 238.0
35.42 239.0
35.435 246.0
35.45 261.0
35.465 280.0
35.48 248.0
35.495 246.0
35.51 253.0
35.525 269.0
35.54 266.0
35.555 250.0
35.57 262.0
35.585 281.0
35.6 286.0
35.615 270.0
35.63 248.0
35.645 262.0
35.66 246.0
35.675 245.0
35.69 237.0
35.705 232.0
35.72 245.0
35.735 235.0
35.75 258.0
35.765 270.0
35.78 279.0
35.795 234.0
35.81 238.0
35.825 241.0
35.84 241.0
35.855 250.0
35.87 227.0
35.885 235.0
35.9 249.0
35.915 240.0
35.93 226.0
35.945 269.0
35.96 261.0
35.975 253.0
35.99 263.0
36.005 242.0
36.02 238.0
36.035 211.0
36.05 229.0
36.065 225.0
36.08 234.0
36.095 240.0
36.11 246.0
36.125 231.0
36.14 239.0
36.155 245.0
36.17 228.0
36.185 212.0
36.2 238.0
36.215 259.0
36.23 233.0
36.245 235.0
36.26 236.0
36.275 240.0
36.29 263.0
36.305 247.0
36.32 235.0
36.335 234.0
36.35 244.0
36.365 224.0
36.38 223.0
36.395 251.0
36.41 227.0
36.425 262.0
36.44 244.0
36.455 232.0
36.47 236.0
36.485 247.0
36.5 220.0
36.515 238.0
36.53 233.0
36.545 227.0
36.56 224.0
36.575 229.0
36.59 209.0
36.605 201.0
36.62 205.0
36.635 226.0
36.65 240.0
36.665 234.0
36.68 208.0
36.695 227.0
36.71 215.0
36.725 223.0
36.74 241.0
36.755 214.0
36.77 215.0
36.785 226.0
36.8 224.0
36.815 222.0
36.83 233.0
36.845 195.0
36.86 216.0
36.875 209.0
36.89 222.0
36.905 229.0
36.92 228.0
36.935 211.0
36.95 231.0
36.965 224.0
36.98 230.0
36.995 210.0
37.01 210.0
37.025 211.0
37.04 220.0
37.055 217.0
37.07 216.0
37.085 221.0
37.1 246.0
37.115 213.0
37.13 209.0
37.145 219.0
37.16 232.0
37.175 234.0
37.19 222.0
37.205 209.0
37.22 237.0
37.235 219.0
37.25 232.0
37.265 244.0
37.28 219.0
37.295 232.0
37.31 218.0
37.325 235.0
37.34 221.0
37.355 246.0
37.37 213.0
37.385 210.0
37.4 213.0
37.415 204.0
37.43 219.0
37.445 226.0
37.46 229.0
37.475 216.0
37.49 218.0
37.505 209.0
37.52 212.0
37.535 220.0
37.55 226.0
37.565 220.0
37.58 232.0
37.595 216.0
37.61 205.0
37.625 213.0
37.64 207.0
37.655 220.0
37.67 219.0
37.685 212.0
37.7 197.0
37.715 227.0
37.73 234.0
37.745 211.0
37.76 198.0
37.775 212.0
37.79 208.0
37.805 214.0
37.82 231.0
37.835 222.0
37.85 223.0
37.865 202.0
37.88 196.0
37.895 208.0
37.91 215.0
37.925 213.0
37.94 217.0
37.955 222.0
37.97 213.0
37.985 224.0
38.0 230.0
38.015 231.0
38.03 217.0
38.045 231.0
38.06 220.0
38.075 224.0
38.09 215.0
38.105 188.0
38.12 198.0
38.135 197.0
38.15 214.0
38.165 218.0
38.18 223.0
38.195 212.0
38.21 214.0
38.225 213.0
38.24 204.0
38.255 228.0
38.27 239.0
38.285 227.0
38.3 216.0
38.315 213.0
38.33 202.0
38.345 227.0
38.36 222.0
38.375 191.0
38.39 221.0
38.405 227.0
38.42 222.0
38.435 214.0
38.45 215.0
38.465 210.0
38.48 226.0
38.495 236.0
38.51 230.0
38.525 220.0
38.54 192.0
38.555 207.0
38.57 221.0
38.585 236.0
38.6 222.0
38.615 201.0
38.63 200.0
38.645 216.0
38.66 220.0
38.675 218.0
38.69 216.0
38.705 223.0
38.72 222.0
38.735 243.0
38.75 227.0
38.765 250.0
38.78 218.0
38.795 227.0
38.81 226.0
38.825 214.0
38.84 220.0
38.855 220.0
38.87 223.0
38.885 227.0
38.9 198.0
38.915 223.0
38.93 233.0
38.945 212.0
38.96 235.0
38.975 209.0
38.99 203.0
39.005 195.0
39.02 218.0
39.035 212.0
39.05 202.0
39.065 201.0
39.08 217.0
39.095 218.0
39.11 201.0
39.125 207.0
39.14 212.0
39.155 208.0
39.17 201.0
39.185 207.0
39.2 208.0
39.215 211.0
39.23 225.0
39.245 212.0
39.26 215.0
39.275 200.0
39.29 213.0
39.305 229.0
39.32 217.0
39.335 203.0
39.35 209.0
39.365 210.0
39.38 204.0
39.395 235.0
39.41 211.0
39.425 228.0
39.44 207.0
39.455 250.0
39.47 219.0
39.485 202.0
39.5 205.0
39.515 229.0
39.53 231.0
39.545 240.0
39.56 210.0
39.575 228.0
39.59 234.0
39.605 205.0
39.62 208.0
39.635 210.0
39.65 250.0
39.665 231.0
39.68 230.0
39.695 237.0
39.71 229.0
39.725 240.0
39.74 220.0
39.755 214.0
39.77 221.0
39.785 217.0
39.8 228.0
39.815 232.0
39.83 223.0
39.845 211.0
39.86 205.0
39.875 220.0
39.89 244.0
39.905 224.0
39.92 225.0
39.935 216.0
39.95 219.0
39.965 233.0
39.98 233.0
39.995 226.0
40.01 222.0
40.025 243.0
40.04 242.0
40.055 232.0
40.07 221.0
40.085 234.0
40.1 250.0
40.115 263.0
40.13 250.0
40.145 247.0
40.16 238.0
40.175 236.0
40.19 242.0
40.205 234.0
40.22 229.0
40.235 244.0
40.25 246.0
40.265 242.0
40.28 246.0
40.295 242.0
40.31 251.0
40.325 258.0
40.34 222.0
40.355 222.0
40.37 247.0
40.385 241.0
40.4 256.0
40.415 232.0
40.43 230.0
40.445 242.0
40.46 248.0
40.475 246.0
40.49 267.0
40.505 240.0
40.52 248.0
40.535 232.0
40.55 219.0
40.565 235.0
40.58 252.0
40.595 245.0
40.61 228.0
40.625 240.0
40.64 240.0
40.655 231.0
40.67 257.0
40.685 228.0
40.7 236.0
40.715 238.0
40.73 250.0
40.745 243.0
40.76 224.0
40.775 233.0
40.79 232.0
40.805 232.0
40.82 219.0
40.835 238.0
40.85 230.0
40.865 220.0
40.88 228.0
40.895 217.0
40.91 245.0
40.925 248.0
40.94 238.0
40.955 231.0
40.97 247.0
40.985 231.0
41.0 230.0
41.015 203.0
41.03 236.0
41.045 245.0
41.06 258.0
41.075 234.0
41.09 221.0
41.105 246.0
41.12 226.0
41.135 216.0
41.15 237.0
41.165 240.0
41.18 230.0
41.195 215.0
41.21 231.0
41.225 246.0
41.24 241.0
41.255 251.0
41.27 234.0
41.285 229.0
41.3 216.0
41.315 233.0
41.33 241.0
41.345 230.0
41.36 221.0
41.375 228.0
41.39 210.0
41.405 229.0
41.42 214.0
41.435 243.0
41.45 225.0
41.465 240.0
41.48 216.0
41.495 223.0
41.51 206.0
41.525 209.0
41.54 234.0
41.555 224.0
41.57 218.0
41.585 237.0
41.6 243.0
41.615 238.0
41.63 223.0
41.645 208.0
41.66 193.0
41.675 202.0
41.69 205.0
41.705 203.0
41.72 209.0
41.735 206.0
41.75 199.0
41.765 215.0
41.78 213.0
41.795 213.0
41.81 210.0
41.825 208.0
41.84 199.0
41.855 216.0
41.87 216.0
41.885 191.0
41.9 201.0
41.915 196.0
41.93 211.0
41.945 216.0
41.96 204.0
41.975 205.0
41.99 216.0
42.005 222.0
42.02 204.0
42.035 208.0
42.05 199.0
42.065 216.0
42.08 202.0
42.095 187.0
42.11 220.0
42.125 214.0
42.14 220.0
42.155 226.0
42.17 210.0
42.185 209.0
42.2 192.0
42.215 201.0
42.23 209.0
42.245 194.0
42.26 184.0
42.275 205.0
42.29 224.0
42.305 215.0
42.32 213.0
42.335 215.0
42.35 190.0
42.365 213.0
42.38 217.0
42.395 216.0
42.41 212.0
42.425 201.0
42.44 206.0
42.455 207.0
42.47 203.0
42.485 201.0
42.5 213.0
42.515 213.0
42.53 199.0
42.545 214.0
42.56 212.0
42.575 203.0
42.59 211.0
42.605 203.0
42.62 212.0
42.635 194.0
42.65 210.0
42.665 206.0
42.68 211.0
42.695 198.0
42.71 220.0
42.725 217.0
42.74 195.0
42.755 216.0
42.77 209.0
42.785 203.0
42.8 216.0
42.815 188.0
42.83 207.0
42.845 205.0
42.86 218.0
42.875 207.0
42.89 190.0
42.905 229.0
42.92 209.0
42.935 212.0
42.95 202.0
42.965 208.0
42.98 214.0
42.995 225.0
43.01 217.0
43.025 206.0
43.04 213.0
43.055 203.0
43.07 214.0
43.085 205.0
43.1 196.0
43.115 227.0
43.13 201.0
43.145 204.0
43.16 209.0
43.175 210.0
43.19 210.0
43.205 210.0
43.22 208.0
43.235 208.0
43.25 199.0
43.265 220.0
43.28 204.0
43.295 213.0
43.31 214.0
43.325 216.0
43.34 215.0
43.355 191.0
43.37 185.0
43.385 210.0
43.4 213.0
43.415 205.0
43.43 199.0
43.445 204.0
43.46 193.0
43.475 211.0
43.49 169.0
43.505 194.0
43.52 189.0
43.535 179.0
43.55 185.0
43.565 201.0
43.58 227.0
43.595 211.0
43.61 214.0
43.625 208.0
43.64 202.0
43.655 193.0
43.67 194.0
43.685 214.0
43.7 211.0
43.715 201.0
43.73 195.0
43.745 184.0
43.76 191.0
43.775 201.0
43.79 207.0
43.805 200.0
43.82 190.0
43.835 197.0
43.85 181.0
43.865 196.0
43.88 229.0
43.895 202.0
43.91 215.0
43.925 207.0
43.94 201.0
43.955 185.0
43.97 196.0
43.985 212.0
44.0 213.0
44.015 191.0
44.03 209.0
44.045 183.0
44.06 214.0
44.075 231.0
44.09 208.0
44.105 188.0
44.12 180.0
44.135 194.0
44.15 196.0
44.165 211.0
44.18 199.0
44.195 194.0
44.21 203.0
44.225 197.0
44.24 178.0
44.255 184.0
44.27 190.0
44.285 185.0
44.3 177.0
44.315 206.0
44.33 196.0
44.345 185.0
44.36 193.0
44.375 179.0
44.39 198.0
44.405 208.0
44.42 186.0
44.435 214.0
44.45 197.0
44.465 196.0
44.48 205.0
44.495 204.0
44.51 213.0
44.525 182.0
44.54 199.0
44.555 192.0
44.57 168.0
44.585 195.0
44.6 201.0
44.615 198.0
44.63 192.0
44.645 197.0
44.66 216.0
44.675 209.0
44.69 192.0
44.705 182.0
44.72 201.0
44.735 201.0
44.75 189.0
44.765 196.0
44.78 213.0
44.795 189.0
44.81 188.0
44.825 189.0
44.84 195.0
44.855 192.0
44.87 185.0
44.885 170.0
44.9 201.0
44.915 204.0
44.93 191.0
44.945 194.0
44.96 212.0
44.975 202.0
44.99 224.0
45.005 214.0
45.02 205.0
45.035 206.0
45.05 185.0
45.065 176.0
45.08 179.0
45.095 200.0
45.11 195.0
45.125 190.0
45.14 204.0
45.155 203.0
45.17 195.0
45.185 192.0
45.2 187.0
45.215 210.0
45.23 224.0
45.245 184.0
45.26 189.0
45.275 185.0
45.29 192.0
45.305 191.0
45.32 198.0
45.335 201.0
45.35 219.0
45.365 184.0
45.38 187.0
45.395 194.0
45.41 203.0
45.425 209.0
45.44 212.0
45.455 219.0
45.47 199.0
45.485 200.0
45.5 205.0
45.515 181.0
45.53 202.0
45.545 192.0
45.56 208.0
45.575 212.0
45.59 212.0
45.605 203.0
45.62 195.0
45.635 211.0
45.65 218.0
45.665 198.0
45.68 188.0
45.695 205.0
45.71 214.0
45.725 208.0
45.74 221.0
45.755 215.0
45.77 212.0
45.785 219.0
45.8 219.0
45.815 213.0
45.83 216.0
45.845 207.0
45.86 215.0
45.875 211.0
45.89 202.0
45.905 226.0
45.92 222.0
45.935 195.0
45.95 194.0
45.965 195.0
45.98 197.0
45.995 204.0
46.01 210.0
46.025 196.0
46.04 185.0
46.055 216.0
46.07 189.0
46.085 189.0
46.1 218.0
46.115 218.0
46.13 190.0
46.145 201.0
46.16 201.0
46.175 175.0
46.19 193.0
46.205 220.0
46.22 164.0
46.235 188.0
46.25 207.0
46.265 197.0
46.28 186.0
46.295 197.0
46.31 183.0
46.325 209.0
46.34 199.0
46.355 192.0
46.37 205.0
46.385 190.0
46.4 183.0
46.415 187.0
46.43 195.0
46.445 210.0
46.46 195.0
46.475 202.0
46.49 190.0
46.505 196.0
46.52 196.0
46.535 189.0
46.55 188.0
46.565 176.0
46.58 180.0
46.595 194.0
46.61 194.0
46.625 188.0
46.64 185.0
46.655 186.0
46.67 180.0
46.685 182.0
46.7 197.0
46.715 197.0
46.73 180.0
46.745 182.0
46.76 182.0
46.775 165.0
46.79 193.0
46.805 195.0
46.82 175.0
46.835 191.0
46.85 162.0
46.865 184.0
46.88 172.0
46.895 184.0
46.91 198.0
46.925 196.0
46.94 192.0
46.955 170.0
46.97 182.0
46.985 215.0
47.0 190.0
47.015 178.0
47.03 178.0
47.045 188.0
47.06 188.0
47.075 188.0
47.09 188.0
47.105 164.0
47.12 181.0
47.135 192.0
47.15 182.0
47.165 192.0
47.18 180.0
47.195 194.0
47.21 172.0
47.225 175.0
47.24 190.0
47.255 192.0
47.27 178.0
47.285 192.0
47.3 187.0
47.315 168.0
47.33 191.0
47.345 174.0
47.36 171.0
47.375 189.0
47.39 178.0
47.405 182.0
47.42 165.0
47.435 188.0
47.45 195.0
47.465 188.0
47.48 162.0
47.495 205.0
47.51 180.0
47.525 208.0
47.54 184.0
47.555 175.0
47.57 177.0
47.585 190.0
47.6 188.0
47.615 186.0
47.63 169.0
47.645 192.0
47.66 180.0
47.675 206.0
47.69 177.0
47.705 188.0
47.72 174.0
47.735 157.0
47.75 171.0
47.765 191.0
47.78 184.0
47.795 162.0
47.81 188.0
47.825 168.0
47.84 194.0
47.855 208.0
47.87 194.0
47.885 196.0
47.9 175.0
47.915 178.0
47.93 197.0
47.945 188.0
47.96 180.0
47.975 174.0
47.99 165.0
48.005 173.0
48.02 157.0
48.035 172.0
48.05 185.0
48.065 183.0
48.08 190.0
48.095 188.0
48.11 186.0
48.125 186.0
48.14 174.0
48.155 193.0
48.17 173.0
48.185 190.0
48.2 177.0
48.215 184.0
48.23 183.0
48.245 159.0
48.26 176.0
48.275 151.0
48.29 175.0
48.305 177.0
48.32 176.0
48.335 174.0
48.35 174.0
48.365 160.0
48.38 181.0
48.395 174.0
48.41 163.0
48.425 171.0
48.44 162.0
48.455 180.0
48.47 175.0
48.485 181.0
48.5 165.0
48.515 183.0
48.53 160.0
48.545 167.0
48.56 162.0
48.575 167.0
48.59 201.0
48.605 180.0
48.62 176.0
48.635 176.0
48.65 185.0
48.665 184.0
48.68 171.0
48.695 185.0
48.71 200.0
48.725 186.0
48.74 176.0
48.755 183.0
48.77 176.0
48.785 173.0
48.8 184.0
48.815 149.0
48.83 173.0
48.845 168.0
48.86 170.0
48.875 179.0
48.89 177.0
48.905 187.0
48.92 181.0
48.935 178.0
48.95 163.0
48.965 154.0
48.98 172.0
48.995 186.0
49.01 180.0
49.025 177.0
49.04 173.0
49.055 174.0
49.07 176.0
49.085 180.0
49.1 173.0
49.115 176.0
49.13 160.0
49.145 169.0
49.16 179.0
49.175 166.0
49.19 169.0
49.205 169.0
49.22 174.0
49.235 180.0
49.25 175.0
49.265 177.0
49.28 178.0
49.295 142.0
49.31 165.0
49.325 191.0
49.34 192.0
49.355 168.0
49.37 165.0
49.385 176.0
49.4 183.0
49.415 183.0
49.43 159.0
49.445 175.0
49.46 169.0
49.475 176.0
49.49 185.0
49.505 166.0
49.52 161.0
49.535 187.0
49.55 166.0
49.565 160.0
49.58 164.0
49.595 159.0
49.61 171.0
49.625 157.0
49.64 156.0
49.655 166.0
49.67 166.0
49.685 181.0
49.7 164.0
49.715 184.0
49.73 179.0
49.745 163.0
49.76 152.0
49.775 170.0
49.79 180.0
49.805 163.0
49.82 169.0
49.835 156.0
49.85 154.0
49.865 156.0
49.88 163.0
49.895 185.0
49.91 160.0
49.925 170.0
49.94 155.0
49.955 164.0
49.97 180.0
49.985 165.0
50.0 159.0
50.015 167.0
50.03 168.0
50.045 174.0
50.06 155.0
50.075 184.0
50.09 167.0
50.105 171.0
50.12 184.0
50.135 178.0
50.15 178.0
50.165 166.0
50.18 173.0
50.195 166.0
50.21 155.0
50.225 143.0
50.24 167.0
50.255 190.0
50.27 176.0
50.285 166.0
50.3 178.0
50.315 163.0
50.33 150.0
50.345 170.0
50.36 180.0
50.375 178.0
50.39 194.0
50.405 170.0
50.42 171.0
50.435 163.0
50.45 156.0
50.465 161.0
50.48 171.0
50.495 152.0
50.51 143.0
50.525 162.0
50.54 157.0
50.555 162.0
50.57 165.0
50.585 153.0
50.6 169.0
50.615 160.0
50.63 165.0
50.645 168.0
50.66 161.0
50.675 158.0
50.69 152.0
50.705 171.0
50.72 183.0
50.735 178.0
50.75 167.0
50.765 173.0
50.78 159.0
50.795 167.0
50.81 148.0
50.825 173.0
50.84 170.0
50.855 176.0
50.87 154.0
50.885 162.0
50.9 153.0
50.915 160.0
50.93 152.0
50.945 174.0
50.96 167.0
50.975 170.0
50.99 173.0
51.005 177.0
51.02 155.0
51.035 167.0
51.05 177.0
51.065 166.0
51.08 165.0
51.095 165.0
51.11 163.0
51.125 161.0
51.14 158.0
51.155 179.0
51.17 179.0
51.185 153.0
51.2 155.0
51.215 153.0
51.23 168.0
51.245 169.0
51.26 172.0
51.275 150.0
51.29 143.0
51.305 147.0
51.32 153.0
51.335 158.0
51.35 165.0
51.365 177.0
51.38 181.0
51.395 182.0
51.41 176.0
51.425 172.0
51.44 162.0
51.455 178.0
51.47 167.0
51.485 172.0
51.5 173.0
51.515 164.0
51.53 174.0
51.545 172.0
51.56 161.0
51.575 171.0
51.59 164.0
51.605 176.0
51.62 153.0
51.635 172.0
51.65 157.0
51.665 169.0
51.68 151.0
51.695 160.0
51.71 153.0
51.725 157.0
51.74 177.0
51.755 167.0
51.77 175.0
51.785 163.0
51.8 150.0
51.815 163.0
51.83 174.0
51.845 165.0
51.86 170.0
51.875 157.0
51.89 127.0
51.905 166.0
51.92 184.0
51.935 169.0
51.95 145.0
51.965 169.0
51.98 174.0
51.995 164.0
52.01 160.0
52.025 179.0
52.04 187.0
52.055 158.0
52.07 193.0
52.085 203.0
52.1 166.0
52.115 163.0
52.13 157.0
52.145 157.0
52.16 157.0
52.175 190.0
52.19 193.0
52.205 166.0
52.22 173.0
52.235 168.0
52.25 171.0
52.265 163.0
52.28 151.0
52.295 173.0
52.31 166.0
52.325 158.0
52.34 178.0
52.355 172.0
52.37 176.0
52.385 166.0
52.4 163.0
52.415 170.0
52.43 172.0
52.445 169.0
52.46 164.0
52.475 171.0
52.49 182.0
52.505 165.0
52.52 183.0
52.535 188.0
52.55 178.0
52.565 161.0
52.58 192.0
52.595 187.0
52.61 179.0
52.625 179.0
52.64 184.0
52.655 160.0
52.67 157.0
52.685 170.0
52.7 169.0
52.715 186.0
52.73 176.0
52.745 186.0
52.76 171.0
52.775 174.0
52.79 173.0
52.805 178.0
52.82 161.0
52.835 159.0
52.85 152.0
52.865 153.0
52.88 154.0
52.895 161.0
52.91 174.0
52.925 177.0
52.94 192.0
52.955 172.0
52.97 174.0
52.985 180.0
53.0 177.0
53.015 173.0
53.03 154.0
53.045 187.0
53.06 201.0
53.075 157.0
53.09 171.0
53.105 189.0
53.12 173.0
53.135 164.0
53.15 156.0
53.165 153.0
53.18 168.0
53.195 177.0
53.21 174.0
53.225 170.0
53.24 171.0
53.255 190.0
53.27 178.0
53.285 169.0
53.3 171.0
53.315 161.0
53.33 174.0
53.345 187.0
53.36 175.0
53.375 178.0
53.39 169.0
53.405 159.0
53.42 160.0
53.435 159.0
53.45 158.0
53.465 166.0
53.48 187.0
53.495 152.0
53.51 180.0
53.525 169.0
53.54 169.0
53.555 175.0
53.57 170.0
53.585 177.0
53.6 174.0
53.615 165.0
53.63 195.0
53.645 181.0
53.66 176.0
53.675 157.0
53.69 183.0
53.705 159.0
53.72 159.0
53.735 175.0
53.75 180.0
53.765 168.0
53.78 159.0
53.795 165.0
53.81 175.0
53.825 163.0
53.84 170.0
53.855 168.0
53.87 165.0
53.885 165.0
53.9 174.0
53.915 170.0
53.93 173.0
53.945 166.0
53.96 173.0
53.975 154.0
53.99 158.0
54.005 150.0
54.02 151.0
54.035 163.0
54.05 170.0
54.065 199.0
54.08 160.0
54.095 171.0
54.11 178.0
54.125 166.0
54.14 167.0
54.155 162.0
54.17 170.0
54.185 167.0
54.2 172.0
54.215 158.0
54.23 175.0
54.245 158.0
54.26 172.0
54.275 168.0
54.29 169.0
54.305 170.0
54.32 184.0
54.335 168.0
54.35 166.0
54.365 170.0
54.38 167.0
54.395 165.0
54.41 165.0
54.425 193.0
54.44 179.0
54.455 173.0
54.47 189.0
54.485 171.0
54.5 162.0
54.515 172.0
54.53 183.0
54.545 175.0
54.56 172.0
54.575 179.0
54.59 180.0
54.605 174.0
54.62 167.0
54.635 174.0
54.65 156.0
54.665 166.0
54.68 167.0
54.695 162.0
54.71 156.0
54.725 197.0
54.74 179.0
54.755 201.0
54.77 190.0
54.785 158.0
54.8 172.0
54.815 156.0
54.83 169.0
54.845 162.0
54.86 167.0
54.875 158.0
54.89 165.0
54.905 159.0
54.92 162.0
54.935 166.0
54.95 175.0
54.965 166.0
54.98 176.0
54.995 182.0
55.01 163.0
55.025 157.0
55.04 156.0
55.055 152.0
55.07 159.0
55.085 165.0
55.1 158.0
55.115 175.0
55.13 156.0
55.145 141.0
55.16 179.0
55.175 177.0
55.19 155.0
55.205 167.0
55.22 197.0
55.235 186.0
55.25 184.0
55.265 181.0
55.28 164.0
55.295 167.0
55.31 157.0
55.325 161.0
55.34 160.0
55.355 167.0
55.37 187.0
55.385 161.0
55.4 167.0
55.415 178.0
55.43 162.0
55.445 166.0
55.46 175.0
55.475 168.0
55.49 169.0
55.505 150.0
55.52 162.0
55.535 158.0
55.55 134.0
55.565 154.0
55.58 164.0
55.595 166.0
55.61 167.0
55.625 162.0
55.64 167.0
55.655 150.0
55.67 143.0
55.685 138.0
55.7 128.0
55.715 146.0
55.73 160.0
55.745 151.0
55.76 166.0
55.775 167.0
55.79 148.0
55.805 178.0
55.82 163.0
55.835 176.0
55.85 169.0
55.865 163.0
55.88 156.0
55.895 152.0
55.91 161.0
55.925 154.0
55.94 168.0
55.955 148.0
55.97 165.0
55.985 165.0
56.0 155.0
56.015 153.0
56.03 169.0
56.045 164.0
56.06 153.0
56.075 143.0
56.09 145.0
56.105 156.0
56.12 168.0
56.135 154.0
56.15 145.0
56.165 163.0
56.18 151.0
56.195 159.0
56.21 141.0
56.225 158.0
56.24 167.0
56.255 182.0
56.27 173.0
56.285 165.0
56.3 170.0
56.315 167.0
56.33 156.0
56.345 160.0
56.36 156.0
56.375 150.0
56.39 156.0
56.405 152.0
56.42 148.0
56.435 158.0
56.45 160.0
56.465 158.0
56.48 166.0
56.495 174.0
56.51 148.0
56.525 160.0
56.54 168.0
56.555 177.0
56.57 157.0
56.585 178.0
56.6 176.0
56.615 159.0
56.63 153.0
56.645 146.0
56.66 151.0
56.675 148.0
56.69 159.0
56.705 147.0
56.72 158.0
56.735 162.0
56.75 162.0
56.765 153.0
56.78 151.0
56.795 157.0
56.81 178.0
56.825 165.0
56.84 164.0
56.855 164.0
56.87 160.0
56.885 160.0
56.9 171.0
56.915 175.0
56.93 162.0
56.945 139.0
56.96 164.0
56.975 144.0
56.99 145.0
57.005 151.0
57.02 136.0
57.035 159.0
57.05 155.0
57.065 157.0
57.08 150.0
57.095 144.0
57.11 143.0
57.125 140.0
57.14 148.0
57.155 153.0
57.17 133.0
57.185 151.0
57.2 151.0
57.215 150.0
57.23 154.0
57.245 160.0
57.26 163.0
57.275 153.0
57.29 173.0
57.305 169.0
57.32 147.0
57.335 165.0
57.35 167.0
57.365 137.0
57.38 149.0
57.395 161.0
57.41 137.0
57.425 149.0
57.44 149.0
57.455 131.0
57.47 158.0
57.485 145.0
57.5 163.0
57.515 140.0
57.53 154.0
57.545 145.0
57.56 151.0
57.575 152.0
57.59 154.0
57.605 151.0
57.62 149.0
57.635 147.0
57.65 147.0
57.665 162.0
57.68 153.0
57.695 163.0
57.71 157.0
57.725 148.0
57.74 150.0
57.755 148.0
57.77 139.0
57.785 139.0
57.8 143.0
57.815 145.0
57.83 150.0
57.845 159.0
57.86 159.0
57.875 137.0
57.89 154.0
57.905 161.0
57.92 161.0
57.935 134.0
57.95 147.0
57.965 151.0
57.98 148.0
57.995 134.0
58.01 151.0
58.025 159.0
58.04 161.0
58.055 160.0
58.07 158.0
58.085 149.0
58.1 153.0
58.115 143.0
58.13 140.0
58.145 144.0
58.16 150.0
58.175 158.0
58.19 151.0
58.205 138.0
58.22 149.0
58.235 159.0
58.25 146.0
58.265 143.0
58.28 146.0
58.295 159.0
58.31 142.0
58.325 151.0
58.34 161.0
58.355 142.0
58.37 152.0
58.385 145.0
58.4 158.0
58.415 137.0
58.43 153.0
58.445 172.0
58.46 157.0
58.475 155.0
58.49 144.0
58.505 150.0
58.52 163.0
58.535 157.0
58.55 171.0
58.565 168.0
58.58 159.0
58.595 147.0
58.61 143.0
58.625 139.0
58.64 142.0
58.655 143.0
58.67 165.0
58.685 144.0
58.7 158.0
58.715 157.0
58.73 135.0
58.745 143.0
58.76 169.0
58.775 167.0
58.79 157.0
58.805 159.0
58.82 149.0
58.835 157.0
58.85 142.0
58.865 143.0
58.88 163.0
58.895 156.0
58.91 154.0
58.925 131.0
58.94 144.0
58.955 158.0
58.97 151.0
58.985 146.0
59.0 146.0
59.015 134.0
59.03 152.0
59.045 157.0
59.06 148.0
59.075 146.0
59.09 154.0
59.105 131.0
59.12 147.0
59.135 152.0
59.15 151.0
59.165 152.0
59.18 161.0
59.195 153.0
59.21 155.0
59.225 155.0
59.24 133.0
59.255 155.0
59.27 148.0
59.285 161.0
59.3 152.0
59.315 145.0
59.33 157.0
59.345 154.0
59.36 148.0
59.375 158.0
59.39 150.0
59.405 156.0
59.42 142.0
59.435 134.0
59.45 150.0
59.465 151.0
59.48 152.0
59.495 157.0
59.51 159.0
59.525 154.0
59.54 153.0
59.555 150.0
59.57 150.0
59.585 148.0
59.6 152.0
59.615 138.0
59.63 149.0
59.645 150.0
59.66 168.0
59.675 159.0
59.69 143.0
59.705 141.0
59.72 148.0
59.735 154.0
59.75 147.0
59.765 136.0
59.78 150.0
59.795 147.0
59.81 149.0
59.825 154.0
59.84 148.0
59.855 160.0
59.87 155.0
59.885 154.0
59.9 160.0
59.915 149.0
59.93 138.0
59.945 140.0
59.96 155.0
59.975 142.0
59.99 141.0
60.005 143.0
60.02 161.0
60.035 145.0
60.05 143.0
60.065 166.0
60.08 149.0
60.095 151.0
60.11 145.0
60.125 157.0
60.14 148.0
60.155 155.0
60.17 136.0
60.185 145.0
60.2 145.0
60.215 133.0
60.23 160.0
60.245 157.0
60.26 136.0
60.275 163.0
60.29 153.0
60.305 158.0
60.32 139.0
60.335 145.0
60.35 152.0
60.365 153.0
60.38 157.0
60.395 148.0
60.41 139.0
60.425 144.0
60.44 145.0
60.455 143.0
60.47 135.0
60.485 153.0
60.5 148.0
60.515 137.0
60.53 142.0
60.545 140.0
60.56 162.0
60.575 144.0
60.59 144.0
60.605 152.0
60.62 133.0
60.635 142.0
60.65 152.0
60.665 154.0
60.68 135.0
60.695 132.0
60.71 147.0
60.725 153.0
60.74 131.0
60.755 141.0
60.77 132.0
60.785 137.0
60.8 128.0
60.815 144.0
60.83 147.0
60.845 141.0
60.86 139.0
60.875 137.0
60.89 128.0
60.905 139.0
60.92 149.0
60.935 146.0
60.95 139.0
60.965 129.0
60.98 140.0
60.995 143.0
61.01 151.0
61.025 134.0
61.04 145.0
61.055 132.0
61.07 133.0
61.085 148.0
61.1 154.0
61.115 160.0
61.13 153.0
61.145 127.0
61.16 138.0
61.175 127.0
61.19 134.0
61.205 147.0
61.22 160.0
61.235 146.0
61.25 136.0
61.265 139.0
61.28 159.0
61.295 135.0
61.31 140.0
61.325 142.0
61.34 141.0
61.355 160.0
61.37 150.0
61.385 157.0
61.4 144.0
61.415 130.0
61.43 142.0
61.445 136.0
61.46 132.0
61.475 140.0
61.49 133.0
61.505 144.0
61.52 137.0
61.535 136.0
61.55 128.0
61.565 153.0
61.58 139.0
61.595 141.0
61.61 140.0
61.625 139.0
61.64 138.0
61.655 134.0
61.67 151.0
61.685 138.0
61.7 150.0
61.715 139.0
61.73 148.0
61.745 135.0
61.76 150.0
61.775 147.0
61.79 155.0
61.805 153.0
61.82 142.0
61.835 141.0
61.85 141.0
61.865 145.0
61.88 127.0
61.895 143.0
61.91 132.0
61.925 133.0
61.94 142.0
61.955 141.0
61.97 138.0
61.985 134.0
