2.00000 1.000
2.01500 3.000
2.03000 2.000
2.04500 2.000
2.06000 3.000
2.07500 3.000
2.09000 1.000
2.10500 1.000
2.12000 1.000
2.13500 2.000
2.15000 3.000
2.16500 3.000
2.18000 5.000
2.19500 5.000
2.21000 3.000
2.22500 1.000
2.24000 2.000
2.25500 1.000
2.27000 1.000
2.28500 2.000
2.30000 3.000
2.31500 4.000
2.33000 1.000
2.34500 1.000
2.36000 1.000
2.37500 2.000
2.39000 2.000
2.40500 2.000
2.42000 1.000
2.43500 0.000
2.45000 1.000
2.46500 1.000
2.48000 0.000
2.49500 1.000
2.51000 1.000
2.52500 1.000
2.54000 3.000
2.55500 2.000
2.57000 1.000
2.58500 3.000
2.60000 3.000
2.61500 1.000
2.63000 3.000
2.64500 2.000
2.66000 1.000
2.67500 1.000
2.69000 2.000
2.70500 1.000
2.72000 2.000
2.73500 1.000
2.75000 1.000
2.76500 1.000
2.78000 1.000
2.79500 3.000
2.81000 3.000
2.82500 5.000
2.84000 7.000
2.85500 9.000
2.87000 15.000
2.88500 24.000
2.90000 18.000
2.91500 15.000
2.93000 19.000
2.94500 28.000
2.96000 46.000
2.97500 70.000
2.99000 93.000
3.00500 113.000
3.02000 141.000
3.03500 167.000
3.05000 192.000
3.06500 199.000
3.08000 194.000
3.09500 228.000
3.11000 232.000
3.12500 231.000
3.14000 221.000
3.15500 222.000
3.17000 226.000
3.18500 228.000
3.20000 209.000
3.21500 203.000
3.23000 210.000
3.24500 205.000
3.26000 204.000
3.27500 204.000
3.29000 205.000
3.30500 200.000
3.32000 208.000
3.33500 219.000
3.35000 190.000
3.36500 187.000
3.38000 180.000
3.39500 192.000
3.41000 184.000
3.42500 196.000
3.44000 193.000
3.45500 198.000
3.47000 192.000
3.48500 191.000
3.50000 201.000
3.51500 181.000
3.53000 167.000
3.54500 182.000
3.56000 185.000
3.57500 182.000
3.59000 173.000
3.60500 194.000
3.62000 171.000
3.63500 171.000
3.65000 158.000
3.66500 154.000
3.68000 174.000
3.69500 172.000
3.71000 155.000
3.72500 159.000
3.74000 154.000
3.75500 164.000
3.77000 163.000
3.78500 167.000
3.80000 167.000
3.81500 161.000
3.83000 145.000
3.84500 146.000
3.86000 142.000
3.87500 149.000
3.89000 161.000
3.90500 162.000
3.92000 147.000
3.93500 150.000
3.95000 148.000
3.96500 147.000
3.98000 137.000
3.99500 170.000
4.01000 147.000
4.02500 141.000
4.04000 127.000
4.05500 127.000
4.07000 146.000
4.08500 139.000
4.10000 149.000
4.11500 143.000
4.13000 140.000
4.14500 150.000
4.16000 142.000
4.17500 126.000
4.19000 141.000
4.20500 141.000
4.22000 127.000
4.23500 125.000
4.25000 135.000
4.26500 129.000
4.28000 129.000
4.29500 123.000
4.31000 128.000
4.32500 126.000
4.34000 126.000
4.35500 126.000
4.37000 134.000
4.38500 138.000
4.40000 147.000
4.41500 123.000
4.43000 132.000
4.44500 128.000
4.46000 123.000
4.47500 124.000
4.49000 134.000
4.50500 132.000
4.52000 126.000
4.53500 114.000
4.55000 112.000
4.56500 125.000
4.58000 142.000
4.59500 131.000
4.61000 121.000
4.62500 124.000
4.64000 112.000
4.65500 115.000
4.67000 132.000
4.68500 119.000
4.70000 116.000
4.71500 112.000
4.73000 117.000
4.74500 114.000
4.76000 127.000
4.77500 131.000
4.79000 115.000
4.80500 126.000
4.82000 128.000
4.83500 125.000
4.85000 128.000
4.86500 117.000
4.88000 107.000
4.89500 103.000
4.91000 105.000
4.92500 116.000
4.94000 123.000
4.95500 115.000
4.97000 135.000
4.98500 126.000
5.00000 124.000
5.01500 119.000
5.03000 121.000
5.04500 112.000
5.06000 109.000
5.07500 107.000
5.09000 104.000
5.10500 109.000
5.12000 113.000
5.13500 119.000
5.15000 114.000
5.16500 116.000
5.18000 112.000
5.19500 128.000
5.21000 98.000
5.22500 101.000
5.24000 122.000
5.25500 112.000
5.27000 115.000
5.28500 126.000
5.30000 113.000
5.31500 109.000
5.33000 110.000
5.34500 118.000
5.36000 122.000
5.37500 111.000
5.39000 112.000
5.40500 97.000
5.42000 97.000
5.43500 106.000
5.45000 105.000
5.46500 99.000
5.48000 107.000
5.49500 106.000
5.51000 107.000
5.52500 106.000
5.54000 116.000
5.55500 101.000
5.57000 127.000
5.58500 133.000
5.60000 113.000
5.61500 111.000
5.63000 122.000
5.64500 124.000
5.66000 114.000
5.67500 107.000
5.69000 119.000
5.70500 92.000
5.72000 113.000
5.73500 122.000
5.75000 106.000
5.76500 124.000
5.78000 109.000
5.79500 117.000
5.81000 114.000
5.82500 116.000
5.84000 103.000
5.85500 128.000
5.87000 117.000
5.88500 110.000
5.90000 127.000
5.91500 115.000
5.93000 112.000
5.94500 103.000
5.96000 120.000
5.97500 111.000
5.99000 114.000
6.00500 112.000
6.02000 115.000
6.03500 108.000
6.05000 114.000
6.06500 137.000
6.08000 114.000
6.09500 129.000
6.11000 118.000
6.12500 124.000
6.14000 123.000
6.15500 132.000
6.17000 125.000
6.18500 102.000
6.20000 110.000
6.21500 114.000
6.23000 115.000
6.24500 124.000
6.26000 119.000
6.27500 132.000
6.29000 137.000
6.30500 145.000
6.32000 135.000
6.33500 139.000
6.35000 133.000
6.36500 132.000
6.38000 137.000
6.39500 118.000
6.41000 129.000
6.42500 102.000
6.44000 114.000
6.45500 136.000
6.47000 121.000
6.48500 117.000
6.50000 121.000
6.51500 125.000
6.53000 123.000
6.54500 108.000
6.56000 101.000
6.57500 110.000
6.59000 104.000
6.60500 108.000
6.62000 112.000
6.63500 107.000
6.65000 98.000
6.66500 119.000
6.68000 110.000
6.69500 116.000
6.71000 126.000
6.72500 134.000
6.74000 119.000
6.75500 99.000
6.77000 129.000
6.78500 108.000
6.80000 102.000
6.81500 121.000
6.83000 128.000
6.84500 115.000
6.86000 112.000
6.87500 108.000
6.89000 114.000
6.90500 112.000
6.92000 116.000
6.93500 124.000
6.95000 124.000
6.96500 121.000
6.98000 112.000
6.99500 130.000
7.01000 146.000
7.02500 145.000
7.04000 147.000
7.05500 156.000
7.07000 172.000
7.08500 177.000
7.10000 164.000
7.11500 194.000
7.13000 212.000
7.14500 232.000
7.16000 255.000
7.17500 315.000
7.19000 346.000
7.20500 364.000
7.22000 432.000
7.23500 488.000
7.25000 552.000
7.26500 659.000
7.28000 847.000
7.29500 1036.000
7.31000 1049.000
7.32500 852.000
7.34000 504.000
7.35500 250.000
7.37000 167.000
7.38500 151.000
7.40000 133.000
7.41500 110.000
7.43000 97.000
7.44500 110.000
7.46000 109.000
7.47500 108.000
7.49000 126.000
7.50500 124.000
7.52000 112.000
7.53500 110.000
7.55000 124.000
7.56500 125.000
7.58000 122.000
7.59500 113.000
7.61000 116.000
7.62500 119.000
7.64000 105.000
7.65500 110.000
7.67000 101.000
7.68500 112.000
7.70000 108.000
7.71500 117.000
7.73000 113.000
7.74500 110.000
7.76000 111.000
7.77500 106.000
7.79000 94.000
7.80500 106.000
7.82000 120.000
7.83500 120.000
7.85000 105.000
7.86500 121.000
7.88000 114.000
7.89500 133.000
7.91000 118.000
7.92500 109.000
7.94000 113.000
7.95500 106.000
7.97000 114.000
7.98500 101.000
8.00000 113.000
8.01500 122.000
8.03000 105.000
8.04500 110.000
8.06000 121.000
8.07500 101.000
8.09000 108.000
8.10500 120.000
8.12000 117.000
8.13500 130.000
8.15000 124.000
8.16500 119.000
8.18000 113.000
8.19500 121.000
8.21000 115.000
8.22500 96.000
8.24000 109.000
8.25500 116.000
8.27000 105.000
8.28500 110.000
8.30000 109.000
8.31500 111.000
8.33000 105.000
8.34500 98.000
8.36000 103.000
8.37500 105.000
8.39000 115.000
8.40500 102.000
8.42000 112.000
8.43500 117.000
8.45000 109.000
8.46500 112.000
8.48000 116.000
8.49500 130.000
8.51000 112.000
8.52500 109.000
8.54000 122.000
8.55500 125.000
8.57000 116.000
8.58500 104.000
8.60000 97.000
8.61500 120.000
8.63000 121.000
8.64500 117.000
8.66000 138.000
8.67500 131.000
8.69000 122.000
8.70500 120.000
8.72000 113.000
8.73500 103.000
8.75000 121.000
8.76500 128.000
8.78000 117.000
8.79500 102.000
8.81000 112.000
8.82500 119.000
8.84000 117.000
8.85500 115.000
8.87000 104.000
8.88500 102.000
8.90000 117.000
8.91500 116.000
8.93000 113.000
8.94500 115.000
8.96000 120.000
8.97500 113.000
8.99000 109.000
9.00500 98.000
9.02000 106.000
9.03500 112.000
9.05000 105.000
9.06500 101.000
9.08000 98.000
9.09500 96.000
9.11000 120.000
9.12500 107.000
9.14000 106.000
9.15500 105.000
9.17000 104.000
9.18500 104.000
9.20000 78.000
9.21500 96.000
9.23000 132.000
9.24500 112.000
9.26000 109.000
9.27500 106.000
9.29000 104.000
9.30500 115.000
9.32000 109.000
9.33500 113.000
9.35000 119.000
9.36500 111.000
9.38000 122.000
9.39500 121.000
9.41000 112.000
9.42500 98.000
9.44000 121.000
9.45500 105.000
9.47000 107.000
9.48500 120.000
9.50000 109.000
9.51500 113.000
9.53000 107.000
9.54500 117.000
9.56000 122.000
9.57500 113.000
9.59000 111.000
9.60500 116.000
9.62000 129.000
9.63500 121.000
9.65000 114.000
9.66500 109.000
9.68000 108.000
9.69500 99.000
9.71000 132.000
9.72500 108.000
9.74000 102.000
9.75500 99.000
9.77000 102.000
9.78500 106.000
9.80000 90.000
9.81500 95.000
9.83000 106.000
9.84500 106.000
9.86000 115.000
9.87500 100.000
9.89000 109.000
9.90500 120.000
9.92000 122.000
9.93500 118.000
9.95000 127.000
9.96500 111.000
9.98000 127.000
9.99500 125.000
10.01000 132.000
10.02500 130.000
10.04000 134.000
10.05500 125.000
10.07000 162.000
10.08500 179.000
10.10000 181.000
10.11500 192.000
10.13000 216.000
10.14500 263.000
10.16000 256.000
10.17500 318.000
10.19000 343.000
10.20500 404.000
10.22000 479.000
10.23500 556.000
10.25000 700.000
10.26500 865.000
10.28000 1102.000
10.29500 1344.000
10.31000 1782.000
10.32500 2161.000
10.34000 2039.000
10.35500 1482.000
10.37000 832.000
10.38500 447.000
10.40000 235.000
10.41500 178.000
10.43000 167.000
10.44500 168.000
10.46000 129.000
10.47500 132.000
10.49000 143.000
10.50500 131.000
10.52000 132.000
10.53500 124.000
10.55000 112.000
10.56500 105.000
10.58000 121.000
10.59500 114.000
10.61000 128.000
10.62500 104.000
10.64000 109.000
10.65500 114.000
10.67000 116.000
10.68500 126.000
10.70000 114.000
10.71500 134.000
10.73000 118.000
10.74500 117.000
10.76000 99.000
10.77500 93.000
10.79000 96.000
10.80500 117.000
10.82000 98.000
10.83500 97.000
10.85000 105.000
10.86500 114.000
10.88000 124.000
10.89500 110.000
10.91000 114.000
10.92500 127.000
10.94000 111.000
10.95500 105.000
10.97000 114.000
10.98500 111.000
11.00000 130.000
11.01500 101.000
11.03000 117.000
11.04500 122.000
11.06000 104.000
11.07500 98.000
11.09000 110.000
11.10500 113.000
11.12000 117.000
11.13500 108.000
11.15000 112.000
11.16500 105.000
11.18000 116.000
11.19500 104.000
11.21000 103.000
11.22500 111.000
11.24000 123.000
11.25500 107.000
11.27000 115.000
11.28500 127.000
11.30000 99.000
11.31500 102.000
11.33000 102.000
11.34500 106.000
11.36000 105.000
11.37500 110.000
11.39000 112.000
11.40500 94.000
11.42000 112.000
11.43500 108.000
11.45000 103.000
11.46500 115.000
11.48000 123.000
11.49500 131.000
11.51000 121.000
11.52500 118.000
11.54000 122.000
11.55500 106.000
11.57000 117.000
11.58500 125.000
11.60000 129.000
11.61500 105.000
11.63000 85.000
11.64500 101.000
11.66000 96.000
11.67500 102.000
11.69000 115.000
11.70500 111.000
11.72000 116.000
11.73500 120.000
11.75000 115.000
11.76500 105.000
11.78000 102.000
11.79500 100.000
11.81000 110.000
11.82500 124.000
11.84000 128.000
11.85500 133.000
11.87000 122.000
11.88500 121.000
11.90000 127.000
11.91500 139.000
11.93000 124.000
11.94500 121.000
11.96000 130.000
11.97500 124.000
11.99000 129.000
12.00500 135.000
12.02000 122.000
12.03500 148.000
12.05000 157.000
12.06500 151.000
12.08000 138.000
12.09500 152.000
12.11000 153.000
12.12500 157.000
12.14000 153.000
12.15500 146.000
12.17000 149.000
12.18500 136.000
12.20000 113.000
12.21500 130.000
12.23000 124.000
12.24500 129.000
12.26000 132.000
12.27500 123.000
12.29000 109.000
12.30500 115.000
12.32000 124.000
12.33500 123.000
12.35000 117.000
12.36500 128.000
12.38000 133.000
12.39500 120.000
12.41000 143.000
12.42500 136.000
12.44000 159.000
12.45500 150.000
12.47000 191.000
12.48500 204.000
12.50000 221.000
12.51500 256.000
12.53000 299.000
12.54500 357.000
12.56000 445.000
12.57500 537.000
12.59000 663.000
12.60500 833.000
12.62000 1070.000
12.63500 1409.000
12.65000 1750.000
12.66500 1796.000
12.68000 1415.000
12.69500 820.000
12.71000 438.000
12.72500 253.000
12.74000 177.000
12.75500 161.000
12.77000 148.000
12.78500 150.000
12.80000 137.000
12.81500 120.000
12.83000 126.000
12.84500 126.000
12.86000 116.000
12.87500 115.000
12.89000 114.000
12.90500 123.000
12.92000 113.000
12.93500 116.000
12.95000 119.000
12.96500 107.000
12.98000 114.000
12.99500 114.000
13.01000 102.000
13.02500 111.000
13.04000 109.000
13.05500 114.000
13.07000 113.000
13.08500 115.000
13.10000 119.000
13.11500 108.000
13.13000 113.000
13.14500 108.000
13.16000 107.000
13.17500 121.000
13.19000 123.000
13.20500 109.000
13.22000 115.000
13.23500 123.000
13.25000 105.000
13.26500 107.000
13.28000 116.000
13.29500 121.000
13.31000 115.000
13.32500 123.000
13.34000 107.000
13.35500 105.000
13.37000 104.000
13.38500 103.000
13.40000 101.000
13.41500 105.000
13.43000 104.000
13.44500 97.000
13.46000 109.000
13.47500 124.000
13.49000 112.000
13.50500 95.000
13.52000 94.000
13.53500 106.000
13.55000 113.000
13.56500 107.000
13.58000 105.000
13.59500 110.000
13.61000 118.000
13.62500 117.000
13.64000 114.000
13.65500 129.000
13.67000 112.000
13.68500 108.000
13.70000 104.000
13.71500 116.000
13.73000 110.000
13.74500 92.000
13.76000 99.000
13.77500 114.000
13.79000 106.000
13.80500 110.000
13.82000 110.000
13.83500 112.000
13.85000 105.000
13.86500 94.000
13.88000 101.000
13.89500 105.000
13.91000 106.000
13.92500 100.000
13.94000 118.000
13.95500 96.000
13.97000 114.000
13.98500 109.000
14.00000 100.000
14.01500 115.000
14.03000 111.000
14.04500 107.000
14.06000 107.000
14.07500 104.000
14.09000 111.000
14.10500 104.000
14.12000 107.000
14.13500 103.000
14.15000 90.000
14.16500 113.000
14.18000 109.000
14.19500 106.000
14.21000 104.000
14.22500 97.000
14.24000 109.000
14.25500 120.000
14.27000 107.000
14.28500 134.000
14.30000 102.000
14.31500 98.000
14.33000 103.000
14.34500 117.000
14.36000 104.000
14.37500 111.000
14.39000 128.000
14.40500 125.000
14.42000 112.000
14.43500 129.000
14.45000 134.000
14.46500 130.000
14.48000 120.000
14.49500 125.000
14.51000 121.000
14.52500 144.000
14.54000 143.000
14.55500 157.000
14.57000 166.000
14.58500 179.000
14.60000 220.000
14.61500 221.000
14.63000 214.000
14.64500 197.000
14.66000 156.000
14.67500 153.000
14.69000 113.000
14.70500 111.000
14.72000 102.000
14.73500 124.000
14.75000 132.000
14.76500 141.000
14.78000 123.000
14.79500 133.000
14.81000 112.000
14.82500 109.000
14.84000 114.000
14.85500 109.000
14.87000 106.000
14.88500 113.000
14.90000 112.000
14.91500 114.000
14.93000 117.000
14.94500 104.000
14.96000 114.000
14.97500 138.000
14.99000 137.000
15.00500 110.000
15.02000 108.000
15.03500 118.000
15.05000 116.000
15.06500 113.000
15.08000 113.000
15.09500 132.000
15.11000 131.000
15.12500 112.000
15.14000 116.000
15.15500 112.000
15.17000 119.000
15.18500 117.000
15.20000 108.000
15.21500 109.000
15.23000 122.000
15.24500 111.000
15.26000 111.000
15.27500 103.000
15.29000 124.000
15.30500 118.000
15.32000 108.000
15.33500 132.000
15.35000 111.000
15.36500 107.000
15.38000 118.000
15.39500 107.000
15.41000 121.000
15.42500 105.000
15.44000 122.000
15.45500 121.000
15.47000 115.000
15.48500 137.000
15.50000 106.000
15.51500 118.000
15.53000 114.000
15.54500 99.000
15.56000 105.000
15.57500 104.000
15.59000 131.000
15.60500 122.000
15.62000 119.000
15.63500 117.000
15.65000 117.000
15.66500 109.000
15.68000 97.000
15.69500 110.000
15.71000 115.000
15.72500 122.000
15.74000 124.000
15.75500 128.000
15.77000 128.000
15.78500 118.000
15.80000 119.000
15.81500 115.000
15.83000 114.000
15.84500 106.000
15.86000 110.000
15.87500 120.000
15.89000 140.000
15.90500 138.000
15.92000 118.000
15.93500 120.000
15.95000 112.000
15.96500 126.000
15.98000 117.000
15.99500 118.000
16.01000 120.000
16.02500 121.000
16.04000 127.000
16.05500 120.000
16.07000 129.000
16.08500 108.000
16.10000 114.000
16.11500 111.000
16.13000 120.000
16.14500 116.000
16.16000 128.000
16.17500 125.000
16.19000 139.000
16.20500 136.000
16.22000 134.000
16.23500 156.000
16.25000 172.000
16.26500 193.000
16.28000 206.000
16.29500 229.000
16.31000 296.000
16.32500 328.000
16.34000 390.000
16.35500 487.000
16.37000 506.000
16.38500 374.000
16.40000 295.000
16.41500 184.000
16.43000 122.000
16.44500 129.000
16.46000 132.000
16.47500 126.000
16.49000 121.000
16.50500 123.000
16.52000 124.000
16.53500 120.000
16.55000 111.000
16.56500 124.000
16.58000 125.000
16.59500 135.000
16.61000 123.000
16.62500 119.000
16.64000 111.000
16.65500 107.000
16.67000 121.000
16.68500 130.000
16.70000 119.000
16.71500 119.000
16.73000 125.000
16.74500 110.000
16.76000 120.000
16.77500 130.000
16.79000 121.000
16.80500 119.000
16.82000 105.000
16.83500 109.000
16.85000 100.000
16.86500 100.000
16.88000 113.000
16.89500 131.000
16.91000 126.000
16.92500 101.000
16.94000 121.000
16.95500 138.000
16.97000 129.000
16.98500 110.000
17.00000 113.000
17.01500 119.000
17.03000 102.000
17.04500 118.000
17.06000 125.000
17.07500 117.000
17.09000 112.000
17.10500 115.000
17.12000 110.000
17.13500 122.000
17.15000 119.000
17.16500 109.000
17.18000 119.000
17.19500 114.000
17.21000 124.000
17.22500 126.000
17.24000 117.000
17.25500 132.000
17.27000 138.000
17.28500 130.000
17.30000 121.000
17.31500 103.000
17.33000 110.000
17.34500 121.000
17.36000 116.000
17.37500 112.000
17.39000 126.000
17.40500 131.000
17.42000 137.000
17.43500 129.000
17.45000 128.000
17.46500 118.000
17.48000 121.000
17.49500 117.000
17.51000 120.000
17.52500 117.000
17.54000 130.000
17.55500 141.000
17.57000 117.000
17.58500 117.000
17.60000 129.000
17.61500 113.000
17.63000 133.000
17.64500 129.000
17.66000 132.000
17.67500 111.000
17.69000 113.000
17.70500 115.000
17.72000 110.000
17.73500 124.000
17.75000 127.000
17.76500 122.000
17.78000 128.000
17.79500 113.000
17.81000 132.000
17.82500 119.000
17.84000 138.000
17.85500 127.000
17.87000 145.000
17.88500 147.000
17.90000 147.000
17.91500 143.000
17.93000 150.000
17.94500 133.000
17.96000 125.000
17.97500 122.000
17.99000 120.000
18.00500 136.000
18.02000 118.000
18.03500 122.000
18.05000 125.000
18.06500 124.000
18.08000 105.000
18.09500 125.000
18.11000 137.000
18.12500 112.000
18.14000 122.000
18.15500 121.000
18.17000 111.000
18.18500 133.000
18.20000 137.000
18.21500 122.000
18.23000 125.000
18.24500 131.000
18.26000 128.000
18.27500 112.000
18.29000 116.000
18.30500 124.000
18.32000 128.000
18.33500 140.000
18.35000 115.000
18.36500 125.000
18.38000 128.000
18.39500 112.000
18.41000 119.000
18.42500 127.000
18.44000 137.000
18.45500 144.000
18.47000 127.000
18.48500 129.000
18.50000 121.000
18.51500 127.000
18.53000 121.000
18.54500 120.000
18.56000 122.000
18.57500 121.000
18.59000 146.000
18.60500 119.000
18.62000 113.000
18.63500 122.000
18.65000 129.000
18.66500 122.000
18.68000 126.000
18.69500 134.000
18.71000 136.000
18.72500 155.000
18.74000 149.000
18.75500 133.000
18.77000 134.000
18.78500 148.000
18.80000 145.000
18.81500 136.000
18.83000 147.000
18.84500 144.000
18.86000 131.000
18.87500 127.000
18.89000 142.000
18.90500 138.000
18.92000 137.000
18.93500 139.000
18.95000 134.000
18.96500 142.000
18.98000 138.000
18.99500 175.000
19.01000 160.000
19.02500 160.000
19.04000 152.000
19.05500 152.000
19.07000 142.000
19.08500 143.000
19.10000 149.000
19.11500 127.000
19.13000 122.000
19.14500 121.000
19.16000 129.000
19.17500 128.000
19.19000 131.000
19.20500 129.000
19.22000 136.000
19.23500 123.000
19.25000 124.000
19.26500 124.000
19.28000 135.000
19.29500 130.000
19.31000 127.000
19.32500 138.000
19.34000 147.000
19.35500 147.000
19.37000 131.000
19.38500 131.000
19.40000 120.000
19.41500 130.000
19.43000 127.000
19.44500 147.000
19.46000 134.000
19.47500 123.000
19.49000 119.000
19.50500 131.000
19.52000 149.000
19.53500 131.000
19.55000 128.000
19.56500 141.000
19.58000 138.000
19.59500 153.000
19.61000 150.000
19.62500 159.000
19.64000 130.000
19.65500 120.000
19.67000 140.000
19.68500 152.000
19.70000 155.000
19.71500 162.000
19.73000 152.000
19.74500 147.000
19.76000 135.000
19.77500 138.000
19.79000 165.000
19.80500 143.000
19.82000 141.000
19.83500 157.000
19.85000 157.000
19.86500 149.000
19.88000 159.000
19.89500 169.000
19.91000 146.000
19.92500 139.000
19.94000 132.000
19.95500 124.000
19.97000 135.000
19.98500 134.000
20.00000 140.000
20.01500 145.000
20.03000 139.000
20.04500 141.000
20.06000 140.000
20.07500 132.000
20.09000 137.000
20.10500 149.000
20.12000 137.000
20.13500 141.000
20.15000 147.000
20.16500 146.000
20.18000 145.000
20.19500 168.000
20.21000 134.000
20.22500 163.000
20.24000 165.000
20.25500 147.000
20.27000 154.000
20.28500 151.000
20.30000 131.000
20.31500 137.000
20.33000 137.000
20.34500 141.000
20.36000 133.000
20.37500 135.000
20.39000 142.000
20.40500 145.000
20.42000 133.000
20.43500 160.000
20.45000 148.000
20.46500 152.000
20.48000 156.000
20.49500 134.000
20.51000 144.000
20.52500 151.000
20.54000 145.000
20.55500 146.000
20.57000 134.000
20.58500 152.000
20.60000 156.000
20.61500 163.000
20.63000 163.000
20.64500 160.000
20.66000 157.000
20.67500 178.000
20.69000 188.000
20.70500 171.000
20.72000 204.000
20.73500 207.000
20.75000 199.000
20.76500 218.000
20.78000 187.000
20.79500 189.000
20.81000 179.000
20.82500 188.000
20.84000 194.000
20.85500 207.000
20.87000 182.000
20.88500 187.000
20.90000 184.000
20.91500 159.000
20.93000 165.000
20.94500 170.000
20.96000 172.000
20.97500 189.000
20.99000 170.000
21.00500 180.000
21.02000 187.000
21.03500 155.000
21.05000 157.000
21.06500 167.000
21.08000 159.000
21.09500 173.000
21.11000 159.000
21.12500 174.000
21.14000 195.000
21.15500 183.000
21.17000 166.000
21.18500 150.000
21.20000 153.000
21.21500 154.000
21.23000 149.000
21.24500 149.000
21.26000 162.000
21.27500 153.000
21.29000 167.000
21.30500 158.000
21.32000 162.000
21.33500 146.000
21.35000 168.000
21.36500 160.000
21.38000 162.000
21.39500 153.000
21.41000 164.000
21.42500 150.000
21.44000 143.000
21.45500 156.000
21.47000 161.000
21.48500 151.000
21.50000 157.000
21.51500 164.000
21.53000 169.000
21.54500 169.000
21.56000 192.000
21.57500 177.000
21.59000 205.000
21.60500 219.000
21.62000 243.000
21.63500 284.000
21.65000 323.000
21.66500 353.000
21.68000 368.000
21.69500 372.000
21.71000 309.000
21.72500 287.000
21.74000 249.000
21.75500 248.000
21.77000 231.000
21.78500 196.000
21.80000 211.000
21.81500 228.000
21.83000 203.000
21.84500 225.000
21.86000 213.000
21.87500 243.000
21.89000 300.000
21.90500 354.000
21.92000 401.000
21.93500 507.000
21.95000 611.000
21.96500 817.000
21.98000 1087.000
21.99500 1297.000
22.01000 1337.000
22.02500 1235.000
22.04000 913.000
22.05500 592.000
22.07000 412.000
22.08500 287.000
22.10000 241.000
22.11500 198.000
22.13000 164.000
22.14500 174.000
22.16000 189.000
22.17500 181.000
22.19000 182.000
22.20500 173.000
22.22000 161.000
22.23500 162.000
22.25000 174.000
22.26500 178.000
22.28000 146.000
22.29500 158.000
22.31000 144.000
22.32500 160.000
22.34000 163.000
22.35500 161.000
22.37000 155.000
22.38500 167.000
22.40000 162.000
22.41500 140.000
22.43000 150.000
22.44500 157.000
22.46000 172.000
22.47500 154.000
22.49000 164.000
22.50500 167.000
22.52000 155.000
22.53500 155.000
22.55000 136.000
22.56500 153.000
22.58000 135.000
22.59500 143.000
22.61000 149.000
22.62500 149.000
22.64000 155.000
22.65500 156.000
22.67000 155.000
22.68500 151.000
22.70000 156.000
22.71500 156.000
22.73000 149.000
22.74500 157.000
22.76000 137.000
22.77500 134.000
22.79000 149.000
22.80500 157.000
22.82000 151.000
22.83500 143.000
22.85000 138.000
22.86500 157.000
22.88000 156.000
22.89500 160.000
22.91000 149.000
22.92500 143.000
22.94000 166.000
22.95500 162.000
22.97000 154.000
22.98500 142.000
23.00000 164.000
23.01500 163.000
23.03000 162.000
23.04500 177.000
23.06000 177.000
23.07500 174.000
23.09000 182.000
23.10500 203.000
23.12000 229.000
23.13500 232.000
23.15000 251.000
23.16500 297.000
23.18000 355.000
23.19500 403.000
23.21000 445.000
23.22500 433.000
23.24000 337.000
23.25500 262.000
23.27000 226.000
23.28500 180.000
23.30000 191.000
23.31500 185.000
23.33000 157.000
23.34500 162.000
23.36000 164.000
23.37500 148.000
23.39000 150.000
23.40500 144.000
23.42000 159.000
23.43500 147.000
23.45000 167.000
23.46500 169.000
23.48000 156.000
23.49500 152.000
23.51000 177.000
23.52500 155.000
23.54000 153.000
23.55500 166.000
23.57000 154.000
23.58500 151.000
23.60000 154.000
23.61500 143.000
23.63000 167.000
23.64500 150.000
23.66000 147.000
23.67500 150.000
23.69000 158.000
23.70500 150.000
23.72000 148.000
23.73500 138.000
23.75000 157.000
23.76500 155.000
23.78000 146.000
23.79500 163.000
23.81000 159.000
23.82500 166.000
23.84000 170.000
23.85500 166.000
23.87000 178.000
23.88500 170.000
23.90000 186.000
23.91500 177.000
23.93000 163.000
23.94500 162.000
23.96000 186.000
23.97500 186.000
23.99000 184.000
24.00500 196.000
24.02000 203.000
24.03500 209.000
24.05000 235.000
24.06500 238.000
24.08000 245.000
24.09500 225.000
24.11000 228.000
24.12500 214.000
24.14000 214.000
24.15500 218.000
24.17000 227.000
24.18500 225.000
24.20000 251.000
24.21500 271.000
24.23000 324.000
24.24500 377.000
24.26000 499.000
24.27500 594.000
24.29000 768.000
24.30500 1003.000
24.32000 1422.000
24.33500 1900.000
24.35000 2193.000
24.36500 2340.000
24.38000 2067.000
24.39500 1591.000
24.41000 1053.000
24.42500 652.000
24.44000 463.000
24.45500 323.000
24.47000 273.000
24.48500 245.000
24.50000 199.000
24.51500 209.000
24.53000 189.000
24.54500 182.000
24.56000 190.000
24.57500 195.000
24.59000 172.000
24.60500 160.000
24.62000 175.000
24.63500 179.000
24.65000 164.000
24.66500 189.000
24.68000 167.000
24.69500 160.000
24.71000 167.000
24.72500 176.000
24.74000 176.000
24.75500 169.000
24.77000 159.000
24.78500 174.000
24.80000 172.000
24.81500 166.000
24.83000 161.000
24.84500 159.000
24.86000 172.000
24.87500 148.000
24.89000 154.000
24.90500 147.000
24.92000 176.000
24.93500 168.000
24.95000 153.000
24.96500 149.000
24.98000 170.000
24.99500 157.000
25.01000 168.000
25.02500 158.000
25.04000 176.000
25.05500 158.000
25.07000 152.000
25.08500 160.000
25.10000 157.000
25.11500 158.000
25.13000 163.000
25.14500 157.000
25.16000 186.000
25.17500 157.000
25.19000 171.000
25.20500 160.000
25.22000 165.000
25.23500 177.000
25.25000 167.000
25.26500 163.000
25.28000 150.000
25.29500 180.000
25.31000 159.000
25.32500 180.000
25.34000 167.000
25.35500 156.000
25.37000 185.000
25.38500 163.000
25.40000 171.000
25.41500 167.000
25.43000 163.000
25.44500 162.000
25.46000 145.000
25.47500 147.000
25.49000 159.000
25.50500 155.000
25.52000 169.000
25.53500 151.000
25.55000 148.000
25.56500 162.000
25.58000 168.000
25.59500 161.000
25.61000 143.000
25.62500 155.000
25.64000 173.000
25.65500 162.000
25.67000 153.000
25.68500 163.000
25.70000 177.000
25.71500 166.000
25.73000 170.000
25.74500 159.000
25.76000 165.000
25.77500 159.000
25.79000 164.000
25.80500 152.000
25.82000 165.000
25.83500 154.000
25.85000 157.000
25.86500 182.000
25.88000 176.000
25.89500 159.000
25.91000 166.000
25.92500 148.000
25.94000 158.000
25.95500 181.000
25.97000 154.000
25.98500 161.000
26.00000 171.000
26.01500 182.000
26.03000 171.000
26.04500 190.000
26.06000 185.000
26.07500 193.000
26.09000 174.000
26.10500 172.000
26.12000 160.000
26.13500 188.000
26.15000 227.000
26.16500 222.000
26.18000 222.000
26.19500 224.000
26.21000 236.000
26.22500 241.000
26.24000 255.000
26.25500 260.000
26.27000 255.000
26.28500 269.000
26.30000 299.000
26.31500 261.000
26.33000 252.000
26.34500 241.000
26.36000 273.000
26.37500 292.000
26.39000 324.000
26.40500 354.000
26.42000 387.000
26.43500 463.000
26.45000 537.000
26.46500 762.000
26.48000 968.000
26.49500 1292.000
26.51000 1504.000
26.52500 1597.000
26.54000 1386.000
26.55500 1149.000
26.57000 866.000
26.58500 670.000
26.60000 508.000
26.61500 495.000
26.63000 504.000
26.64500 468.000
26.66000 428.000
26.67500 415.000
26.69000 337.000
26.70500 269.000
26.72000 256.000
26.73500 241.000
26.75000 222.000
26.76500 232.000
26.78000 215.000
26.79500 218.000
26.81000 204.000
26.82500 199.000
26.84000 193.000
26.85500 200.000
26.87000 191.000
26.88500 186.000
26.90000 199.000
26.91500 182.000
26.93000 168.000
26.94500 183.000
26.96000 197.000
26.97500 201.000
26.99000 177.000
27.00500 171.000
27.02000 168.000
27.03500 170.000
27.05000 183.000
27.06500 194.000
27.08000 180.000
27.09500 166.000
27.11000 178.000
27.12500 172.000
27.14000 174.000
27.15500 204.000
27.17000 184.000
27.18500 183.000
27.20000 183.000
27.21500 182.000
27.23000 183.000
27.24500 179.000
27.26000 174.000
27.27500 191.000
27.29000 180.000
27.30500 177.000
27.32000 196.000
27.33500 193.000
27.35000 202.000
27.36500 217.000
27.38000 258.000
27.39500 290.000
27.41000 344.000
27.42500 357.000
27.44000 460.000
27.45500 571.000
27.47000 757.000
27.48500 993.000
27.50000 1353.000
27.51500 1709.000
27.53000 2091.000
27.54500 2130.000
27.56000 1877.000
27.57500 1422.000
27.59000 1006.000
27.60500 630.000
27.62000 401.000
27.63500 326.000
27.65000 281.000
27.66500 267.000
27.68000 227.000
27.69500 194.000
27.71000 202.000
27.72500 215.000
27.74000 183.000
27.75500 177.000
27.77000 185.000
27.78500 203.000
27.80000 183.000
27.81500 176.000
27.83000 173.000
27.84500 177.000
27.86000 173.000
27.87500 153.000
27.89000 169.000
27.90500 166.000
27.92000 161.000
27.93500 180.000
27.95000 169.000
27.96500 159.000
27.98000 152.000
27.99500 153.000
28.01000 160.000
28.02500 181.000
28.04000 165.000
28.05500 157.000
28.07000 160.000
28.08500 169.000
28.10000 160.000
28.11500 177.000
28.13000 184.000
28.14500 173.000
28.16000 166.000
28.17500 177.000
28.19000 168.000
28.20500 181.000
28.22000 183.000
28.23500 185.000
28.25000 165.000
28.26500 183.000
28.28000 197.000
28.29500 195.000
28.31000 183.000
28.32500 181.000
28.34000 185.000
28.35500 175.000
28.37000 175.000
28.38500 183.000
28.40000 194.000
28.41500 181.000
28.43000 167.000
28.44500 162.000
28.46000 173.000
28.47500 171.000
28.49000 192.000
28.50500 169.000
28.52000 161.000
28.53500 156.000
28.55000 166.000
28.56500 182.000
28.58000 182.000
28.59500 170.000
28.61000 165.000
28.62500 155.000
28.64000 159.000
28.65500 175.000
28.67000 163.000
28.68500 159.000
28.70000 166.000
28.71500 172.000
28.73000 159.000
28.74500 188.000
28.76000 178.000
28.77500 183.000
28.79000 176.000
28.80500 167.000
28.82000 196.000
28.83500 179.000
28.85000 168.000
28.86500 165.000
28.88000 171.000
28.89500 189.000
28.91000 189.000
28.92500 192.000
28.94000 186.000
28.95500 163.000
28.97000 185.000
28.98500 182.000
29.00000 175.000
29.01500 189.000
29.03000 191.000
29.04500 192.000
29.06000 173.000
29.07500 204.000
29.09000 202.000
29.10500 209.000
29.12000 188.000
29.13500 199.000
29.15000 203.000
29.16500 192.000
29.18000 197.000
29.19500 205.000
29.21000 220.000
29.22500 222.000
29.24000 216.000
29.25500 190.000
29.27000 204.000
29.28500 230.000
29.30000 204.000
29.31500 195.000
29.33000 202.000
29.34500 245.000
29.36000 233.000
29.37500 241.000
29.39000 258.000
29.40500 271.000
29.42000 255.000
29.43500 336.000
29.45000 376.000
29.46500 434.000
29.48000 429.000
29.49500 427.000
29.51000 373.000
29.52500 294.000
29.54000 233.000
29.55500 227.000
29.57000 227.000
29.58500 192.000
29.60000 209.000
29.61500 196.000
29.63000 195.000
29.64500 199.000
29.66000 170.000
29.67500 193.000
29.69000 180.000
29.70500 160.000
29.72000 157.000
29.73500 161.000
29.75000 182.000
29.76500 195.000
29.78000 182.000
29.79500 174.000
29.81000 158.000
29.82500 178.000
29.84000 174.000
29.85500 177.000
29.87000 167.000
29.88500 182.000
29.90000 170.000
29.91500 154.000
29.93000 177.000
29.94500 168.000
29.96000 158.000
29.97500 169.000
29.99000 166.000
30.00500 177.000
30.02000 168.000
30.03500 176.000
30.05000 172.000
30.06500 183.000
30.08000 175.000
30.09500 182.000
30.11000 202.000
30.12500 208.000
30.14000 210.000
30.15500 241.000
30.17000 250.000
30.18500 254.000
30.20000 260.000
30.21500 248.000
30.23000 290.000
30.24500 314.000
30.26000 336.000
30.27500 339.000
30.29000 369.000
30.30500 461.000
30.32000 597.000
30.33500 738.000
30.35000 935.000
30.36500 1249.000
30.38000 1727.000
30.39500 1991.000
30.41000 2141.000
30.42500 2000.000
30.44000 1645.000
30.45500 1188.000
30.47000 787.000
30.48500 509.000
30.50000 378.000
30.51500 296.000
30.53000 232.000
30.54500 211.000
30.56000 202.000
30.57500 188.000
30.59000 183.000
30.60500 160.000
30.62000 154.000
30.63500 156.000
30.65000 150.000
30.66500 165.000
30.68000 166.000
30.69500 162.000
30.71000 158.000
30.72500 162.000
30.74000 158.000
30.75500 153.000
30.77000 138.000
30.78500 149.000
30.80000 150.000
30.81500 158.000
30.83000 153.000
30.84500 147.000
30.86000 151.000
30.87500 145.000
30.89000 148.000
30.90500 155.000
30.92000 155.000
30.93500 154.000
30.95000 133.000
30.96500 134.000
30.98000 155.000
30.99500 162.000
31.01000 149.000
31.02500 143.000
31.04000 154.000
31.05500 150.000
31.07000 146.000
31.08500 155.000
31.10000 155.000
31.11500 139.000
31.13000 157.000
31.14500 172.000
31.16000 159.000
31.17500 173.000
31.19000 169.000
31.20500 171.000
31.22000 203.000
31.23500 227.000
31.25000 242.000
31.26500 254.000
31.28000 293.000
31.29500 382.000
31.31000 396.000
31.32500 384.000
31.34000 357.000
31.35500 287.000
31.37000 237.000
31.38500 206.000
31.40000 197.000
31.41500 158.000
31.43000 162.000
31.44500 149.000
31.46000 168.000
31.47500 167.000
31.49000 173.000
31.50500 150.000
31.52000 141.000
31.53500 142.000
31.55000 167.000
31.56500 152.000
31.58000 162.000
31.59500 142.000
31.61000 145.000
31.62500 141.000
31.64000 151.000
31.65500 155.000
31.67000 155.000
31.68500 135.000
31.70000 148.000
31.71500 171.000
31.73000 152.000
31.74500 174.000
31.76000 168.000
31.77500 170.000
31.79000 181.000
31.80500 195.000
31.82000 203.000
31.83500 214.000
31.85000 223.000
31.86500 230.000
31.88000 258.000
31.89500 299.000
31.91000 348.000
31.92500 378.000
31.94000 403.000
31.95500 455.000
31.97000 439.000
31.98500 423.000
32.00000 374.000
32.01500 346.000
32.03000 310.000
32.04500 256.000
32.06000 241.000
32.07500 235.000
32.09000 198.000
32.10500 183.000
32.12000 181.000
32.13500 199.000
32.15000 184.000
32.16500 206.000
32.18000 201.000
32.19500 188.000
32.21000 184.000
32.22500 178.000
32.24000 171.000
32.25500 163.000
32.27000 159.000
32.28500 168.000
32.30000 157.000
32.31500 174.000
32.33000 175.000
32.34500 167.000
32.36000 149.000
32.37500 158.000
32.39000 159.000
32.40500 150.000
32.42000 147.000
32.43500 143.000
32.45000 141.000
32.46500 160.000
32.48000 147.000
32.49500 139.000
32.51000 154.000
32.52500 147.000
32.54000 148.000
32.55500 148.000
32.57000 165.000
32.58500 147.000
32.60000 136.000
32.61500 145.000
32.63000 141.000
32.64500 138.000
32.66000 149.000
32.67500 141.000
32.69000 145.000
32.70500 146.000
32.72000 135.000
32.73500 137.000
32.75000 131.000
32.76500 143.000
32.78000 129.000
32.79500 145.000
32.81000 143.000
32.82500 150.000
32.84000 142.000
32.85500 151.000
32.87000 157.000
32.88500 181.000
32.90000 201.000
32.91500 186.000
32.93000 208.000
32.94500 194.000
32.96000 234.000
32.97500 287.000
32.99000 348.000
33.00500 397.000
33.02000 495.000
33.03500 566.000
33.05000 598.000
33.06500 614.000
33.08000 544.000
33.09500 437.000
33.11000 316.000
33.12500 261.000
33.14000 213.000
33.15500 172.000
33.17000 143.000
33.18500 145.000
33.20000 140.000
33.21500 153.000
33.23000 145.000
33.24500 150.000
33.26000 135.000
33.27500 119.000
33.29000 138.000
33.30500 134.000
33.32000 122.000
33.33500 118.000
33.35000 136.000
33.36500 131.000
33.38000 118.000
33.39500 125.000
33.41000 143.000
33.42500 155.000
33.44000 134.000
33.45500 123.000
33.47000 128.000
33.48500 148.000
33.50000 145.000
33.51500 132.000
33.53000 145.000
33.54500 142.000
33.56000 135.000
33.57500 149.000
33.59000 147.000
33.60500 157.000
33.62000 173.000
33.63500 196.000
33.65000 177.000
33.66500 179.000
33.68000 175.000
33.69500 192.000
33.71000 183.000
33.72500 189.000
33.74000 200.000
33.75500 186.000
33.77000 195.000
33.78500 207.000
33.80000 235.000
33.81500 249.000
33.83000 316.000
33.84500 398.000
33.86000 462.000
33.87500 527.000
33.89000 624.000
33.90500 641.000
33.92000 559.000
33.93500 432.000
33.95000 346.000
33.96500 275.000
33.98000 219.000
33.99500 213.000
34.01000 193.000
34.02500 162.000
34.04000 163.000
34.05500 159.000
34.07000 153.000
34.08500 162.000
34.10000 145.000
34.11500 140.000
34.13000 137.000
34.14500 148.000
34.16000 159.000
34.17500 143.000
34.19000 142.000
34.20500 135.000
34.22000 145.000
34.23500 139.000
34.25000 137.000
34.26500 138.000
34.28000 136.000
34.29500 128.000
34.31000 149.000
34.32500 126.000
34.34000 156.000
34.35500 131.000
34.37000 138.000
34.38500 134.000
34.40000 143.000
34.41500 157.000
34.43000 141.000
34.44500 130.000
34.46000 156.000
34.47500 156.000
34.49000 153.000
34.50500 140.000
34.52000 161.000
34.53500 167.000
34.55000 156.000
34.56500 185.000
34.58000 180.000
34.59500 203.000
34.61000 217.000
34.62500 285.000
34.64000 307.000
34.65500 369.000
34.67000 490.000
34.68500 595.000
34.70000 690.000
34.71500 803.000
34.73000 740.000
34.74500 650.000
34.76000 535.000
34.77500 387.000
34.79000 274.000
34.80500 243.000
34.82000 194.000
34.83500 201.000
34.85000 174.000
34.86500 149.000
34.88000 160.000
34.89500 138.000
34.91000 135.000
34.92500 127.000
34.94000 131.000
34.95500 132.000
34.97000 144.000
34.98500 136.000
35.00000 142.000
35.01500 134.000
35.03000 127.000
35.04500 124.000
35.06000 135.000
35.07500 143.000
35.09000 131.000
35.10500 127.000
35.12000 132.000
35.13500 131.000
35.15000 139.000
35.16500 146.000
35.18000 136.000
35.19500 120.000
35.21000 145.000
35.22500 138.000
35.24000 135.000
35.25500 144.000
35.27000 128.000
35.28500 138.000
35.30000 132.000
35.31500 149.000
35.33000 143.000
35.34500 149.000
35.36000 139.000
35.37500 125.000
35.39000 124.000
35.40500 120.000
35.42000 124.000
35.43500 130.000
35.45000 122.000
35.46500 124.000
35.48000 106.000
35.49500 134.000
35.51000 128.000
35.52500 143.000
35.54000 117.000
35.55500 103.000
35.57000 117.000
35.58500 119.000
35.60000 141.000
35.61500 108.000
35.63000 116.000
35.64500 122.000
35.66000 110.000
35.67500 114.000
35.69000 127.000
35.70500 120.000
35.72000 127.000
35.73500 131.000
35.75000 110.000
35.76500 130.000
35.78000 121.000
35.79500 131.000
35.81000 88.000
35.82500 116.000
35.84000 136.000
35.85500 129.000
35.87000 133.000
35.88500 116.000
35.90000 127.000
35.91500 123.000
35.93000 139.000
35.94500 122.000
35.96000 120.000
35.97500 131.000
35.99000 132.000
36.00500 132.000
36.02000 127.000
36.03500 129.000
36.05000 127.000
36.06500 114.000
36.08000 129.000
36.09500 144.000
36.11000 144.000
36.12500 143.000
36.14000 126.000
36.15500 124.000
36.17000 151.000
36.18500 151.000
36.20000 174.000
36.21500 188.000
36.23000 213.000
36.24500 243.000
36.26000 288.000
36.27500 340.000
36.29000 408.000
36.30500 429.000
36.32000 414.000
36.33500 366.000
36.35000 344.000
36.36500 296.000
36.38000 211.000
36.39500 176.000
36.41000 161.000
36.42500 160.000
36.44000 135.000
36.45500 130.000
36.47000 137.000
36.48500 136.000
36.50000 135.000
36.51500 138.000
36.53000 142.000
36.54500 142.000
36.56000 142.000
36.57500 142.000
36.59000 123.000
36.60500 127.000
36.62000 131.000
36.63500 152.000
36.65000 158.000
36.66500 139.000
36.68000 133.000
36.69500 135.000
36.71000 115.000
36.72500 120.000
36.74000 153.000
36.75500 149.000
36.77000 137.000
36.78500 152.000
36.80000 177.000
36.81500 171.000
36.83000 168.000
36.84500 208.000
36.86000 198.000
36.87500 197.000
36.89000 218.000
36.90500 202.000
36.92000 183.000
36.93500 176.000
36.95000 172.000
36.96500 144.000
36.98000 147.000
36.99500 147.000
37.01000 150.000
37.02500 134.000
37.04000 122.000
37.05500 144.000
37.07000 152.000
37.08500 140.000
37.10000 137.000
37.11500 132.000
37.13000 112.000
37.14500 125.000
37.16000 106.000
37.17500 122.000
37.19000 112.000
37.20500 105.000
37.22000 114.000
37.23500 108.000
37.25000 119.000
37.26500 116.000
37.28000 106.000
37.29500 121.000
37.31000 118.000
37.32500 127.000
37.34000 108.000
37.35500 107.000
37.37000 108.000
37.38500 105.000
37.40000 106.000
37.41500 108.000
37.43000 117.000
37.44500 112.000
37.46000 116.000
37.47500 109.000
37.49000 114.000
37.50500 107.000
37.52000 103.000
37.53500 108.000
37.55000 108.000
37.56500 112.000
37.58000 107.000
37.59500 108.000
37.61000 116.000
37.62500 113.000
37.64000 121.000
37.65500 124.000
37.67000 111.000
37.68500 104.000
37.70000 117.000
37.71500 120.000
37.73000 101.000
37.74500 99.000
37.76000 97.000
37.77500 87.000
37.79000 114.000
37.80500 111.000
37.82000 103.000
37.83500 118.000
37.85000 116.000
37.86500 110.000
37.88000 109.000
37.89500 106.000
37.91000 92.000
37.92500 99.000
37.94000 105.000
37.95500 110.000
37.97000 99.000
37.98500 109.000
38.00000 103.000
38.01500 104.000
38.03000 122.000
38.04500 114.000
38.06000 97.000
38.07500 102.000
38.09000 121.000
38.10500 105.000
38.12000 106.000
38.13500 103.000
38.15000 109.000
38.16500 107.000
38.18000 97.000
38.19500 106.000
38.21000 102.000
38.22500 118.000
38.24000 115.000
38.25500 125.000
38.27000 117.000
38.28500 125.000
38.30000 114.000
38.31500 127.000
38.33000 138.000
38.34500 155.000
38.36000 163.000
38.37500 161.000
38.39000 173.000
38.40500 166.000
38.42000 157.000
38.43500 143.000
38.45000 155.000
38.46500 159.000
38.48000 129.000
38.49500 145.000
38.51000 147.000
38.52500 158.000
38.54000 158.000
38.55500 156.000
38.57000 170.000
38.58500 196.000
38.60000 209.000
38.61500 190.000
38.63000 170.000
38.64500 177.000
38.66000 156.000
38.67500 126.000
38.69000 113.000
38.70500 103.000
38.72000 104.000
38.73500 100.000
38.75000 96.000
38.76500 112.000
38.78000 106.000
38.79500 100.000
38.81000 103.000
38.82500 94.000
38.84000 73.000
38.85500 94.000
38.87000 95.000
38.88500 94.000
38.90000 89.000
38.91500 105.000
38.93000 110.000
38.94500 103.000
38.96000 100.000
38.97500 103.000
38.99000 92.000
39.00500 94.000
39.02000 97.000
39.03500 96.000
39.05000 114.000
39.06500 97.000
39.08000 97.000
39.09500 96.000
39.11000 96.000
39.12500 95.000
39.14000 98.000
39.15500 103.000
39.17000 119.000
39.18500 101.000
39.20000 87.000
39.21500 92.000
39.23000 82.000
39.24500 94.000
39.26000 91.000
39.27500 105.000
39.29000 110.000
39.30500 92.000
39.32000 89.000
39.33500 107.000
39.35000 102.000
39.36500 99.000
39.38000 95.000
39.39500 93.000
39.41000 95.000
39.42500 110.000
39.44000 124.000
39.45500 124.000
39.47000 122.000
39.48500 116.000
39.50000 104.000
39.51500 110.000
39.53000 104.000
39.54500 116.000
39.56000 101.000
39.57500 93.000
39.59000 103.000
39.60500 99.000
39.62000 94.000
39.63500 105.000
39.65000 123.000
39.66500 133.000
39.68000 143.000
39.69500 142.000
39.71000 133.000
39.72500 167.000
39.74000 171.000
39.75500 215.000
39.77000 197.000
39.78500 226.000
39.80000 272.000
39.81500 294.000
39.83000 297.000
39.84500 317.000
39.86000 347.000
39.87500 327.000
39.89000 334.000
39.90500 313.000
39.92000 262.000
39.93500 227.000
39.95000 193.000
39.96500 214.000
39.98000 196.000
39.99500 173.000
40.01000 189.000
40.02500 187.000
40.04000 154.000
40.05500 150.000
40.07000 160.000
40.08500 148.000
40.10000 135.000
40.11500 120.000
40.13000 120.000
40.14500 128.000
40.16000 128.000
40.17500 118.000
40.19000 108.000
40.20500 114.000
40.22000 107.000
40.23500 113.000
40.25000 108.000
40.26500 109.000
40.28000 104.000
40.29500 104.000
40.31000 115.000
40.32500 106.000
40.34000 104.000
40.35500 95.000
40.37000 104.000
40.38500 98.000
40.40000 87.000
40.41500 98.000
40.43000 100.000
40.44500 102.000
40.46000 108.000
40.47500 112.000
40.49000 108.000
40.50500 101.000
40.52000 101.000
40.53500 92.000
40.55000 98.000
40.56500 86.000
40.58000 97.000
40.59500 98.000
40.61000 83.000
40.62500 86.000
40.64000 97.000
40.65500 108.000
40.67000 112.000
40.68500 112.000
40.70000 107.000
40.71500 121.000
40.73000 147.000
40.74500 126.000
40.76000 154.000
40.77500 149.000
40.79000 143.000
40.80500 153.000
40.82000 134.000
40.83500 122.000
40.85000 125.000
40.86500 113.000
40.88000 103.000
40.89500 100.000
40.91000 112.000
40.92500 105.000
40.94000 95.000
40.95500 99.000
40.97000 94.000
40.98500 85.000
41.00000 78.000
41.01500 92.000
41.03000 97.000
41.04500 98.000
41.06000 113.000
41.07500 92.000
41.09000 103.000
41.10500 96.000
41.12000 96.000
41.13500 89.000
41.15000 87.000
41.16500 97.000
41.18000 88.000
41.19500 107.000
41.21000 99.000
41.22500 97.000
41.24000 93.000
41.25500 109.000
41.27000 118.000
41.28500 106.000
41.30000 93.000
41.31500 99.000
41.33000 97.000
41.34500 109.000
41.36000 102.000
41.37500 111.000
41.39000 103.000
41.40500 91.000
41.42000 84.000
41.43500 105.000
41.45000 94.000
41.46500 95.000
41.48000 93.000
41.49500 93.000
41.51000 87.000
41.52500 100.000
41.54000 98.000
41.55500 88.000
41.57000 83.000
41.58500 87.000
41.60000 90.000
41.61500 100.000
41.63000 89.000
41.64500 89.000
41.66000 83.000
41.67500 99.000
41.69000 94.000
41.70500 107.000
41.72000 100.000
41.73500 108.000
41.75000 105.000
41.76500 94.000
41.78000 86.000
41.79500 98.000
41.81000 92.000
41.82500 108.000
41.84000 110.000
41.85500 104.000
41.87000 93.000
41.88500 86.000
41.90000 98.000
41.91500 104.000
41.93000 103.000
41.94500 96.000
41.96000 96.000
41.97500 117.000
41.99000 106.000
42.00500 108.000
42.02000 119.000
42.03500 132.000
42.05000 139.000
42.06500 130.000
42.08000 153.000
42.09500 167.000
42.11000 185.000
42.12500 258.000
42.14000 262.000
42.15500 292.000
42.17000 312.000
42.18500 327.000
42.20000 282.000
42.21500 233.000
42.23000 187.000
42.24500 180.000
42.26000 150.000
42.27500 132.000
42.29000 114.000
42.30500 94.000
42.32000 105.000
42.33500 103.000
42.35000 107.000
42.36500 100.000
42.38000 98.000
42.39500 100.000
42.41000 104.000
42.42500 116.000
42.44000 107.000
42.45500 106.000
42.47000 101.000
42.48500 117.000
42.50000 116.000
42.51500 116.000
42.53000 84.000
42.54500 91.000
42.56000 115.000
42.57500 120.000
42.59000 108.000
42.60500 110.000
42.62000 119.000
42.63500 127.000
42.65000 113.000
42.66500 134.000
42.68000 134.000
42.69500 125.000
42.71000 119.000
42.72500 127.000
42.74000 111.000
42.75500 119.000
42.77000 108.000
42.78500 120.000
42.80000 98.000
42.81500 127.000
42.83000 116.000
42.84500 117.000
42.86000 113.000
42.87500 114.000
42.89000 108.000
42.90500 101.000
42.92000 111.000
42.93500 100.000
42.95000 101.000
42.96500 95.000
42.98000 97.000
42.99500 100.000
43.01000 101.000
43.02500 104.000
43.04000 95.000
43.05500 96.000
43.07000 106.000
43.08500 89.000
43.10000 94.000
43.11500 85.000
43.13000 106.000
43.14500 98.000
43.16000 70.000
43.17500 83.000
43.19000 91.000
43.20500 87.000
43.22000 93.000
43.23500 107.000
43.25000 102.000
43.26500 98.000
43.28000 89.000
43.29500 81.000
43.31000 96.000
43.32500 107.000
43.34000 112.000
43.35500 93.000
43.37000 95.000
43.38500 101.000
43.40000 104.000
43.41500 105.000
43.43000 111.000
43.44500 121.000
43.46000 126.000
43.47500 130.000
43.49000 157.000
43.50500 152.000
43.52000 167.000
43.53500 156.000
43.55000 166.000
43.56500 161.000
43.58000 149.000
43.59500 139.000
43.61000 131.000
43.62500 127.000
43.64000 116.000
43.65500 98.000
43.67000 90.000
43.68500 95.000
43.70000 95.000
43.71500 91.000
43.73000 99.000
43.74500 109.000
43.76000 103.000
43.77500 101.000
43.79000 98.000
43.80500 96.000
43.82000 89.000
43.83500 110.000
43.85000 116.000
43.86500 106.000
43.88000 113.000
43.89500 137.000
43.91000 114.000
43.92500 121.000
43.94000 143.000
43.95500 137.000
43.97000 153.000
43.98500 150.000
44.00000 178.000
44.01500 173.000
44.03000 161.000
44.04500 180.000
44.06000 169.000
44.07500 163.000
44.09000 136.000
44.10500 154.000
44.12000 138.000
44.13500 154.000
44.15000 149.000
44.16500 169.000
44.18000 164.000
44.19500 166.000
44.21000 149.000
44.22500 136.000
44.24000 127.000
44.25500 116.000
44.27000 129.000
44.28500 113.000
44.30000 109.000
44.31500 101.000
44.33000 105.000
44.34500 107.000
44.36000 89.000
44.37500 104.000
44.39000 104.000
44.40500 95.000
44.42000 87.000
44.43500 101.000
44.45000 93.000
44.46500 96.000
44.48000 99.000
44.49500 103.000
44.51000 95.000
44.52500 91.000
44.54000 95.000
44.55500 99.000
44.57000 103.000
44.58500 123.000
44.60000 103.000
44.61500 100.000
44.63000 104.000
44.64500 112.000
44.66000 114.000
44.67500 123.000
44.69000 117.000
44.70500 114.000
44.72000 131.000
44.73500 152.000
44.75000 149.000
44.76500 166.000
44.78000 174.000
44.79500 225.000
44.81000 260.000
44.82500 324.000
44.84000 381.000
44.85500 432.000
44.87000 441.000
44.88500 432.000
44.90000 385.000
44.91500 342.000
44.93000 295.000
44.94500 244.000
44.96000 175.000
44.97500 162.000
44.99000 157.000
45.00500 129.000
45.02000 133.000
45.03500 134.000
45.05000 103.000
45.06500 105.000
45.08000 114.000
45.09500 105.000
45.11000 107.000
45.12500 106.000
45.14000 107.000
45.15500 114.000
45.17000 107.000
45.18500 98.000
45.20000 104.000
45.21500 119.000
45.23000 121.000
45.24500 119.000
45.26000 123.000
45.27500 128.000
45.29000 123.000
45.30500 119.000
45.32000 120.000
45.33500 108.000
45.35000 121.000
45.36500 106.000
45.38000 112.000
45.39500 113.000
45.41000 98.000
45.42500 113.000
45.44000 110.000
45.45500 89.000
45.47000 110.000
45.48500 116.000
45.50000 113.000
45.51500 134.000
45.53000 113.000
45.54500 111.000
45.56000 111.000
45.57500 108.000
45.59000 105.000
45.60500 92.000
45.62000 99.000
45.63500 99.000
45.65000 106.000
45.66500 112.000
45.68000 88.000
45.69500 98.000
45.71000 81.000
45.72500 94.000
45.74000 84.000
45.75500 85.000
45.77000 121.000
45.78500 106.000
45.80000 91.000
45.81500 98.000
45.83000 104.000
45.84500 89.000
45.86000 89.000
45.87500 95.000
45.89000 75.000
45.90500 87.000
45.92000 94.000
45.93500 92.000
45.95000 93.000
45.96500 88.000
45.98000 102.000
45.99500 99.000
46.01000 86.000
46.02500 86.000
46.04000 91.000
46.05500 85.000
46.07000 79.000
46.08500 88.000
46.10000 105.000
46.11500 98.000
46.13000 103.000
46.14500 119.000
46.16000 112.000
46.17500 95.000
46.19000 113.000
46.20500 98.000
46.22000 84.000
46.23500 93.000
46.25000 91.000
46.26500 93.000
46.28000 99.000
46.29500 103.000
46.31000 93.000
46.32500 91.000
46.34000 94.000
46.35500 103.000
46.37000 82.000
46.38500 87.000
46.40000 99.000
46.41500 99.000
46.43000 101.000
46.44500 75.000
46.46000 87.000
46.47500 86.000
46.49000 92.000
46.50500 85.000
46.52000 89.000
46.53500 82.000
46.55000 90.000
46.56500 103.000
46.58000 106.000
46.59500 96.000
46.61000 102.000
46.62500 102.000
46.64000 103.000
46.65500 97.000
46.67000 102.000
46.68500 89.000
46.70000 118.000
46.71500 117.000
46.73000 89.000
46.74500 91.000
46.76000 99.000
46.77500 99.000
46.79000 91.000
46.80500 86.000
46.82000 84.000
46.83500 99.000
46.85000 83.000
46.86500 90.000
46.88000 90.000
46.89500 92.000
46.91000 85.000
46.92500 87.000
46.94000 85.000
46.95500 79.000
46.97000 80.000
46.98500 98.000
47.00000 92.000
47.01500 91.000
47.03000 101.000
47.04500 81.000
47.06000 76.000
47.07500 85.000
47.09000 94.000
47.10500 83.000
47.12000 87.000
47.13500 81.000
47.15000 88.000
47.16500 81.000
47.18000 93.000
47.19500 88.000
47.21000 82.000
47.22500 91.000
47.24000 78.000
47.25500 91.000
47.27000 89.000
47.28500 94.000
47.30000 81.000
47.31500 91.000
47.33000 96.000
47.34500 77.000
47.36000 81.000
47.37500 87.000
47.39000 79.000
47.40500 84.000
47.42000 90.000
47.43500 88.000
47.45000 93.000
47.46500 88.000
47.48000 97.000
47.49500 99.000
47.51000 80.000
47.52500 70.000
47.54000 87.000
47.55500 87.000
47.57000 84.000
47.58500 80.000
47.60000 82.000
47.61500 83.000
47.63000 88.000
47.64500 91.000
47.66000 86.000
47.67500 88.000
47.69000 93.000
47.70500 94.000
47.72000 100.000
47.73500 87.000
47.75000 90.000
47.76500 92.000
47.78000 81.000
47.79500 95.000
47.81000 96.000
47.82500 109.000
47.84000 97.000
47.85500 126.000
47.87000 105.000
47.88500 113.000
47.90000 139.000
47.91500 129.000
47.93000 136.000
47.94500 136.000
47.96000 164.000
47.97500 163.000
47.99000 182.000
48.00500 203.000
48.02000 235.000
48.03500 293.000
48.05000 293.000
48.06500 321.000
48.08000 326.000
48.09500 278.000
48.11000 225.000
48.12500 197.000
48.14000 160.000
48.15500 154.000
48.17000 120.000
48.18500 117.000
48.20000 122.000
48.21500 101.000
48.23000 103.000
48.24500 97.000
48.26000 105.000
48.27500 100.000
48.29000 86.000
48.30500 85.000
48.32000 84.000
48.33500 99.000
48.35000 89.000
48.36500 86.000
48.38000 91.000
48.39500 108.000
48.41000 82.000
48.42500 86.000
48.44000 95.000
48.45500 96.000
48.47000 99.000
48.48500 85.000
48.50000 95.000
48.51500 90.000
48.53000 97.000
48.54500 104.000
48.56000 110.000
48.57500 102.000
48.59000 110.000
48.60500 128.000
48.62000 156.000
48.63500 178.000
48.65000 198.000
48.66500 213.000
48.68000 233.000
48.69500 240.000
48.71000 219.000
48.72500 190.000
48.74000 152.000
48.75500 139.000
48.77000 121.000
48.78500 113.000
48.80000 112.000
48.81500 100.000
48.83000 85.000
48.84500 85.000
48.86000 112.000
48.87500 92.000
48.89000 97.000
48.90500 114.000
48.92000 112.000
48.93500 110.000
48.95000 95.000
48.96500 105.000
48.98000 99.000
48.99500 91.000
49.01000 112.000
49.02500 119.000
49.04000 116.000
49.05500 110.000
49.07000 111.000
49.08500 125.000
49.10000 131.000
49.11500 127.000
49.13000 136.000
49.14500 128.000
49.16000 148.000
49.17500 139.000
49.19000 138.000
49.20500 133.000
49.22000 138.000
49.23500 153.000
49.25000 138.000
49.26500 165.000
49.28000 154.000
49.29500 172.000
49.31000 171.000
49.32500 151.000
49.34000 136.000
49.35500 132.000
49.37000 107.000
49.38500 112.000
49.40000 103.000
49.41500 101.000
49.43000 101.000
49.44500 92.000
49.46000 93.000
49.47500 100.000
49.49000 89.000
49.50500 92.000
49.52000 81.000
49.53500 81.000
49.55000 89.000
49.56500 84.000
49.58000 98.000
49.59500 97.000
49.61000 93.000
49.62500 91.000
49.64000 90.000
49.65500 90.000
49.67000 90.000
49.68500 77.000
49.70000 75.000
49.71500 83.000
49.73000 84.000
49.74500 75.000
49.76000 92.000
49.77500 87.000
49.79000 96.000
49.80500 107.000
49.82000 99.000
49.83500 99.000
49.85000 112.000
49.86500 101.000
49.88000 104.000
49.89500 106.000
49.91000 122.000
49.92500 105.000
49.94000 104.000
49.95500 100.000
49.97000 83.000
49.98500 97.000
50.00000 107.000
50.01500 80.000
50.03000 80.000
50.04500 86.000
50.06000 99.000
50.07500 104.000
50.09000 112.000
50.10500 102.000
50.12000 109.000
50.13500 111.000
50.15000 124.000
50.16500 107.000
50.18000 84.000
50.19500 112.000
50.21000 98.000
50.22500 101.000
50.24000 108.000
50.25500 117.000
50.27000 126.000
50.28500 118.000
50.30000 130.000
50.31500 124.000
50.33000 133.000
50.34500 131.000
50.36000 113.000
50.37500 130.000
50.39000 119.000
50.40500 127.000
50.42000 120.000
50.43500 113.000
50.45000 122.000
50.46500 98.000
50.48000 115.000
50.49500 126.000
50.51000 108.000
50.52500 93.000
50.54000 113.000
50.55500 122.000
50.57000 99.000
50.58500 105.000
50.60000 111.000
50.61500 94.000
50.63000 98.000
50.64500 104.000
50.66000 92.000
50.67500 95.000
50.69000 87.000
50.70500 90.000
50.72000 105.000
50.73500 81.000
50.75000 92.000
50.76500 92.000
50.78000 84.000
50.79500 91.000
50.81000 87.000
50.82500 100.000
50.84000 105.000
50.85500 93.000
50.87000 84.000
50.88500 102.000
50.90000 96.000
50.91500 97.000
50.93000 99.000
50.94500 101.000
50.96000 95.000
50.97500 87.000
50.99000 73.000
51.00500 87.000
51.02000 94.000
51.03500 88.000
51.05000 106.000
51.06500 107.000
51.08000 107.000
51.09500 94.000
51.11000 105.000
51.12500 97.000
51.14000 89.000
51.15500 113.000
51.17000 108.000
51.18500 90.000
51.20000 91.000
51.21500 99.000
51.23000 97.000
51.24500 92.000
51.26000 96.000
51.27500 103.000
51.29000 94.000
51.30500 90.000
51.32000 98.000
51.33500 86.000
51.35000 96.000
51.36500 91.000
51.38000 97.000
51.39500 86.000
51.41000 77.000
51.42500 88.000
51.44000 106.000
51.45500 91.000
51.47000 101.000
51.48500 93.000
51.50000 101.000
51.51500 92.000
51.53000 114.000
51.54500 91.000
51.56000 106.000
51.57500 121.000
51.59000 102.000
51.60500 105.000
51.62000 91.000
51.63500 94.000
51.65000 97.000
51.66500 89.000
51.68000 81.000
51.69500 90.000
51.71000 108.000
51.72500 97.000
51.74000 83.000
51.75500 85.000
51.77000 88.000
51.78500 83.000
51.80000 84.000
51.81500 82.000
51.83000 95.000
51.84500 90.000
51.86000 78.000
51.87500 79.000
51.89000 83.000
51.90500 98.000
51.92000 80.000
51.93500 84.000
51.95000 76.000
51.96500 90.000
51.98000 79.000
51.99500 87.000
52.01000 79.000
52.02500 85.000
52.04000 85.000
52.05500 86.000
52.07000 91.000
52.08500 85.000
52.10000 82.000
52.11500 97.000
52.13000 94.000
52.14500 96.000
52.16000 106.000
52.17500 102.000
52.19000 83.000
52.20500 104.000
52.22000 99.000
52.23500 107.000
52.25000 110.000
52.26500 106.000
52.28000 117.000
52.29500 103.000
52.31000 111.000
52.32500 119.000
52.34000 101.000
52.35500 90.000
52.37000 88.000
52.38500 104.000
52.40000 82.000
52.41500 104.000
52.43000 88.000
52.44500 87.000
52.46000 79.000
52.47500 81.000
52.49000 83.000
52.50500 79.000
52.52000 80.000
52.53500 73.000
52.55000 87.000
52.56500 100.000
52.58000 96.000
52.59500 94.000
52.61000 97.000
52.62500 98.000
52.64000 96.000
52.65500 107.000
52.67000 111.000
52.68500 86.000
52.70000 99.000
52.71500 116.000
52.73000 106.000
52.74500 108.000
52.76000 107.000
52.77500 133.000
52.79000 122.000
52.80500 151.000
52.82000 194.000
52.83500 183.000
52.85000 214.000
52.86500 252.000
52.88000 219.000
52.89500 193.000
52.91000 191.000
52.92500 186.000
52.94000 172.000
52.95500 140.000
52.97000 142.000
52.98500 109.000
53.00000 106.000
53.01500 119.000
53.03000 106.000
53.04500 104.000
53.06000 97.000
53.07500 99.000
53.09000 97.000
53.10500 87.000
53.12000 90.000
53.13500 110.000
53.15000 107.000
53.16500 96.000
53.18000 92.000
53.19500 90.000
53.21000 112.000
53.22500 98.000
53.24000 98.000
53.25500 120.000
53.27000 136.000
53.28500 130.000
53.30000 129.000
53.31500 141.000
53.33000 153.000
53.34500 162.000
53.36000 189.000
53.37500 215.000
53.39000 281.000
53.40500 352.000
53.42000 406.000
53.43500 432.000
53.45000 452.000
53.46500 429.000
53.48000 416.000
53.49500 361.000
53.51000 304.000
53.52500 268.000
53.54000 205.000
53.55500 186.000
53.57000 178.000
53.58500 148.000
53.60000 129.000
53.61500 131.000
53.63000 96.000
53.64500 103.000
53.66000 100.000
53.67500 107.000
53.69000 89.000
53.70500 103.000
53.72000 100.000
53.73500 104.000
53.75000 102.000
53.76500 102.000
53.78000 101.000
53.79500 120.000
53.81000 106.000
53.82500 101.000
53.84000 103.000
53.85500 113.000
53.87000 105.000
53.88500 97.000
53.90000 98.000
53.91500 97.000
53.93000 95.000
53.94500 101.000
53.96000 107.000
53.97500 102.000
53.99000 98.000
54.00500 113.000
54.02000 119.000
54.03500 120.000
54.05000 106.000
54.06500 111.000
54.08000 111.000
54.09500 103.000
54.11000 99.000
54.12500 92.000
54.14000 96.000
54.15500 82.000
54.17000 90.000
54.18500 84.000
54.20000 93.000
54.21500 109.000
54.23000 94.000
54.24500 84.000
54.26000 77.000
54.27500 88.000
54.29000 91.000
54.30500 85.000
54.32000 95.000
54.33500 96.000
54.35000 99.000
54.36500 98.000
54.38000 102.000
54.39500 89.000
54.41000 89.000
54.42500 91.000
54.44000 86.000
54.45500 95.000
54.47000 85.000
54.48500 91.000
54.50000 87.000
54.51500 93.000
54.53000 92.000
54.54500 102.000
54.56000 109.000
54.57500 100.000
54.59000 109.000
54.60500 107.000
54.62000 105.000
54.63500 101.000
54.65000 104.000
54.66500 91.000
54.68000 81.000
54.69500 86.000
54.71000 94.000
54.72500 94.000
54.74000 96.000
54.75500 92.000
54.77000 89.000
54.78500 110.000
54.80000 103.000
54.81500 107.000
54.83000 87.000
54.84500 89.000
54.86000 104.000
54.87500 120.000
54.89000 134.000
54.90500 122.000
54.92000 117.000
54.93500 129.000
54.95000 128.000
54.96500 128.000
54.98000 149.000
54.99500 123.000
55.01000 133.000
55.02500 133.000
55.04000 129.000
55.05500 150.000
55.07000 176.000
55.08500 198.000
55.10000 242.000
55.11500 236.000
55.13000 253.000
55.14500 296.000
55.16000 288.000
55.17500 312.000
55.19000 266.000
55.20500 246.000
55.22000 238.000
55.23500 182.000
55.25000 166.000
55.26500 141.000
55.28000 112.000
55.29500 112.000
55.31000 109.000
55.32500 110.000
55.34000 108.000
55.35500 104.000
55.37000 99.000
55.38500 101.000
55.40000 83.000
55.41500 89.000
55.43000 111.000
55.44500 97.000
55.46000 90.000
55.47500 86.000
55.49000 78.000
55.50500 88.000
55.52000 91.000
55.53500 86.000
55.55000 79.000
55.56500 82.000
55.58000 87.000
55.59500 99.000
55.61000 80.000
55.62500 89.000
55.64000 112.000
55.65500 101.000
55.67000 109.000
55.68500 101.000
55.70000 108.000
55.71500 124.000
55.73000 132.000
55.74500 123.000
55.76000 127.000
55.77500 131.000
55.79000 110.000
55.80500 109.000
55.82000 105.000
55.83500 110.000
55.85000 94.000
55.86500 99.000
55.88000 95.000
55.89500 83.000
55.91000 84.000
55.92500 82.000
55.94000 88.000
55.95500 96.000
55.97000 84.000
55.98500 81.000
56.00000 74.000
56.01500 85.000
56.03000 89.000
56.04500 90.000
56.06000 101.000
56.07500 102.000
56.09000 104.000
56.10500 123.000
56.12000 96.000
56.13500 106.000
56.15000 117.000
56.16500 103.000
56.18000 107.000
56.19500 104.000
56.21000 94.000
56.22500 85.000
56.24000 90.000
56.25500 100.000
56.27000 85.000
56.28500 83.000
56.30000 95.000
56.31500 111.000
56.33000 102.000
56.34500 79.000
56.36000 85.000
56.37500 80.000
56.39000 101.000
56.40500 100.000
56.42000 87.000
56.43500 88.000
56.45000 87.000
56.46500 87.000
56.48000 88.000
56.49500 91.000
56.51000 85.000
56.52500 97.000
56.54000 99.000
56.55500 91.000
56.57000 101.000
56.58500 91.000
56.60000 80.000
56.61500 83.000
56.63000 87.000
56.64500 84.000
56.66000 94.000
56.67500 90.000
56.69000 99.000
56.70500 90.000
56.72000 66.000
56.73500 78.000
56.75000 83.000
56.76500 91.000
56.78000 89.000
56.79500 77.000
56.81000 84.000
56.82500 86.000
56.84000 96.000
56.85500 102.000
56.87000 87.000
56.88500 86.000
56.90000 97.000
56.91500 89.000
56.93000 86.000
56.94500 85.000
56.96000 79.000
56.97500 95.000
56.99000 83.000
57.00500 92.000
57.02000 89.000
57.03500 100.000
57.05000 95.000
57.06500 88.000
57.08000 102.000
57.09500 105.000
57.11000 99.000
57.12500 112.000
57.14000 111.000
57.15500 104.000
57.17000 107.000
57.18500 126.000
57.20000 131.000
57.21500 136.000
57.23000 140.000
57.24500 126.000
57.26000 122.000
57.27500 145.000
57.29000 146.000
57.30500 143.000
57.32000 164.000
57.33500 182.000
57.35000 201.000
57.36500 220.000
57.38000 220.000
57.39500 231.000
57.41000 197.000
57.42500 201.000
57.44000 197.000
57.45500 187.000
57.47000 169.000
57.48500 141.000
57.50000 126.000
57.51500 114.000
57.53000 102.000
57.54500 118.000
57.56000 103.000
57.57500 88.000
57.59000 104.000
57.60500 100.000
57.62000 84.000
57.63500 88.000
57.65000 86.000
57.66500 100.000
57.68000 96.000
57.69500 90.000
57.71000 83.000
57.72500 95.000
57.74000 84.000
57.75500 74.000
57.77000 77.000
57.78500 98.000
57.80000 98.000
57.81500 84.000
57.83000 97.000
57.84500 102.000
57.86000 91.000
57.87500 103.000
57.89000 107.000
57.90500 101.000
57.92000 96.000
57.93500 85.000
57.95000 95.000
57.96500 103.000
57.98000 104.000
57.99500 97.000
58.01000 102.000
58.02500 111.000
58.04000 84.000
58.05500 83.000
58.07000 95.000
58.08500 95.000
58.10000 86.000
58.11500 81.000
58.13000 80.000
58.14500 81.000
58.16000 89.000
58.17500 90.000
58.19000 91.000
58.20500 86.000
58.22000 98.000
58.23500 86.000
58.25000 86.000
58.26500 89.000
58.28000 89.000
58.29500 99.000
58.31000 114.000
58.32500 118.000
58.34000 99.000
58.35500 112.000
58.37000 106.000
58.38500 112.000
58.40000 132.000
58.41500 163.000
58.43000 175.000
58.44500 180.000
58.46000 207.000
58.47500 207.000
58.49000 214.000
58.50500 209.000
58.52000 179.000
58.53500 172.000
58.55000 168.000
58.56500 125.000
58.58000 121.000
58.59500 132.000
58.61000 123.000
58.62500 109.000
58.64000 84.000
58.65500 95.000
58.67000 106.000
58.68500 102.000
58.70000 91.000
58.71500 89.000
58.73000 94.000
58.74500 86.000
58.76000 83.000
58.77500 92.000
58.79000 82.000
58.80500 88.000
58.82000 86.000
58.83500 82.000
58.85000 80.000
58.86500 91.000
58.88000 94.000
58.89500 84.000
58.91000 85.000
58.92500 75.000
58.94000 65.000
58.95500 73.000
58.97000 99.000
58.98500 86.000
59.00000 97.000
59.01500 90.000
59.03000 93.000
59.04500 102.000
59.06000 92.000
59.07500 86.000
59.09000 82.000
59.10500 85.000
59.12000 93.000
59.13500 89.000
59.15000 92.000
59.16500 94.000
59.18000 85.000
59.19500 84.000
59.21000 93.000
59.22500 98.000
59.24000 105.000
59.25500 97.000
59.27000 94.000
59.28500 96.000
59.30000 92.000
59.31500 105.000
59.33000 105.000
59.34500 109.000
59.36000 118.000
59.37500 108.000
59.39000 109.000
59.40500 111.000
59.42000 138.000
59.43500 138.000
59.45000 132.000
59.46500 150.000
59.48000 144.000
59.49500 170.000
59.51000 184.000
59.52500 192.000
59.54000 202.000
59.55500 215.000
59.57000 206.000
59.58500 232.000
59.60000 206.000
59.61500 181.000
59.63000 175.000
59.64500 150.000
59.66000 130.000
59.67500 113.000
59.69000 90.000
59.70500 108.000
59.72000 113.000
59.73500 104.000
59.75000 102.000
59.76500 96.000
59.78000 95.000
59.79500 106.000
59.81000 87.000
59.82500 88.000
59.84000 101.000
59.85500 92.000
59.87000 99.000
59.88500 79.000
59.90000 88.000
59.91500 94.000
59.93000 107.000
59.94500 101.000
59.96000 98.000
59.97500 103.000
59.99000 122.000
60.00500 110.000
60.02000 114.000
60.03500 121.000
60.05000 122.000
60.06500 119.000
60.08000 126.000
60.09500 126.000
60.11000 128.000
60.12500 138.000
60.14000 125.000
60.15500 114.000
60.17000 117.000
60.18500 113.000
60.20000 94.000
60.21500 87.000
60.23000 87.000
60.24500 85.000
60.26000 89.000
60.27500 87.000
60.29000 77.000
60.30500 82.000
60.32000 83.000
60.33500 100.000
60.35000 89.000
60.36500 101.000
60.38000 100.000
60.39500 86.000
60.41000 93.000
60.42500 90.000
60.44000 97.000
60.45500 108.000
60.47000 96.000
60.48500 102.000
60.50000 100.000
60.51500 88.000
60.53000 93.000
60.54500 91.000
60.56000 95.000
60.57500 80.000
60.59000 88.000
60.60500 82.000
60.62000 98.000
60.63500 102.000
60.65000 89.000
60.66500 85.000
60.68000 72.000
60.69500 71.000
60.71000 86.000
60.72500 87.000
60.74000 89.000
60.75500 90.000
60.77000 87.000
60.78500 87.000
60.80000 86.000
60.81500 87.000
60.83000 83.000
60.84500 96.000
60.86000 97.000
60.87500 95.000
60.89000 86.000
60.90500 78.000
60.92000 86.000
60.93500 84.000
60.95000 86.000
60.96500 89.000
60.98000 100.000
60.99500 116.000
61.01000 104.000
61.02500 101.000
61.04000 116.000
61.05500 105.000
61.07000 105.000
61.08500 109.000
61.10000 138.000
61.11500 141.000
61.13000 141.000
61.14500 150.000
61.16000 166.000
61.17500 168.000
61.19000 161.000
61.20500 143.000
61.22000 151.000
61.23500 138.000
61.25000 119.000
61.26500 112.000
61.28000 104.000
61.29500 100.000
61.31000 102.000
61.32500 107.000
61.34000 104.000
61.35500 105.000
61.37000 105.000
61.38500 99.000
61.40000 88.000
61.41500 85.000
61.43000 99.000
61.44500 97.000
61.46000 100.000
61.47500 96.000
61.49000 111.000
61.50500 100.000
61.52000 108.000
61.53500 105.000
61.55000 109.000
61.56500 116.000
61.58000 100.000
61.59500 94.000
61.61000 111.000
61.62500 129.000
61.64000 124.000
61.65500 148.000
61.67000 155.000
61.68500 156.000
61.70000 140.000
61.71500 125.000
61.73000 127.000
61.74500 133.000
61.76000 106.000
61.77500 104.000
61.79000 105.000
61.80500 93.000
61.82000 88.000
61.83500 101.000
61.85000 101.000
61.86500 99.000
61.88000 105.000
61.89500 95.000
61.91000 101.000
61.92500 89.000
61.94000 75.000
61.95500 78.000
61.97000 82.000
61.98500 80.000
