2.00000 7.000
2.01500 5.000
2.03000 5.000
2.04500 6.000
2.06000 3.000
2.07500 3.000
2.09000 5.000
2.10500 4.000
2.12000 4.000
2.13500 3.000
2.15000 5.000
2.16500 2.000
2.18000 2.000
2.19500 3.000
2.21000 3.000
2.22500 7.000
2.24000 5.000
2.25500 6.000
2.27000 5.000
2.28500 3.000
2.30000 5.000
2.31500 8.000
2.33000 4.000
2.34500 5.000
2.36000 5.000
2.37500 7.000
2.39000 6.000
2.40500 3.000
2.42000 3.000
2.43500 4.000
2.45000 5.000
2.46500 3.000
2.48000 6.000
2.49500 4.000
2.51000 2.000
2.52500 3.000
2.54000 3.000
2.55500 5.000
2.57000 2.000
2.58500 2.000
2.60000 3.000
2.61500 3.000
2.63000 6.000
2.64500 2.000
2.66000 2.000
2.67500 4.000
2.69000 4.000
2.70500 3.000
2.72000 3.000
2.73500 4.000
2.75000 3.000
2.76500 4.000
2.78000 3.000
2.79500 3.000
2.81000 3.000
2.82500 4.000
2.84000 3.000
2.85500 5.000
2.87000 4.000
2.88500 2.000
2.90000 5.000
2.91500 5.000
2.93000 3.000
2.94500 5.000
2.96000 1.000
2.97500 3.000
2.99000 5.000
3.00500 3.000
3.02000 4.000
3.03500 2.000
3.05000 4.000
3.06500 4.000
3.08000 4.000
3.09500 5.000
3.11000 9.000
3.12500 10.000
3.14000 11.000
3.15500 17.000
3.17000 23.000
3.18500 37.000
3.20000 43.000
3.21500 62.000
3.23000 86.000
3.24500 122.000
3.26000 129.000
3.27500 188.000
3.29000 191.000
3.30500 236.000
3.32000 247.000
3.33500 276.000
3.35000 267.000
3.36500 270.000
3.38000 273.000
3.39500 277.000
3.41000 282.000
3.42500 278.000
3.44000 261.000
3.45500 275.000
3.47000 270.000
3.48500 277.000
3.50000 285.000
3.51500 302.000
3.53000 262.000
3.54500 284.000
3.56000 261.000
3.57500 266.000
3.59000 254.000
3.60500 258.000
3.62000 259.000
3.63500 266.000
3.65000 262.000
3.66500 268.000
3.68000 303.000
3.69500 266.000
3.71000 267.000
3.72500 271.000
3.74000 262.000
3.75500 280.000
3.77000 271.000
3.78500 250.000
3.80000 263.000
3.81500 263.000
3.83000 243.000
3.84500 251.000
3.86000 266.000
3.87500 282.000
3.89000 262.000
3.90500 270.000
3.92000 254.000
3.93500 256.000
3.95000 258.000
3.96500 284.000
3.98000 278.000
3.99500 290.000
4.01000 292.000
4.02500 271.000
4.04000 266.000
4.05500 243.000
4.07000 252.000
4.08500 268.000
4.10000 288.000
4.11500 249.000
4.13000 242.000
4.14500 270.000
4.16000 278.000
4.17500 256.000
4.19000 257.000
4.20500 274.000
4.22000 269.000
4.23500 258.000
4.25000 266.000
4.26500 278.000
4.28000 272.000
4.29500 262.000
4.31000 283.000
4.32500 270.000
4.34000 269.000
4.35500 280.000
4.37000 302.000
4.38500 277.000
4.40000 291.000
4.41500 267.000
4.43000 278.000
4.44500 304.000
4.46000 288.000
4.47500 271.000
4.49000 304.000
4.50500 282.000
4.52000 279.000
4.53500 273.000
4.55000 272.000
4.56500 269.000
4.58000 260.000
4.59500 277.000
4.61000 289.000
4.62500 275.000
4.64000 293.000
4.65500 285.000
4.67000 271.000
4.68500 284.000
4.70000 277.000
4.71500 276.000
4.73000 294.000
4.74500 275.000
4.76000 274.000
4.77500 293.000
4.79000 305.000
4.80500 295.000
4.82000 286.000
4.83500 309.000
4.85000 297.000
4.86500 290.000
4.88000 277.000
4.89500 299.000
4.91000 275.000
4.92500 279.000
4.94000 298.000
4.95500 311.000
4.97000 289.000
4.98500 307.000
5.00000 288.000
5.01500 300.000
5.03000 283.000
5.04500 272.000
5.06000 301.000
5.07500 302.000
5.09000 304.000
5.10500 297.000
5.12000 309.000
5.13500 311.000
5.15000 298.000
5.16500 279.000
5.18000 294.000
5.19500 292.000
5.21000 325.000
5.22500 320.000
5.24000 315.000
5.25500 284.000
5.27000 294.000
5.28500 320.000
5.30000 308.000
5.31500 327.000
5.33000 323.000
5.34500 310.000
5.36000 313.000
5.37500 322.000
5.39000 300.000
5.40500 301.000
5.42000 295.000
5.43500 303.000
5.45000 314.000
5.46500 341.000
5.48000 328.000
5.49500 321.000
5.51000 317.000
5.52500 325.000
5.54000 306.000
5.55500 290.000
5.57000 294.000
5.58500 331.000
5.60000 341.000
5.61500 315.000
5.63000 299.000
5.64500 298.000
5.66000 302.000
5.67500 330.000
5.69000 345.000
5.70500 327.000
5.72000 330.000
5.73500 310.000
5.75000 309.000
5.76500 329.000
5.78000 328.000
5.79500 333.000
5.81000 309.000
5.82500 296.000
5.84000 321.000
5.85500 313.000
5.87000 333.000
5.88500 337.000
5.90000 328.000
5.91500 318.000
5.93000 328.000
5.94500 338.000
5.96000 332.000
5.97500 312.000
5.99000 342.000
6.00500 323.000
6.02000 315.000
6.03500 319.000
6.05000 320.000
6.06500 329.000
6.08000 308.000
6.09500 330.000
6.11000 340.000
6.12500 333.000
6.14000 330.000
6.15500 334.000
6.17000 337.000
6.18500 338.000
6.20000 336.000
6.21500 360.000
6.23000 354.000
6.24500 328.000
6.26000 332.000
6.27500 319.000
6.29000 303.000
6.30500 315.000
6.32000 324.000
6.33500 333.000
6.35000 329.000
6.36500 329.000
6.38000 353.000
6.39500 312.000
6.41000 334.000
6.42500 351.000
6.44000 374.000
6.45500 365.000
6.47000 339.000
6.48500 331.000
6.50000 346.000
6.51500 342.000
6.53000 319.000
6.54500 328.000
6.56000 325.000
6.57500 340.000
6.59000 348.000
6.60500 349.000
6.62000 347.000
6.63500 341.000
6.65000 348.000
6.66500 383.000
6.68000 339.000
6.69500 350.000
6.71000 333.000
6.72500 365.000
6.74000 360.000
6.75500 321.000
6.77000 349.000
6.78500 376.000
6.80000 380.000
6.81500 353.000
6.83000 353.000
6.84500 375.000
6.86000 360.000
6.87500 373.000
6.89000 335.000
6.90500 366.000
6.92000 388.000
6.93500 365.000
6.95000 355.000
6.96500 354.000
6.98000 327.000
6.99500 347.000
7.01000 357.000
7.02500 375.000
7.04000 378.000
7.05500 361.000
7.07000 386.000
7.08500 375.000
7.10000 355.000
7.11500 353.000
7.13000 377.000
7.14500 360.000
7.16000 365.000
7.17500 351.000
7.19000 356.000
7.20500 354.000
7.22000 392.000
7.23500 369.000
7.25000 343.000
7.26500 374.000
7.28000 338.000
7.29500 344.000
7.31000 363.000
7.32500 373.000
7.34000 384.000
7.35500 356.000
7.37000 386.000
7.38500 362.000
7.40000 363.000
7.41500 373.000
7.43000 375.000
7.44500 375.000
7.46000 382.000
7.47500 338.000
7.49000 356.000
7.50500 376.000
7.52000 367.000
7.53500 350.000
7.55000 376.000
7.56500 358.000
7.58000 385.000
7.59500 349.000
7.61000 372.000
7.62500 366.000
7.64000 366.000
7.65500 383.000
7.67000 348.000
7.68500 354.000
7.70000 391.000
7.71500 376.000
7.73000 367.000
7.74500 340.000
7.76000 383.000
7.77500 351.000
7.79000 351.000
7.80500 377.000
7.82000 359.000
7.83500 379.000
7.85000 373.000
7.86500 362.000
7.88000 371.000
7.89500 378.000
7.91000 377.000
7.92500 377.000
7.94000 409.000
7.95500 355.000
7.97000 375.000
7.98500 361.000
8.00000 379.000
8.01500 364.000
8.03000 352.000
8.04500 380.000
8.06000 366.000
8.07500 366.000
8.09000 378.000
8.10500 363.000
8.12000 346.000
8.13500 370.000
8.15000 364.000
8.16500 357.000
8.18000 381.000
8.19500 395.000
8.21000 356.000
8.22500 401.000
8.24000 375.000
8.25500 397.000
8.27000 395.000
8.28500 377.000
8.30000 394.000
8.31500 412.000
8.33000 382.000
8.34500 363.000
8.36000 373.000
8.37500 372.000
8.39000 399.000
8.40500 373.000
8.42000 390.000
8.43500 360.000
8.45000 351.000
8.46500 378.000
8.48000 365.000
8.49500 390.000
8.51000 391.000
8.52500 374.000
8.54000 364.000
8.55500 376.000
8.57000 349.000
8.58500 396.000
8.60000 391.000
8.61500 366.000
8.63000 386.000
8.64500 362.000
8.66000 347.000
8.67500 370.000
8.69000 398.000
8.70500 390.000
8.72000 385.000
8.73500 392.000
8.75000 366.000
8.76500 387.000
8.78000 389.000
8.79500 405.000
8.81000 376.000
8.82500 389.000
8.84000 396.000
8.85500 382.000
8.87000 380.000
8.88500 400.000
8.90000 392.000
8.91500 391.000
8.93000 386.000
8.94500 380.000
8.96000 375.000
8.97500 406.000
8.99000 386.000
9.00500 385.000
9.02000 371.000
9.03500 367.000
9.05000 379.000
9.06500 376.000
9.08000 391.000
9.09500 419.000
9.11000 383.000
9.12500 373.000
9.14000 378.000
9.15500 388.000
9.17000 389.000
9.18500 390.000
9.20000 393.000
9.21500 376.000
9.23000 380.000
9.24500 388.000
9.26000 356.000
9.27500 390.000
9.29000 387.000
9.30500 388.000
9.32000 401.000
9.33500 368.000
9.35000 364.000
9.36500 383.000
9.38000 394.000
9.39500 371.000
9.41000 400.000
9.42500 380.000
9.44000 358.000
9.45500 370.000
9.47000 407.000
9.48500 382.000
9.50000 367.000
9.51500 389.000
9.53000 408.000
9.54500 412.000
9.56000 391.000
9.57500 368.000
9.59000 394.000
9.60500 376.000
9.62000 398.000
9.63500 401.000
9.65000 425.000
9.66500 429.000
9.68000 406.000
9.69500 407.000
9.71000 432.000
9.72500 402.000
9.74000 388.000
9.75500 396.000
9.77000 393.000
9.78500 416.000
9.80000 395.000
9.81500 381.000
9.83000 371.000
9.84500 373.000
9.86000 384.000
9.87500 405.000
9.89000 410.000
9.90500 408.000
9.92000 398.000
9.93500 383.000
9.95000 386.000
9.96500 389.000
9.98000 396.000
9.99500 385.000
10.01000 390.000
10.02500 396.000
10.04000 408.000
10.05500 388.000
10.07000 387.000
10.08500 423.000
10.10000 393.000
10.11500 402.000
10.13000 363.000
10.14500 385.000
10.16000 404.000
10.17500 395.000
10.19000 403.000
10.20500 418.000
10.22000 407.000
10.23500 373.000
10.25000 396.000
10.26500 383.000
10.28000 359.000
10.29500 380.000
10.31000 370.000
10.32500 394.000
10.34000 399.000
10.35500 389.000
10.37000 385.000
10.38500 379.000
10.40000 379.000
10.41500 385.000
10.43000 389.000
10.44500 362.000
10.46000 373.000
10.47500 369.000
10.49000 385.000
10.50500 379.000
10.52000 396.000
10.53500 380.000
10.55000 424.000
10.56500 414.000
10.58000 388.000
10.59500 401.000
10.61000 402.000
10.62500 384.000
10.64000 387.000
10.65500 375.000
10.67000 385.000
10.68500 384.000
10.70000 404.000
10.71500 399.000
10.73000 386.000
10.74500 379.000
10.76000 386.000
10.77500 403.000
10.79000 399.000
10.80500 390.000
10.82000 401.000
10.83500 399.000
10.85000 378.000
10.86500 384.000
10.88000 390.000
10.89500 416.000
10.91000 391.000
10.92500 384.000
10.94000 421.000
10.95500 393.000
10.97000 409.000
10.98500 430.000
11.00000 406.000
11.01500 424.000
11.03000 406.000
11.04500 408.000
11.06000 413.000
11.07500 414.000
11.09000 397.000
11.10500 361.000
11.12000 394.000
11.13500 375.000
11.15000 406.000
11.16500 395.000
11.18000 392.000
11.19500 400.000
11.21000 415.000
11.22500 422.000
11.24000 396.000
11.25500 363.000
11.27000 417.000
11.28500 399.000
11.30000 387.000
11.31500 402.000
11.33000 367.000
11.34500 389.000
11.36000 402.000
11.37500 374.000
11.39000 360.000
11.40500 377.000
11.42000 380.000
11.43500 378.000
11.45000 397.000
11.46500 369.000
11.48000 373.000
11.49500 404.000
11.51000 406.000
11.52500 417.000
11.54000 397.000
11.55500 390.000
11.57000 416.000
11.58500 388.000
11.60000 406.000
11.61500 397.000
11.63000 399.000
11.64500 410.000
11.66000 401.000
11.67500 416.000
11.69000 385.000
11.70500 410.000
11.72000 401.000
11.73500 398.000
11.75000 393.000
11.76500 391.000
11.78000 384.000
11.79500 414.000
11.81000 424.000
11.82500 408.000
11.84000 398.000
11.85500 410.000
11.87000 406.000
11.88500 395.000
11.90000 393.000
11.91500 413.000
11.93000 425.000
11.94500 416.000
11.96000 397.000
11.97500 433.000
11.99000 417.000
12.00500 372.000
12.02000 392.000
12.03500 408.000
12.05000 403.000
12.06500 392.000
12.08000 377.000
12.09500 411.000
12.11000 411.000
12.12500 407.000
12.14000 416.000
12.15500 398.000
12.17000 399.000
12.18500 417.000
12.20000 402.000
12.21500 399.000
12.23000 422.000
12.24500 396.000
12.26000 403.000
12.27500 406.000
12.29000 432.000
12.30500 410.000
12.32000 391.000
12.33500 379.000
12.35000 378.000
12.36500 388.000
12.38000 400.000
12.39500 399.000
12.41000 399.000
12.42500 399.000
12.44000 405.000
12.45500 394.000
12.47000 397.000
12.48500 403.000
12.50000 399.000
12.51500 404.000
12.53000 400.000
12.54500 404.000
12.56000 407.000
12.57500 409.000
12.59000 425.000
12.60500 401.000
12.62000 384.000
12.63500 418.000
12.65000 437.000
12.66500 405.000
12.68000 380.000
12.69500 425.000
12.71000 387.000
12.72500 397.000
12.74000 421.000
12.75500 422.000
12.77000 414.000
12.78500 419.000
12.80000 403.000
12.81500 412.000
12.83000 435.000
12.84500 415.000
12.86000 425.000
12.87500 423.000
12.89000 419.000
12.90500 433.000
12.92000 438.000
12.93500 414.000
12.95000 388.000
12.96500 419.000
12.98000 401.000
12.99500 425.000
13.01000 419.000
13.02500 403.000
13.04000 412.000
13.05500 410.000
13.07000 401.000
13.08500 415.000
13.10000 421.000
13.11500 414.000
13.13000 389.000
13.14500 396.000
13.16000 378.000
13.17500 418.000
13.19000 418.000
13.20500 396.000
13.22000 399.000
13.23500 413.000
13.25000 382.000
13.26500 386.000
13.28000 388.000
13.29500 389.000
13.31000 386.000
13.32500 399.000
13.34000 407.000
13.35500 381.000
13.37000 404.000
13.38500 423.000
13.40000 414.000
13.41500 412.000
13.43000 412.000
13.44500 398.000
13.46000 401.000
13.47500 411.000
13.49000 395.000
13.50500 408.000
13.52000 399.000
13.53500 392.000
13.55000 385.000
13.56500 418.000
13.58000 396.000
13.59500 395.000
13.61000 410.000
13.62500 392.000
13.64000 397.000
13.65500 421.000
13.67000 406.000
13.68500 408.000
13.70000 398.000
13.71500 425.000
13.73000 452.000
13.74500 446.000
13.76000 417.000
13.77500 389.000
13.79000 425.000
13.80500 429.000
13.82000 408.000
13.83500 409.000
13.85000 395.000
13.86500 412.000
13.88000 410.000
13.89500 431.000
13.91000 415.000
13.92500 419.000
13.94000 440.000
13.95500 419.000
13.97000 381.000
13.98500 402.000
14.00000 422.000
14.01500 423.000
14.03000 393.000
14.04500 419.000
14.06000 425.000
14.07500 406.000
14.09000 419.000
14.10500 406.000
14.12000 403.000
14.13500 406.000
14.15000 432.000
14.16500 429.000
14.18000 413.000
14.19500 411.000
14.21000 419.000
14.22500 422.000
14.24000 433.000
14.25500 405.000
14.27000 423.000
14.28500 409.000
14.30000 426.000
14.31500 386.000
14.33000 408.000
14.34500 405.000
14.36000 426.000
14.37500 386.000
14.39000 405.000
14.40500 428.000
14.42000 434.000
14.43500 417.000
14.45000 377.000
14.46500 421.000
14.48000 413.000
14.49500 410.000
14.51000 389.000
14.52500 400.000
14.54000 414.000
14.55500 432.000
14.57000 417.000
14.58500 404.000
14.60000 383.000
14.61500 374.000
14.63000 391.000
14.64500 385.000
14.66000 389.000
14.67500 378.000
14.69000 389.000
14.70500 425.000
14.72000 385.000
14.73500 412.000
14.75000 420.000
14.76500 384.000
14.78000 408.000
14.79500 393.000
14.81000 361.000
14.82500 371.000
14.84000 427.000
14.85500 412.000
14.87000 419.000
14.88500 406.000
14.90000 417.000
14.91500 410.000
14.93000 407.000
14.94500 416.000
14.96000 404.000
14.97500 388.000
14.99000 411.000
15.00500 445.000
15.02000 421.000
15.03500 412.000
15.05000 407.000
15.06500 444.000
15.08000 392.000
15.09500 391.000
15.11000 384.000
15.12500 407.000
15.14000 403.000
15.15500 405.000
15.17000 398.000
15.18500 402.000
15.20000 381.000
15.21500 404.000
15.23000 396.000
15.24500 405.000
15.26000 436.000
15.27500 415.000
15.29000 394.000
15.30500 398.000
15.32000 408.000
15.33500 424.000
15.35000 425.000
15.36500 443.000
15.38000 422.000
15.39500 401.000
15.41000 447.000
15.42500 391.000
15.44000 414.000
15.45500 394.000
15.47000 364.000
15.48500 402.000
15.50000 401.000
15.51500 377.000
15.53000 412.000
15.54500 413.000
15.56000 407.000
15.57500 426.000
15.59000 449.000
15.60500 424.000
15.62000 386.000
15.63500 377.000
15.65000 386.000
15.66500 390.000
15.68000 434.000
15.69500 425.000
15.71000 421.000
15.72500 450.000
15.74000 402.000
15.75500 397.000
15.77000 399.000
15.78500 400.000
15.80000 389.000
15.81500 396.000
15.83000 392.000
15.84500 423.000
15.86000 418.000
15.87500 415.000
15.89000 408.000
15.90500 386.000
15.92000 400.000
15.93500 403.000
15.95000 402.000
15.96500 405.000
15.98000 409.000
15.99500 429.000
16.01000 409.000
16.02500 438.000
16.04000 371.000
16.05500 410.000
16.07000 423.000
16.08500 423.000
16.10000 405.000
16.11500 407.000
16.13000 373.000
16.14500 381.000
16.16000 389.000
16.17500 391.000
16.19000 397.000
16.20500 398.000
16.22000 418.000
16.23500 395.000
16.25000 415.000
16.26500 417.000
16.28000 414.000
16.29500 413.000
16.31000 379.000
16.32500 394.000
16.34000 423.000
16.35500 403.000
16.37000 405.000
16.38500 414.000
16.40000 429.000
16.41500 382.000
16.43000 412.000
16.44500 403.000
16.46000 428.000
16.47500 428.000
16.49000 424.000
16.50500 448.000
16.52000 457.000
16.53500 421.000
16.55000 401.000
16.56500 387.000
16.58000 442.000
16.59500 416.000
16.61000 422.000
16.62500 420.000
16.64000 404.000
16.65500 393.000
16.67000 397.000
16.68500 396.000
16.70000 418.000
16.71500 406.000
16.73000 404.000
16.74500 407.000
16.76000 437.000
16.77500 397.000
16.79000 393.000
16.80500 414.000
16.82000 414.000
16.83500 412.000
16.85000 417.000
16.86500 420.000
16.88000 382.000
16.89500 404.000
16.91000 414.000
16.92500 396.000
16.94000 417.000
16.95500 411.000
16.97000 420.000
16.98500 430.000
17.00000 413.000
17.01500 387.000
17.03000 414.000
17.04500 385.000
17.06000 402.000
17.07500 441.000
17.09000 415.000
17.10500 379.000
17.12000 388.000
17.13500 416.000
17.15000 414.000
17.16500 417.000
17.18000 401.000
17.19500 419.000
17.21000 384.000
17.22500 406.000
17.24000 406.000
17.25500 396.000
17.27000 437.000
17.28500 447.000
17.30000 427.000
17.31500 431.000
17.33000 411.000
17.34500 405.000
17.36000 410.000
17.37500 379.000
17.39000 417.000
17.40500 437.000
17.42000 447.000
17.43500 418.000
17.45000 429.000
17.46500 419.000
17.48000 416.000
17.49500 420.000
17.51000 434.000
17.52500 424.000
17.54000 393.000
17.55500 400.000
17.57000 425.000
17.58500 418.000
17.60000 403.000
17.61500 425.000
17.63000 400.000
17.64500 434.000
17.66000 430.000
17.67500 426.000
17.69000 414.000
17.70500 396.000
17.72000 387.000
17.73500 434.000
17.75000 430.000
17.76500 423.000
17.78000 410.000
17.79500 441.000
17.81000 395.000
17.82500 415.000
17.84000 408.000
17.85500 386.000
17.87000 415.000
17.88500 414.000
17.90000 430.000
17.91500 419.000
17.93000 392.000
17.94500 400.000
17.96000 392.000
17.97500 401.000
17.99000 413.000
18.00500 423.000
18.02000 390.000
18.03500 405.000
18.05000 395.000
18.06500 411.000
18.08000 400.000
18.09500 421.000
18.11000 420.000
18.12500 399.000
18.14000 413.000
18.15500 391.000
18.17000 412.000
18.18500 403.000
18.20000 395.000
18.21500 412.000
18.23000 408.000
18.24500 417.000
18.26000 434.000
18.27500 406.000
18.29000 405.000
18.30500 402.000
18.32000 401.000
18.33500 400.000
18.35000 424.000
18.36500 440.000
18.38000 430.000
18.39500 419.000
18.41000 407.000
18.42500 408.000
18.44000 391.000
18.45500 381.000
18.47000 411.000
18.48500 407.000
18.50000 420.000
18.51500 424.000
18.53000 406.000
18.54500 430.000
18.56000 429.000
18.57500 429.000
18.59000 454.000
18.60500 426.000
18.62000 408.000
18.63500 426.000
18.65000 440.000
18.66500 411.000
18.68000 421.000
18.69500 410.000
18.71000 381.000
18.72500 417.000
18.74000 449.000
18.75500 415.000
18.77000 415.000
18.78500 418.000
18.80000 408.000
18.81500 429.000
18.83000 434.000
18.84500 433.000
18.86000 385.000
18.87500 406.000
18.89000 421.000
18.90500 424.000
18.92000 418.000
18.93500 418.000
18.95000 428.000
18.96500 429.000
18.98000 439.000
18.99500 432.000
19.01000 431.000
19.02500 415.000
19.04000 407.000
19.05500 392.000
19.07000 446.000
19.08500 439.000
19.10000 434.000
19.11500 414.000
19.13000 419.000
19.14500 436.000
19.16000 426.000
19.17500 376.000
19.19000 403.000
19.20500 411.000
19.22000 431.000
19.23500 428.000
19.25000 409.000
19.26500 421.000
19.28000 421.000
19.29500 439.000
19.31000 423.000
19.32500 399.000
19.34000 449.000
19.35500 445.000
19.37000 421.000
19.38500 407.000
19.40000 427.000
19.41500 427.000
19.43000 437.000
19.44500 411.000
19.46000 415.000
19.47500 431.000
19.49000 408.000
19.50500 405.000
19.52000 419.000
19.53500 429.000
19.55000 429.000
19.56500 420.000
19.58000 434.000
19.59500 446.000
19.61000 452.000
19.62500 413.000
19.64000 431.000
19.65500 453.000
19.67000 423.000
19.68500 427.000
19.70000 433.000
19.71500 438.000
19.73000 433.000
19.74500 433.000
19.76000 406.000
19.77500 428.000
19.79000 409.000
19.80500 412.000
19.82000 413.000
19.83500 421.000
19.85000 413.000
19.86500 418.000
19.88000 427.000
19.89500 438.000
19.91000 420.000
19.92500 421.000
19.94000 420.000
19.95500 413.000
19.97000 429.000
19.98500 435.000
20.00000 415.000
20.01500 436.000
20.03000 385.000
20.04500 416.000
20.06000 429.000
20.07500 427.000
20.09000 407.000
20.10500 390.000
20.12000 420.000
20.13500 422.000
20.15000 412.000
20.16500 437.000
20.18000 449.000
20.19500 447.000
20.21000 423.000
20.22500 418.000
20.24000 443.000
20.25500 403.000
20.27000 416.000
20.28500 430.000
20.30000 418.000
20.31500 420.000
20.33000 371.000
20.34500 422.000
20.36000 412.000
20.37500 439.000
20.39000 459.000
20.40500 396.000
20.42000 379.000
20.43500 407.000
20.45000 390.000
20.46500 433.000
20.48000 426.000
20.49500 465.000
20.51000 431.000
20.52500 415.000
20.54000 405.000
20.55500 422.000
20.57000 417.000
20.58500 434.000
20.60000 450.000
20.61500 427.000
20.63000 419.000
20.64500 424.000
20.66000 420.000
20.67500 444.000
20.69000 448.000
20.70500 422.000
20.72000 440.000
20.73500 452.000
20.75000 428.000
20.76500 413.000
20.78000 416.000
20.79500 441.000
20.81000 479.000
20.82500 431.000
20.84000 428.000
20.85500 442.000
20.87000 414.000
20.88500 405.000
20.90000 413.000
20.91500 387.000
20.93000 427.000
20.94500 427.000
20.96000 450.000
20.97500 442.000
20.99000 456.000
21.00500 457.000
21.02000 457.000
21.03500 462.000
21.05000 414.000
21.06500 421.000
21.08000 428.000
21.09500 398.000
21.11000 432.000
21.12500 423.000
21.14000 425.000
21.15500 423.000
21.17000 417.000
21.18500 410.000
21.20000 412.000
21.21500 454.000
21.23000 416.000
21.24500 399.000
21.26000 461.000
21.27500 421.000
21.29000 433.000
21.30500 420.000
21.32000 424.000
21.33500 424.000
21.35000 417.000
21.36500 435.000
21.38000 418.000
21.39500 395.000
21.41000 403.000
21.42500 416.000
21.44000 436.000
21.45500 427.000
21.47000 437.000
21.48500 436.000
21.50000 478.000
21.51500 417.000
21.53000 410.000
21.54500 408.000
21.56000 408.000
21.57500 418.000
21.59000 399.000
21.60500 380.000
21.62000 420.000
21.63500 458.000
21.65000 418.000
21.66500 452.000
21.68000 436.000
21.69500 424.000
21.71000 451.000
21.72500 455.000
21.74000 459.000
21.75500 452.000
21.77000 410.000
21.78500 446.000
21.80000 457.000
21.81500 439.000
21.83000 428.000
21.84500 410.000
21.86000 443.000
21.87500 421.000
21.89000 408.000
21.90500 394.000
21.92000 443.000
21.93500 411.000
21.95000 419.000
21.96500 404.000
21.98000 410.000
21.99500 418.000
22.01000 408.000
22.02500 428.000
22.04000 428.000
22.05500 402.000
22.07000 434.000
22.08500 457.000
22.10000 453.000
22.11500 443.000
22.13000 454.000
22.14500 425.000
22.16000 413.000
22.17500 451.000
22.19000 441.000
22.20500 407.000
22.22000 400.000
22.23500 415.000
22.25000 427.000
22.26500 427.000
22.28000 404.000
22.29500 433.000
22.31000 446.000
22.32500 409.000
22.34000 404.000
22.35500 414.000
22.37000 411.000
22.38500 409.000
22.40000 431.000
22.41500 416.000
22.43000 420.000
22.44500 439.000
22.46000 450.000
22.47500 442.000
22.49000 422.000
22.50500 436.000
22.52000 429.000
22.53500 401.000
22.55000 424.000
22.56500 425.000
22.58000 435.000
22.59500 413.000
22.61000 432.000
22.62500 452.000
22.64000 407.000
22.65500 433.000
22.67000 420.000
22.68500 431.000
22.70000 430.000
22.71500 410.000
22.73000 429.000
22.74500 423.000
22.76000 410.000
22.77500 445.000
22.79000 441.000
22.80500 436.000
22.82000 430.000
22.83500 418.000
22.85000 416.000
22.86500 420.000
22.88000 433.000
22.89500 459.000
22.91000 443.000
22.92500 424.000
22.94000 470.000
22.95500 416.000
22.97000 436.000
22.98500 413.000
23.00000 428.000
23.01500 458.000
23.03000 448.000
23.04500 438.000
23.06000 430.000
23.07500 448.000
23.09000 441.000
23.10500 425.000
23.12000 425.000
23.13500 417.000
23.15000 418.000
23.16500 412.000
23.18000 426.000
23.19500 406.000
23.21000 409.000
23.22500 446.000
23.24000 443.000
23.25500 415.000
23.27000 438.000
23.28500 436.000
23.30000 456.000
23.31500 457.000
23.33000 463.000
23.34500 435.000
23.36000 440.000
23.37500 464.000
23.39000 402.000
23.40500 421.000
23.42000 430.000
23.43500 419.000
23.45000 396.000
23.46500 426.000
23.48000 427.000
23.49500 430.000
23.51000 417.000
23.52500 433.000
23.54000 425.000
23.55500 402.000
23.57000 422.000
23.58500 413.000
23.60000 407.000
23.61500 421.000
23.63000 441.000
23.64500 406.000
23.66000 452.000
23.67500 411.000
23.69000 446.000
23.70500 456.000
23.72000 426.000
23.73500 432.000
23.75000 409.000
23.76500 445.000
23.78000 440.000
23.79500 424.000
23.81000 426.000
23.82500 407.000
23.84000 384.000
23.85500 432.000
23.87000 434.000
23.88500 439.000
23.90000 469.000
23.91500 421.000
23.93000 440.000
23.94500 432.000
23.96000 425.000
23.97500 438.000
23.99000 453.000
24.00500 427.000
24.02000 415.000
24.03500 408.000
24.05000 400.000
24.06500 410.000
24.08000 426.000
24.09500 431.000
24.11000 405.000
24.12500 405.000
24.14000 430.000
24.15500 443.000
24.17000 417.000
24.18500 399.000
24.20000 419.000
24.21500 417.000
24.23000 415.000
24.24500 450.000
24.26000 456.000
24.27500 447.000
24.29000 428.000
24.30500 448.000
24.32000 422.000
24.33500 442.000
24.35000 424.000
24.36500 404.000
24.38000 413.000
24.39500 434.000
24.41000 415.000
24.42500 424.000
24.44000 448.000
24.45500 422.000
24.47000 383.000
24.48500 420.000
24.50000 438.000
24.51500 446.000
24.53000 420.000
24.54500 440.000
24.56000 402.000
24.57500 412.000
24.59000 421.000
24.60500 411.000
24.62000 445.000
24.63500 436.000
24.65000 433.000
24.66500 453.000
24.68000 434.000
24.69500 427.000
24.71000 426.000
24.72500 440.000
24.74000 442.000
24.75500 424.000
24.77000 450.000
24.78500 434.000
24.80000 401.000
24.81500 409.000
24.83000 404.000
24.84500 406.000
24.86000 394.000
24.87500 424.000
24.89000 423.000
24.90500 420.000
24.92000 417.000
24.93500 408.000
24.95000 397.000
24.96500 444.000
24.98000 446.000
24.99500 405.000
25.01000 437.000
25.02500 451.000
25.04000 406.000
25.05500 403.000
25.07000 426.000
25.08500 428.000
25.10000 409.000
25.11500 408.000
25.13000 411.000
25.14500 447.000
25.16000 452.000
25.17500 409.000
25.19000 402.000
25.20500 413.000
25.22000 437.000
25.23500 430.000
25.25000 397.000
25.26500 401.000
25.28000 435.000
25.29500 429.000
25.31000 425.000
25.32500 428.000
25.34000 395.000
25.35500 448.000
25.37000 406.000
25.38500 412.000
25.40000 404.000
25.41500 414.000
25.43000 434.000
25.44500 424.000
25.46000 437.000
25.47500 426.000
25.49000 424.000
25.50500 421.000
25.52000 465.000
25.53500 435.000
25.55000 431.000
25.56500 436.000
25.58000 437.000
25.59500 425.000
25.61000 427.000
25.62500 427.000
25.64000 413.000
25.65500 427.000
25.67000 423.000
25.68500 379.000
25.70000 426.000
25.71500 431.000
25.73000 470.000
25.74500 445.000
25.76000 438.000
25.77500 408.000
25.79000 385.000
25.80500 448.000
25.82000 424.000
25.83500 444.000
25.85000 438.000
25.86500 425.000
25.88000 445.000
25.89500 434.000
25.91000 388.000
25.92500 410.000
25.94000 434.000
25.95500 390.000
25.97000 432.000
25.98500 422.000
26.00000 442.000
26.01500 455.000
26.03000 423.000
26.04500 422.000
26.06000 481.000
26.07500 428.000
26.09000 438.000
26.10500 417.000
26.12000 405.000
26.13500 445.000
26.15000 437.000
26.16500 451.000
26.18000 428.000
26.19500 400.000
26.21000 444.000
26.22500 455.000
26.24000 423.000
26.25500 429.000
26.27000 427.000
26.28500 409.000
26.30000 426.000
26.31500 429.000
26.33000 413.000
26.34500 421.000
26.36000 419.000
26.37500 435.000
26.39000 445.000
26.40500 445.000
26.42000 426.000
26.43500 447.000
26.45000 419.000
26.46500 442.000
26.48000 441.000
26.49500 411.000
26.51000 423.000
26.52500 418.000
26.54000 444.000
26.55500 451.000
26.57000 399.000
26.58500 435.000
26.60000 424.000
26.61500 450.000
26.63000 427.000
26.64500 416.000
26.66000 419.000
26.67500 422.000
26.69000 438.000
26.70500 439.000
26.72000 413.000
26.73500 426.000
26.75000 449.000
26.76500 457.000
26.78000 418.000
26.79500 410.000
26.81000 446.000
26.82500 448.000
26.84000 458.000
26.85500 455.000
26.87000 427.000
26.88500 428.000
26.90000 419.000
26.91500 459.000
26.93000 452.000
26.94500 398.000
26.96000 412.000
26.97500 424.000
26.99000 426.000
27.00500 431.000
27.02000 432.000
27.03500 393.000
27.05000 439.000
27.06500 467.000
27.08000 459.000
27.09500 432.000
27.11000 454.000
27.12500 444.000
27.14000 459.000
27.15500 443.000
27.17000 431.000
27.18500 452.000
27.20000 464.000
27.21500 460.000
27.23000 425.000
27.24500 437.000
27.26000 449.000
27.27500 443.000
27.29000 453.000
27.30500 444.000
27.32000 482.000
27.33500 457.000
27.35000 470.000
27.36500 458.000
27.38000 445.000
27.39500 461.000
27.41000 465.000
27.42500 465.000
27.44000 480.000
27.45500 464.000
27.47000 472.000
27.48500 467.000
27.50000 443.000
27.51500 459.000
27.53000 465.000
27.54500 507.000
27.56000 463.000
27.57500 458.000
27.59000 491.000
27.60500 475.000
27.62000 473.000
27.63500 484.000
27.65000 484.000
27.66500 453.000
27.68000 444.000
27.69500 506.000
27.71000 469.000
27.72500 453.000
27.74000 472.000
27.75500 473.000
27.77000 465.000
27.78500 484.000
27.80000 446.000
27.81500 441.000
27.83000 451.000
27.84500 467.000
27.86000 506.000
27.87500 456.000
27.89000 433.000
27.90500 433.000
27.92000 462.000
27.93500 469.000
27.95000 456.000
27.96500 456.000
27.98000 442.000
27.99500 433.000
28.01000 449.000
28.02500 441.000
28.04000 428.000
28.05500 439.000
28.07000 468.000
28.08500 448.000
28.10000 469.000
28.11500 420.000
28.13000 416.000
28.14500 416.000
28.16000 423.000
28.17500 439.000
28.19000 426.000
28.20500 422.000
28.22000 465.000
28.23500 437.000
28.25000 424.000
28.26500 389.000
28.28000 370.000
28.29500 423.000
28.31000 414.000
28.32500 410.000
28.34000 412.000
28.35500 428.000
28.37000 397.000
28.38500 419.000
28.40000 424.000
28.41500 385.000
28.43000 393.000
28.44500 403.000
28.46000 394.000
28.47500 377.000
28.49000 373.000
28.50500 429.000
28.52000 416.000
28.53500 399.000
28.55000 394.000
28.56500 395.000
28.58000 395.000
28.59500 378.000
28.61000 384.000
28.62500 389.000
28.64000 372.000
28.65500 368.000
28.67000 383.000
28.68500 397.000
28.70000 390.000
28.71500 349.000
28.73000 383.000
28.74500 380.000
28.76000 370.000
28.77500 376.000
28.79000 378.000
28.80500 372.000
28.82000 388.000
28.83500 376.000
28.85000 366.000
28.86500 349.000
28.88000 358.000
28.89500 376.000
28.91000 361.000
28.92500 362.000
28.94000 378.000
28.95500 354.000
28.97000 357.000
28.98500 366.000
29.00000 390.000
29.01500 362.000
29.03000 338.000
29.04500 337.000
29.06000 352.000
29.07500 359.000
29.09000 411.000
29.10500 380.000
29.12000 365.000
29.13500 357.000
29.15000 358.000
29.16500 356.000
29.18000 374.000
29.19500 345.000
29.21000 358.000
29.22500 368.000
29.24000 347.000
29.25500 375.000
29.27000 371.000
29.28500 360.000
29.30000 358.000
29.31500 368.000
29.33000 369.000
29.34500 367.000
29.36000 381.000
29.37500 359.000
29.39000 364.000
29.40500 400.000
29.42000 379.000
29.43500 387.000
29.45000 375.000
29.46500 359.000
29.48000 356.000
29.49500 366.000
29.51000 357.000
29.52500 343.000
29.54000 362.000
29.55500 336.000
29.57000 337.000
29.58500 359.000
29.60000 374.000
29.61500 354.000
29.63000 358.000
29.64500 377.000
29.66000 363.000
29.67500 322.000
29.69000 325.000
29.70500 352.000
29.72000 339.000
29.73500 338.000
29.75000 340.000
29.76500 330.000
29.78000 357.000
29.79500 346.000
29.81000 350.000
29.82500 339.000
29.84000 364.000
29.85500 337.000
29.87000 333.000
29.88500 341.000
29.90000 320.000
29.91500 309.000
29.93000 299.000
29.94500 335.000
29.96000 342.000
29.97500 338.000
29.99000 359.000
30.00500 356.000
30.02000 343.000
30.03500 357.000
30.05000 339.000
30.06500 300.000
30.08000 312.000
30.09500 325.000
30.11000 339.000
30.12500 325.000
30.14000 345.000
30.15500 343.000
30.17000 333.000
30.18500 333.000
30.20000 319.000
30.21500 323.000
30.23000 336.000
30.24500 344.000
30.26000 335.000
30.27500 335.000
30.29000 338.000
30.30500 320.000
30.32000 313.000
30.33500 324.000
30.35000 311.000
30.36500 323.000
30.38000 326.000
30.39500 342.000
30.41000 335.000
30.42500 333.000
30.44000 312.000
30.45500 313.000
30.47000 320.000
30.48500 326.000
30.50000 354.000
30.51500 342.000
30.53000 308.000
30.54500 329.000
30.56000 332.000
30.57500 345.000
30.59000 316.000
30.60500 321.000
30.62000 326.000
30.63500 337.000
30.65000 343.000
30.66500 330.000
30.68000 335.000
30.69500 309.000
30.71000 357.000
30.72500 344.000
30.74000 299.000
30.75500 315.000
30.77000 319.000
30.78500 320.000
30.80000 341.000
30.81500 306.000
30.83000 298.000
30.84500 316.000
30.86000 328.000
30.87500 314.000
30.89000 334.000
30.90500 312.000
30.92000 316.000
30.93500 320.000
30.95000 303.000
30.96500 312.000
30.98000 314.000
30.99500 309.000
31.01000 347.000
31.02500 323.000
31.04000 327.000
31.05500 303.000
31.07000 310.000
31.08500 313.000
31.10000 320.000
31.11500 308.000
31.13000 326.000
31.14500 307.000
31.16000 300.000
31.17500 326.000
31.19000 311.000
31.20500 327.000
31.22000 292.000
31.23500 315.000
31.25000 299.000
31.26500 286.000
31.28000 286.000
31.29500 289.000
31.31000 275.000
31.32500 296.000
31.34000 281.000
31.35500 274.000
31.37000 285.000
31.38500 324.000
31.40000 299.000
31.41500 254.000
31.43000 285.000
31.44500 294.000
31.46000 302.000
31.47500 309.000
31.49000 317.000
31.50500 303.000
31.52000 318.000
31.53500 294.000
31.55000 325.000
31.56500 290.000
31.58000 290.000
31.59500 313.000
31.61000 313.000
31.62500 318.000
31.64000 312.000
31.65500 319.000
31.67000 316.000
31.68500 304.000
31.70000 286.000
31.71500 305.000
31.73000 294.000
31.74500 315.000
31.76000 318.000
31.77500 299.000
31.79000 296.000
31.80500 279.000
31.82000 289.000
31.83500 290.000
31.85000 295.000
31.86500 299.000
31.88000 267.000
31.89500 304.000
31.91000 272.000
31.92500 284.000
31.94000 293.000
31.95500 298.000
31.97000 298.000
31.98500 299.000
32.00000 282.000
32.01500 295.000
32.03000 292.000
32.04500 279.000
32.06000 304.000
32.07500 299.000
32.09000 317.000
32.10500 326.000
32.12000 299.000
32.13500 293.000
32.15000 277.000
32.16500 281.000
32.18000 292.000
32.19500 318.000
32.21000 283.000
32.22500 269.000
32.24000 293.000
32.25500 302.000
32.27000 281.000
32.28500 301.000
32.30000 301.000
32.31500 288.000
32.33000 279.000
32.34500 293.000
32.36000 285.000
32.37500 278.000
32.39000 287.000
32.40500 284.000
32.42000 288.000
32.43500 279.000
32.45000 286.000
32.46500 284.000
32.48000 290.000
32.49500 303.000
32.51000 291.000
32.52500 259.000
32.54000 294.000
32.55500 273.000
32.57000 277.000
32.58500 269.000
32.60000 276.000
32.61500 285.000
32.63000 271.000
32.64500 258.000
32.66000 283.000
32.67500 267.000
32.69000 267.000
32.70500 270.000
32.72000 263.000
32.73500 240.000
32.75000 258.000
32.76500 263.000
32.78000 265.000
32.79500 268.000
32.81000 260.000
32.82500 265.000
32.84000 281.000
32.85500 274.000
32.87000 280.000
32.88500 271.000
32.90000 265.000
32.91500 251.000
32.93000 258.000
32.94500 260.000
32.96000 259.000
32.97500 262.000
32.99000 252.000
33.00500 265.000
33.02000 256.000
33.03500 270.000
33.05000 258.000
33.06500 241.000
33.08000 259.000
33.09500 274.000
33.11000 274.000
33.12500 264.000
33.14000 246.000
33.15500 258.000
33.17000 258.000
33.18500 273.000
33.20000 230.000
33.21500 273.000
33.23000 253.000
33.24500 246.000
33.26000 267.000
33.27500 257.000
33.29000 263.000
33.30500 267.000
33.32000 257.000
33.33500 264.000
33.35000 269.000
33.36500 256.000
33.38000 246.000
33.39500 243.000
33.41000 247.000
33.42500 252.000
33.44000 270.000
33.45500 262.000
33.47000 266.000
33.48500 249.000
33.50000 249.000
33.51500 277.000
33.53000 253.000
33.54500 248.000
33.56000 250.000
33.57500 258.000
33.59000 235.000
33.60500 243.000
33.62000 247.000
33.63500 262.000
33.65000 258.000
33.66500 249.000
33.68000 242.000
33.69500 247.000
33.71000 219.000
33.72500 242.000
33.74000 254.000
33.75500 256.000
33.77000 251.000
33.78500 246.000
33.80000 283.000
33.81500 260.000
33.83000 237.000
33.84500 239.000
33.86000 240.000
33.87500 238.000
33.89000 264.000
33.90500 262.000
33.92000 243.000
33.93500 252.000
33.95000 239.000
33.96500 241.000
33.98000 252.000
33.99500 268.000
34.01000 259.000
34.02500 250.000
34.04000 248.000
34.05500 228.000
34.07000 251.000
34.08500 263.000
34.10000 250.000
34.11500 239.000
34.13000 240.000
34.14500 247.000
34.16000 245.000
34.17500 245.000
34.19000 230.000
34.20500 247.000
34.22000 245.000
34.23500 256.000
34.25000 242.000
34.26500 230.000
34.28000 238.000
34.29500 249.000
34.31000 236.000
34.32500 234.000
34.34000 250.000
34.35500 236.000
34.37000 219.000
34.38500 216.000
34.40000 223.000
34.41500 221.000
34.43000 225.000
34.44500 214.000
34.46000 241.000
34.47500 246.000
34.49000 235.000
34.50500 209.000
34.52000 233.000
34.53500 248.000
34.55000 229.000
34.56500 239.000
34.58000 245.000
34.59500 231.000
34.61000 224.000
34.62500 220.000
34.64000 240.000
34.65500 228.000
34.67000 234.000
34.68500 256.000
34.70000 237.000
34.71500 248.000
34.73000 267.000
34.74500 223.000
34.76000 227.000
34.77500 218.000
34.79000 217.000
34.80500 217.000
34.82000 238.000
34.83500 216.000
34.85000 216.000
34.86500 225.000
34.88000 224.000
34.89500 231.000
34.91000 219.000
34.92500 193.000
34.94000 224.000
34.95500 242.000
34.97000 228.000
34.98500 241.000
35.00000 205.000
35.01500 214.000
35.03000 236.000
35.04500 227.000
35.06000 227.000
35.07500 230.000
35.09000 208.000
35.10500 226.000
35.12000 228.000
35.13500 221.000
35.15000 211.000
35.16500 218.000
35.18000 223.000
35.19500 243.000
35.21000 217.000
35.22500 232.000
35.24000 225.000
35.25500 210.000
35.27000 217.000
35.28500 224.000
35.30000 211.000
35.31500 230.000
35.33000 231.000
35.34500 228.000
35.36000 225.000
35.37500 205.000
35.39000 219.000
35.40500 216.000
35.42000 232.000
35.43500 226.000
35.45000 232.000
35.46500 231.000
35.48000 234.000
35.49500 219.000
35.51000 221.000
35.52500 217.000
35.54000 196.000
35.55500 219.000
35.57000 217.000
35.58500 208.000
35.60000 220.000
35.61500 210.000
35.63000 202.000
35.64500 220.000
35.66000 220.000
35.67500 218.000
35.69000 210.000
35.70500 218.000
35.72000 201.000
35.73500 225.000
35.75000 206.000
35.76500 215.000
35.78000 206.000
35.79500 249.000
35.81000 234.000
35.82500 227.000
35.84000 204.000
35.85500 224.000
35.87000 215.000
35.88500 186.000
35.90000 222.000
35.91500 218.000
35.93000 225.000
35.94500 204.000
35.96000 228.000
35.97500 236.000
35.99000 230.000
36.00500 207.000
36.02000 196.000
36.03500 218.000
36.05000 224.000
36.06500 235.000
36.08000 220.000
36.09500 212.000
36.11000 212.000
36.12500 203.000
36.14000 199.000
36.15500 226.000
36.17000 241.000
36.18500 190.000
36.20000 187.000
36.21500 220.000
36.23000 221.000
36.24500 192.000
36.26000 199.000
36.27500 206.000
36.29000 195.000
36.30500 179.000
36.32000 184.000
36.33500 192.000
36.35000 183.000
36.36500 195.000
36.38000 177.000
36.39500 197.000
36.41000 229.000
36.42500 210.000
36.44000 208.000
36.45500 195.000
36.47000 194.000
36.48500 202.000
36.50000 195.000
36.51500 208.000
36.53000 190.000
36.54500 192.000
36.56000 176.000
36.57500 202.000
36.59000 205.000
36.60500 185.000
36.62000 191.000
36.63500 186.000
36.65000 190.000
36.66500 189.000
36.68000 197.000
36.69500 205.000
36.71000 189.000
36.72500 205.000
36.74000 213.000
36.75500 202.000
36.77000 197.000
36.78500 191.000
36.80000 187.000
36.81500 194.000
36.83000 180.000
36.84500 198.000
36.86000 193.000
36.87500 190.000
36.89000 206.000
36.90500 174.000
36.92000 204.000
36.93500 208.000
36.95000 215.000
36.96500 193.000
36.98000 183.000
36.99500 195.000
37.01000 193.000
37.02500 202.000
37.04000 205.000
37.05500 178.000
37.07000 192.000
37.08500 181.000
37.10000 188.000
37.11500 202.000
37.13000 169.000
37.14500 184.000
37.16000 211.000
37.17500 177.000
37.19000 180.000
37.20500 185.000
37.22000 194.000
37.23500 197.000
37.25000 181.000
37.26500 173.000
37.28000 179.000
37.29500 174.000
37.31000 172.000
37.32500 204.000
37.34000 175.000
37.35500 181.000
37.37000 171.000
37.38500 186.000
37.40000 179.000
37.41500 170.000
37.43000 178.000
37.44500 195.000
37.46000 182.000
37.47500 191.000
37.49000 192.000
37.50500 195.000
37.52000 202.000
37.53500 190.000
37.55000 180.000
37.56500 183.000
37.58000 168.000
37.59500 170.000
37.61000 189.000
37.62500 185.000
37.64000 177.000
37.65500 184.000
37.67000 196.000
37.68500 199.000
37.70000 188.000
37.71500 190.000
37.73000 205.000
37.74500 177.000
37.76000 173.000
37.77500 179.000
37.79000 178.000
37.80500 172.000
37.82000 185.000
37.83500 203.000
37.85000 188.000
37.86500 184.000
37.88000 170.000
37.89500 168.000
37.91000 184.000
37.92500 180.000
37.94000 193.000
37.95500 170.000
37.97000 187.000
37.98500 207.000
38.00000 200.000
38.01500 176.000
38.03000 161.000
38.04500 193.000
38.06000 176.000
38.07500 169.000
38.09000 177.000
38.10500 170.000
38.12000 180.000
38.13500 185.000
38.15000 178.000
38.16500 194.000
38.18000 191.000
38.19500 190.000
38.21000 176.000
38.22500 185.000
38.24000 170.000
38.25500 160.000
38.27000 187.000
38.28500 183.000
38.30000 197.000
38.31500 182.000
38.33000 170.000
38.34500 185.000
38.36000 171.000
38.37500 165.000
38.39000 185.000
38.40500 177.000
38.42000 186.000
38.43500 185.000
38.45000 171.000
38.46500 184.000
38.48000 174.000
38.49500 157.000
38.51000 187.000
38.52500 190.000
38.54000 198.000
38.55500 180.000
38.57000 173.000
38.58500 173.000
38.60000 180.000
38.61500 175.000
38.63000 188.000
38.64500 164.000
38.66000 166.000
38.67500 170.000
38.69000 172.000
38.70500 191.000
38.72000 182.000
38.73500 164.000
38.75000 177.000
38.76500 167.000
38.78000 175.000
38.79500 169.000
38.81000 189.000
38.82500 169.000
38.84000 175.000
38.85500 187.000
38.87000 175.000
38.88500 167.000
38.90000 176.000
38.91500 159.000
38.93000 165.000
38.94500 173.000
38.96000 159.000
38.97500 179.000
38.99000 168.000
39.00500 189.000
39.02000 182.000
39.03500 163.000
39.05000 174.000
39.06500 183.000
39.08000 165.000
39.09500 158.000
39.11000 161.000
39.12500 168.000
39.14000 175.000
39.15500 178.000
39.17000 201.000
39.18500 193.000
39.20000 178.000
39.21500 183.000
39.23000 185.000
39.24500 158.000
39.26000 159.000
39.27500 172.000
39.29000 174.000
39.30500 169.000
39.32000 185.000
39.33500 171.000
39.35000 177.000
39.36500 166.000
39.38000 166.000
39.39500 193.000
39.41000 176.000
39.42500 183.000
39.44000 184.000
39.45500 158.000
39.47000 164.000
39.48500 177.000
39.50000 158.000
39.51500 144.000
39.53000 167.000
39.54500 161.000
39.56000 200.000
39.57500 186.000
39.59000 174.000
39.60500 166.000
39.62000 182.000
39.63500 170.000
39.65000 176.000
39.66500 162.000
39.68000 185.000
39.69500 161.000
39.71000 163.000
39.72500 196.000
39.74000 172.000
39.75500 165.000
39.77000 169.000
39.78500 181.000
39.80000 141.000
39.81500 170.000
39.83000 153.000
39.84500 178.000
39.86000 182.000
39.87500 187.000
39.89000 172.000
39.90500 165.000
39.92000 174.000
39.93500 174.000
39.95000 180.000
39.96500 165.000
39.98000 179.000
39.99500 168.000
40.01000 186.000
40.02500 170.000
40.04000 170.000
40.05500 175.000
40.07000 177.000
40.08500 172.000
40.10000 165.000
40.11500 156.000
40.13000 185.000
40.14500 164.000
40.16000 157.000
40.17500 166.000
40.19000 185.000
40.20500 170.000
40.22000 168.000
40.23500 148.000
40.25000 160.000
40.26500 172.000
40.28000 161.000
40.29500 159.000
40.31000 170.000
40.32500 182.000
40.34000 163.000
40.35500 170.000
40.37000 152.000
40.38500 153.000
40.40000 174.000
40.41500 156.000
40.43000 182.000
40.44500 177.000
40.46000 180.000
40.47500 160.000
40.49000 151.000
40.50500 157.000
40.52000 184.000
40.53500 175.000
40.55000 167.000
40.56500 161.000
40.58000 162.000
40.59500 176.000
40.61000 181.000
40.62500 166.000
40.64000 153.000
40.65500 165.000
40.67000 160.000
40.68500 159.000
40.70000 166.000
40.71500 155.000
40.73000 184.000
40.74500 152.000
40.76000 171.000
40.77500 168.000
40.79000 176.000
40.80500 169.000
40.82000 157.000
40.83500 157.000
40.85000 176.000
40.86500 166.000
40.88000 171.000
40.89500 165.000
40.91000 161.000
40.92500 155.000
40.94000 171.000
40.95500 169.000
40.97000 163.000
40.98500 167.000
41.00000 169.000
41.01500 164.000
41.03000 176.000
41.04500 173.000
41.06000 160.000
41.07500 170.000
41.09000 169.000
41.10500 166.000
41.12000 154.000
41.13500 155.000
41.15000 167.000
41.16500 170.000
41.18000 161.000
41.19500 183.000
41.21000 149.000
41.22500 172.000
41.24000 175.000
41.25500 166.000
41.27000 163.000
41.28500 158.000
41.30000 140.000
41.31500 135.000
41.33000 167.000
41.34500 169.000
41.36000 149.000
41.37500 157.000
41.39000 175.000
41.40500 164.000
41.42000 174.000
41.43500 168.000
41.45000 167.000
41.46500 168.000
41.48000 147.000
41.49500 150.000
41.51000 163.000
41.52500 158.000
41.54000 172.000
41.55500 181.000
41.57000 179.000
41.58500 160.000
41.60000 160.000
41.61500 147.000
41.63000 144.000
41.64500 152.000
41.66000 178.000
41.67500 183.000
41.69000 162.000
41.70500 164.000
41.72000 171.000
41.73500 159.000
41.75000 170.000
41.76500 170.000
41.78000 164.000
41.79500 155.000
41.81000 162.000
41.82500 163.000
41.84000 177.000
41.85500 158.000
41.87000 145.000
41.88500 154.000
41.90000 135.000
41.91500 154.000
41.93000 164.000
41.94500 151.000
41.96000 179.000
41.97500 177.000
41.99000 165.000
42.00500 158.000
42.02000 144.000
42.03500 155.000
42.05000 151.000
42.06500 147.000
42.08000 154.000
42.09500 176.000
42.11000 175.000
42.12500 169.000
42.14000 154.000
42.15500 145.000
42.17000 157.000
42.18500 161.000
42.20000 150.000
42.21500 166.000
42.23000 168.000
42.24500 156.000
42.26000 143.000
42.27500 156.000
42.29000 154.000
42.30500 155.000
42.32000 167.000
42.33500 155.000
42.35000 166.000
42.36500 141.000
42.38000 152.000
42.39500 158.000
42.41000 165.000
42.42500 161.000
42.44000 151.000
42.45500 170.000
42.47000 145.000
42.48500 156.000
42.50000 158.000
42.51500 181.000
42.53000 138.000
42.54500 155.000
42.56000 153.000
42.57500 167.000
42.59000 168.000
42.60500 149.000
42.62000 153.000
42.63500 147.000
42.65000 166.000
42.66500 149.000
42.68000 165.000
42.69500 171.000
42.71000 156.000
42.72500 165.000
42.74000 162.000
42.75500 147.000
42.77000 164.000
42.78500 156.000
42.80000 151.000
42.81500 159.000
42.83000 156.000
42.84500 155.000
42.86000 161.000
42.87500 161.000
42.89000 170.000
42.90500 164.000
42.92000 151.000
42.93500 147.000
42.95000 146.000
42.96500 156.000
42.98000 149.000
42.99500 149.000
43.01000 149.000
43.02500 141.000
43.04000 153.000
43.05500 152.000
43.07000 144.000
43.08500 142.000
43.10000 150.000
43.11500 153.000
43.13000 177.000
43.14500 174.000
43.16000 168.000
43.17500 190.000
43.19000 177.000
43.20500 153.000
43.22000 166.000
43.23500 157.000
43.25000 157.000
43.26500 177.000
43.28000 164.000
43.29500 163.000
43.31000 157.000
43.32500 145.000
43.34000 155.000
43.35500 167.000
43.37000 160.000
43.38500 151.000
43.40000 175.000
43.41500 168.000
43.43000 170.000
43.44500 137.000
43.46000 171.000
43.47500 152.000
43.49000 164.000
43.50500 145.000
43.52000 149.000
43.53500 152.000
43.55000 145.000
43.56500 157.000
43.58000 171.000
43.59500 156.000
43.61000 154.000
43.62500 159.000
43.64000 139.000
43.65500 142.000
43.67000 155.000
43.68500 146.000
43.70000 152.000
43.71500 158.000
43.73000 164.000
43.74500 153.000
43.76000 158.000
43.77500 139.000
43.79000 138.000
43.80500 152.000
43.82000 160.000
43.83500 153.000
43.85000 170.000
43.86500 153.000
43.88000 163.000
43.89500 172.000
43.91000 150.000
43.92500 140.000
43.94000 149.000
43.95500 147.000
43.97000 141.000
43.98500 166.000
44.00000 151.000
44.01500 148.000
44.03000 151.000
44.04500 154.000
44.06000 163.000
44.07500 185.000
44.09000 156.000
44.10500 143.000
44.12000 154.000
44.13500 156.000
44.15000 144.000
44.16500 156.000
44.18000 138.000
44.19500 140.000
44.21000 143.000
44.22500 151.000
44.24000 164.000
44.25500 159.000
44.27000 146.000
44.28500 165.000
44.30000 141.000
44.31500 129.000
44.33000 164.000
44.34500 137.000
44.36000 143.000
44.37500 145.000
44.39000 157.000
44.40500 138.000
44.42000 151.000
44.43500 150.000
44.45000 152.000
44.46500 156.000
44.48000 155.000
44.49500 164.000
44.51000 169.000
44.52500 151.000
44.54000 152.000
44.55500 154.000
44.57000 160.000
44.58500 156.000
44.60000 150.000
44.61500 157.000
44.63000 162.000
44.64500 175.000
44.66000 165.000
44.67500 163.000
44.69000 145.000
44.70500 125.000
44.72000 150.000
44.73500 146.000
44.75000 134.000
44.76500 141.000
44.78000 138.000
44.79500 160.000
44.81000 149.000
44.82500 158.000
44.84000 154.000
44.85500 143.000
44.87000 131.000
44.88500 138.000
44.90000 146.000
44.91500 170.000
44.93000 150.000
44.94500 142.000
44.96000 159.000
44.97500 153.000
44.99000 156.000
45.00500 150.000
45.02000 145.000
45.03500 146.000
45.05000 159.000
45.06500 153.000
45.08000 150.000
45.09500 134.000
45.11000 135.000
45.12500 142.000
45.14000 141.000
45.15500 159.000
45.17000 144.000
45.18500 149.000
45.20000 149.000
45.21500 150.000
45.23000 128.000
45.24500 154.000
45.26000 150.000
45.27500 141.000
45.29000 121.000
45.30500 135.000
45.32000 143.000
45.33500 163.000
45.35000 159.000
45.36500 131.000
45.38000 138.000
45.39500 132.000
45.41000 131.000
45.42500 140.000
45.44000 128.000
45.45500 152.000
45.47000 154.000
45.48500 156.000
45.50000 143.000
45.51500 154.000
45.53000 145.000
45.54500 155.000
45.56000 169.000
45.57500 140.000
45.59000 129.000
45.60500 148.000
45.62000 150.000
45.63500 136.000
45.65000 145.000
45.66500 154.000
45.68000 163.000
45.69500 154.000
45.71000 126.000
45.72500 140.000
45.74000 138.000
45.75500 143.000
45.77000 132.000
45.78500 153.000
45.80000 150.000
45.81500 147.000
45.83000 138.000
45.84500 136.000
45.86000 143.000
45.87500 138.000
45.89000 158.000
45.90500 140.000
45.92000 123.000
45.93500 145.000
45.95000 146.000
45.96500 149.000
45.98000 132.000
45.99500 149.000
46.01000 132.000
46.02500 136.000
46.04000 149.000
46.05500 158.000
46.07000 144.000
46.08500 146.000
46.10000 154.000
46.11500 144.000
46.13000 138.000
46.14500 143.000
46.16000 133.000
46.17500 149.000
46.19000 144.000
46.20500 149.000
46.22000 124.000
46.23500 136.000
46.25000 127.000
46.26500 137.000
46.28000 142.000
46.29500 124.000
46.31000 141.000
46.32500 126.000
46.34000 137.000
46.35500 137.000
46.37000 131.000
46.38500 125.000
46.40000 139.000
46.41500 132.000
46.43000 140.000
46.44500 162.000
46.46000 144.000
46.47500 146.000
46.49000 151.000
46.50500 141.000
46.52000 124.000
46.53500 127.000
46.55000 128.000
46.56500 142.000
46.58000 136.000
46.59500 140.000
46.61000 143.000
46.62500 157.000
46.64000 152.000
46.65500 139.000
46.67000 137.000
46.68500 132.000
46.70000 158.000
46.71500 144.000
46.73000 155.000
46.74500 133.000
46.76000 134.000
46.77500 135.000
46.79000 139.000
46.80500 122.000
46.82000 127.000
46.83500 133.000
46.85000 151.000
46.86500 152.000
46.88000 134.000
46.89500 140.000
46.91000 132.000
46.92500 126.000
46.94000 137.000
46.95500 139.000
46.97000 143.000
46.98500 154.000
47.00000 132.000
47.01500 137.000
47.03000 139.000
47.04500 141.000
47.06000 138.000
47.07500 127.000
47.09000 153.000
47.10500 162.000
47.12000 129.000
47.13500 147.000
47.15000 137.000
47.16500 135.000
47.18000 117.000
47.19500 135.000
47.21000 147.000
47.22500 152.000
47.24000 141.000
47.25500 132.000
47.27000 134.000
47.28500 115.000
47.30000 125.000
47.31500 143.000
47.33000 144.000
47.34500 133.000
47.36000 142.000
47.37500 142.000
47.39000 137.000
47.40500 139.000
47.42000 133.000
47.43500 134.000
47.45000 133.000
47.46500 151.000
47.48000 148.000
47.49500 143.000
47.51000 148.000
47.52500 155.000
47.54000 161.000
47.55500 168.000
47.57000 176.000
47.58500 157.000
47.60000 152.000
47.61500 142.000
47.63000 132.000
47.64500 126.000
47.66000 149.000
47.67500 152.000
47.69000 138.000
47.70500 140.000
47.72000 133.000
47.73500 138.000
47.75000 131.000
47.76500 118.000
47.78000 140.000
47.79500 144.000
47.81000 135.000
47.82500 137.000
47.84000 137.000
47.85500 136.000
47.87000 131.000
47.88500 113.000
47.90000 141.000
47.91500 138.000
47.93000 145.000
47.94500 140.000
47.96000 121.000
47.97500 140.000
47.99000 132.000
48.00500 142.000
48.02000 144.000
48.03500 133.000
48.05000 137.000
48.06500 134.000
48.08000 118.000
48.09500 132.000
48.11000 114.000
48.12500 134.000
48.14000 129.000
48.15500 125.000
48.17000 122.000
48.18500 126.000
48.20000 132.000
48.21500 138.000
48.23000 138.000
48.24500 128.000
48.26000 132.000
48.27500 124.000
48.29000 135.000
48.30500 144.000
48.32000 137.000
48.33500 140.000
48.35000 129.000
48.36500 116.000
48.38000 123.000
48.39500 114.000
48.41000 135.000
48.42500 130.000
48.44000 115.000
48.45500 121.000
48.47000 128.000
48.48500 142.000
48.50000 148.000
48.51500 158.000
48.53000 146.000
48.54500 153.000
48.56000 148.000
48.57500 147.000
48.59000 134.000
48.60500 125.000
48.62000 129.000
48.63500 136.000
48.65000 134.000
48.66500 139.000
48.68000 137.000
48.69500 143.000
48.71000 122.000
48.72500 138.000
48.74000 124.000
48.75500 110.000
48.77000 109.000
48.78500 134.000
48.80000 132.000
48.81500 135.000
48.83000 120.000
48.84500 127.000
48.86000 125.000
48.87500 129.000
48.89000 125.000
48.90500 130.000
48.92000 122.000
48.93500 124.000
48.95000 128.000
48.96500 119.000
48.98000 132.000
48.99500 122.000
49.01000 144.000
49.02500 139.000
49.04000 111.000
49.05500 135.000
49.07000 121.000
49.08500 110.000
49.10000 133.000
49.11500 139.000
49.13000 131.000
49.14500 117.000
49.16000 120.000
49.17500 147.000
49.19000 125.000
49.20500 101.000
49.22000 131.000
49.23500 122.000
49.25000 122.000
49.26500 141.000
49.28000 138.000
49.29500 147.000
49.31000 141.000
49.32500 134.000
49.34000 126.000
49.35500 136.000
49.37000 122.000
49.38500 126.000
49.40000 119.000
49.41500 128.000
49.43000 152.000
49.44500 143.000
49.46000 124.000
49.47500 138.000
49.49000 128.000
49.50500 132.000
49.52000 125.000
49.53500 114.000
49.55000 122.000
49.56500 123.000
49.58000 144.000
49.59500 130.000
49.61000 124.000
49.62500 126.000
49.64000 125.000
49.65500 129.000
49.67000 116.000
49.68500 113.000
49.70000 122.000
49.71500 117.000
49.73000 113.000
49.74500 116.000
49.76000 130.000
49.77500 124.000
49.79000 123.000
49.80500 120.000
49.82000 117.000
49.83500 137.000
49.85000 124.000
49.86500 117.000
49.88000 130.000
49.89500 128.000
49.91000 136.000
49.92500 132.000
49.94000 136.000
49.95500 140.000
49.97000 127.000
49.98500 126.000
50.00000 148.000
50.01500 123.000
50.03000 106.000
50.04500 132.000
50.06000 122.000
50.07500 119.000
50.09000 122.000
50.10500 139.000
50.12000 132.000
50.13500 128.000
50.15000 119.000
50.16500 110.000
50.18000 120.000
50.19500 128.000
50.21000 139.000
50.22500 142.000
50.24000 126.000
50.25500 112.000
50.27000 121.000
50.28500 143.000
50.30000 117.000
50.31500 125.000
50.33000 113.000
50.34500 125.000
50.36000 120.000
50.37500 136.000
50.39000 130.000
50.40500 116.000
50.42000 123.000
50.43500 120.000
50.45000 126.000
50.46500 132.000
50.48000 137.000
50.49500 149.000
50.51000 140.000
50.52500 126.000
50.54000 121.000
50.55500 129.000
50.57000 120.000
50.58500 119.000
50.60000 131.000
50.61500 148.000
50.63000 135.000
50.64500 138.000
50.66000 134.000
50.67500 117.000
50.69000 122.000
50.70500 124.000
50.72000 130.000
50.73500 124.000
50.75000 127.000
50.76500 132.000
50.78000 127.000
50.79500 129.000
50.81000 124.000
50.82500 121.000
50.84000 129.000
50.85500 127.000
50.87000 121.000
50.88500 137.000
50.90000 126.000
50.91500 116.000
50.93000 117.000
50.94500 128.000
50.96000 125.000
50.97500 124.000
50.99000 118.000
51.00500 113.000
51.02000 109.000
51.03500 121.000
51.05000 113.000
51.06500 110.000
51.08000 114.000
51.09500 128.000
51.11000 123.000
51.12500 132.000
51.14000 115.000
51.15500 126.000
51.17000 129.000
51.18500 122.000
51.20000 126.000
51.21500 115.000
51.23000 121.000
51.24500 108.000
51.26000 117.000
51.27500 123.000
51.29000 106.000
51.30500 124.000
51.32000 134.000
51.33500 125.000
51.35000 129.000
51.36500 132.000
51.38000 110.000
51.39500 118.000
51.41000 128.000
51.42500 133.000
51.44000 119.000
51.45500 122.000
51.47000 128.000
51.48500 123.000
51.50000 132.000
51.51500 118.000
51.53000 111.000
51.54500 134.000
51.56000 122.000
51.57500 126.000
51.59000 118.000
51.60500 114.000
51.62000 122.000
51.63500 126.000
51.65000 107.000
51.66500 112.000
51.68000 135.000
51.69500 107.000
51.71000 115.000
51.72500 126.000
51.74000 118.000
51.75500 117.000
51.77000 115.000
51.78500 116.000
51.80000 105.000
51.81500 104.000
51.83000 107.000
51.84500 118.000
51.86000 125.000
51.87500 121.000
51.89000 114.000
51.90500 130.000
51.92000 136.000
51.93500 112.000
51.95000 111.000
51.96500 131.000
51.98000 119.000
51.99500 130.000
52.01000 115.000
52.02500 121.000
52.04000 110.000
52.05500 131.000
52.07000 132.000
52.08500 118.000
52.10000 111.000
52.11500 109.000
52.13000 124.000
52.14500 122.000
52.16000 116.000
52.17500 106.000
52.19000 142.000
52.20500 127.000
52.22000 122.000
52.23500 140.000
52.25000 139.000
52.26500 133.000
52.28000 131.000
52.29500 130.000
52.31000 139.000
52.32500 136.000
52.34000 109.000
52.35500 112.000
52.37000 111.000
52.38500 121.000
52.40000 122.000
52.41500 125.000
52.43000 120.000
52.44500 126.000
52.46000 112.000
52.47500 127.000
52.49000 126.000
52.50500 121.000
52.52000 129.000
52.53500 120.000
52.55000 111.000
52.56500 128.000
52.58000 126.000
52.59500 135.000
52.61000 125.000
52.62500 128.000
52.64000 130.000
52.65500 120.000
52.67000 131.000
52.68500 128.000
52.70000 130.000
52.71500 133.000
52.73000 130.000
52.74500 119.000
52.76000 130.000
52.77500 106.000
52.79000 113.000
52.80500 130.000
52.82000 127.000
52.83500 115.000
52.85000 116.000
52.86500 125.000
52.88000 138.000
52.89500 127.000
52.91000 117.000
52.92500 115.000
52.94000 118.000
52.95500 120.000
52.97000 134.000
52.98500 118.000
53.00000 118.000
53.01500 106.000
53.03000 117.000
53.04500 122.000
53.06000 115.000
53.07500 130.000
53.09000 132.000
53.10500 129.000
53.12000 129.000
53.13500 117.000
53.15000 114.000
53.16500 115.000
53.18000 99.000
53.19500 124.000
53.21000 130.000
53.22500 128.000
53.24000 115.000
53.25500 119.000
53.27000 141.000
53.28500 127.000
53.30000 138.000
53.31500 114.000
53.33000 125.000
53.34500 113.000
53.36000 122.000
53.37500 107.000
53.39000 122.000
53.40500 136.000
53.42000 137.000
53.43500 133.000
53.45000 117.000
53.46500 123.000
53.48000 115.000
53.49500 120.000
53.51000 131.000
53.52500 127.000
53.54000 119.000
53.55500 113.000
53.57000 118.000
53.58500 123.000
53.60000 126.000
53.61500 130.000
53.63000 129.000
53.64500 123.000
53.66000 114.000
53.67500 119.000
53.69000 122.000
53.70500 113.000
53.72000 107.000
53.73500 112.000
53.75000 113.000
53.76500 101.000
53.78000 120.000
53.79500 133.000
53.81000 125.000
53.82500 119.000
53.84000 116.000
53.85500 121.000
53.87000 118.000
53.88500 121.000
53.90000 117.000
53.91500 121.000
53.93000 127.000
53.94500 120.000
53.96000 126.000
53.97500 126.000
53.99000 121.000
54.00500 117.000
54.02000 113.000
54.03500 104.000
54.05000 106.000
54.06500 124.000
54.08000 110.000
54.09500 120.000
54.11000 120.000
54.12500 136.000
54.14000 142.000
54.15500 127.000
54.17000 122.000
54.18500 128.000
54.20000 113.000
54.21500 119.000
54.23000 126.000
54.24500 118.000
54.26000 125.000
54.27500 110.000
54.29000 118.000
54.30500 122.000
54.32000 130.000
54.33500 138.000
54.35000 119.000
54.36500 122.000
54.38000 123.000
54.39500 129.000
54.41000 112.000
54.42500 110.000
54.44000 103.000
54.45500 102.000
54.47000 125.000
54.48500 126.000
54.50000 112.000
54.51500 116.000
54.53000 121.000
54.54500 127.000
54.56000 126.000
54.57500 129.000
54.59000 128.000
54.60500 125.000
54.62000 111.000
54.63500 110.000
54.65000 125.000
54.66500 144.000
54.68000 114.000
54.69500 116.000
54.71000 118.000
54.72500 119.000
54.74000 123.000
54.75500 129.000
54.77000 137.000
54.78500 117.000
54.80000 122.000
54.81500 125.000
54.83000 118.000
54.84500 132.000
54.86000 123.000
54.87500 127.000
54.89000 116.000
54.90500 115.000
54.92000 130.000
54.93500 115.000
54.95000 120.000
54.96500 120.000
54.98000 114.000
54.99500 110.000
55.01000 129.000
55.02500 123.000
55.04000 117.000
55.05500 116.000
55.07000 119.000
55.08500 128.000
55.10000 118.000
55.11500 114.000
55.13000 116.000
55.14500 129.000
55.16000 104.000
55.17500 111.000
55.19000 114.000
55.20500 120.000
55.22000 121.000
55.23500 114.000
55.25000 129.000
55.26500 120.000
55.28000 116.000
55.29500 113.000
55.31000 104.000
55.32500 116.000
55.34000 125.000
55.35500 121.000
55.37000 128.000
55.38500 129.000
55.40000 121.000
55.41500 110.000
55.43000 118.000
55.44500 118.000
55.46000 128.000
55.47500 122.000
55.49000 119.000
55.50500 114.000
55.52000 121.000
55.53500 128.000
55.55000 114.000
55.56500 105.000
55.58000 121.000
55.59500 111.000
55.61000 114.000
55.62500 118.000
55.64000 113.000
55.65500 117.000
55.67000 132.000
55.68500 110.000
55.70000 118.000
55.71500 111.000
55.73000 123.000
55.74500 133.000
55.76000 126.000
55.77500 123.000
55.79000 112.000
55.80500 110.000
55.82000 121.000
55.83500 119.000
55.85000 114.000
55.86500 94.000
55.88000 122.000
55.89500 124.000
55.91000 120.000
55.92500 107.000
55.94000 126.000
55.95500 128.000
55.97000 129.000
55.98500 119.000
56.00000 97.000
56.01500 98.000
56.03000 117.000
56.04500 120.000
56.06000 125.000
56.07500 130.000
56.09000 119.000
56.10500 124.000
56.12000 105.000
56.13500 118.000
56.15000 128.000
56.16500 122.000
56.18000 139.000
56.19500 123.000
56.21000 97.000
56.22500 108.000
56.24000 144.000
56.25500 105.000
56.27000 130.000
56.28500 120.000
56.30000 109.000
56.31500 120.000
56.33000 117.000
56.34500 111.000
56.36000 121.000
56.37500 119.000
56.39000 117.000
56.40500 124.000
56.42000 128.000
56.43500 123.000
56.45000 112.000
56.46500 113.000
56.48000 119.000
56.49500 122.000
56.51000 117.000
56.52500 104.000
56.54000 103.000
56.55500 114.000
56.57000 122.000
56.58500 131.000
56.60000 130.000
56.61500 135.000
56.63000 118.000
56.64500 118.000
56.66000 119.000
56.67500 124.000
56.69000 116.000
56.70500 109.000
56.72000 109.000
56.73500 124.000
56.75000 108.000
56.76500 117.000
56.78000 123.000
56.79500 115.000
56.81000 117.000
56.82500 132.000
56.84000 127.000
56.85500 110.000
56.87000 121.000
56.88500 122.000
56.90000 104.000
56.91500 125.000
56.93000 128.000
56.94500 114.000
56.96000 125.000
56.97500 129.000
56.99000 114.000
57.00500 117.000
57.02000 113.000
57.03500 114.000
57.05000 118.000
57.06500 112.000
57.08000 107.000
57.09500 120.000
57.11000 127.000
57.12500 116.000
57.14000 117.000
57.15500 126.000
57.17000 130.000
57.18500 110.000
57.20000 103.000
57.21500 116.000
57.23000 117.000
57.24500 111.000
57.26000 110.000
57.27500 122.000
57.29000 118.000
57.30500 131.000
57.32000 135.000
57.33500 118.000
57.35000 116.000
57.36500 126.000
57.38000 97.000
57.39500 106.000
57.41000 116.000
57.42500 110.000
57.44000 118.000
57.45500 129.000
57.47000 120.000
57.48500 122.000
57.50000 129.000
57.51500 113.000
57.53000 113.000
57.54500 131.000
57.56000 117.000
57.57500 117.000
57.59000 124.000
57.60500 121.000
57.62000 127.000
57.63500 136.000
57.65000 128.000
57.66500 119.000
57.68000 126.000
57.69500 121.000
57.71000 114.000
57.72500 116.000
57.74000 113.000
57.75500 109.000
57.77000 118.000
57.78500 132.000
57.80000 124.000
57.81500 117.000
57.83000 114.000
57.84500 108.000
57.86000 100.000
57.87500 107.000
57.89000 113.000
57.90500 119.000
57.92000 116.000
57.93500 124.000
57.95000 106.000
57.96500 128.000
57.98000 124.000
57.99500 114.000
58.01000 138.000
58.02500 125.000
58.04000 126.000
58.05500 127.000
58.07000 113.000
58.08500 115.000
58.10000 115.000
58.11500 131.000
58.13000 126.000
58.14500 122.000
58.16000 112.000
58.17500 115.000
58.19000 108.000
58.20500 125.000
58.22000 126.000
58.23500 94.000
58.25000 101.000
58.26500 106.000
58.28000 110.000
58.29500 104.000
58.31000 122.000
58.32500 120.000
58.34000 111.000
58.35500 125.000
58.37000 113.000
58.38500 107.000
58.40000 115.000
58.41500 97.000
58.43000 109.000
58.44500 112.000
58.46000 100.000
58.47500 118.000
58.49000 127.000
58.50500 119.000
58.52000 120.000
58.53500 119.000
58.55000 107.000
58.56500 101.000
58.58000 104.000
58.59500 108.000
58.61000 108.000
58.62500 113.000
58.64000 105.000
58.65500 119.000
58.67000 119.000
58.68500 95.000
58.70000 116.000
58.71500 110.000
58.73000 115.000
58.74500 106.000
58.76000 103.000
58.77500 125.000
58.79000 123.000
58.80500 107.000
58.82000 117.000
58.83500 116.000
58.85000 111.000
58.86500 108.000
58.88000 101.000
58.89500 112.000
58.91000 114.000
58.92500 112.000
58.94000 104.000
58.95500 124.000
58.97000 117.000
58.98500 104.000
59.00000 106.000
59.01500 104.000
59.03000 108.000
59.04500 110.000
59.06000 99.000
59.07500 103.000
59.09000 107.000
59.10500 103.000
59.12000 93.000
59.13500 114.000
59.15000 110.000
59.16500 108.000
59.18000 125.000
59.19500 115.000
59.21000 113.000
59.22500 107.000
59.24000 100.000
59.25500 106.000
59.27000 116.000
59.28500 115.000
59.30000 113.000
59.31500 111.000
59.33000 106.000
59.34500 107.000
59.36000 102.000
59.37500 111.000
59.39000 113.000
59.40500 98.000
59.42000 110.000
59.43500 125.000
59.45000 116.000
59.46500 108.000
59.48000 122.000
59.49500 117.000
59.51000 96.000
59.52500 116.000
59.54000 113.000
59.55500 115.000
59.57000 113.000
59.58500 110.000
59.60000 101.000
59.61500 101.000
59.63000 102.000
59.64500 105.000
59.66000 108.000
59.67500 117.000
59.69000 112.000
59.70500 98.000
59.72000 135.000
59.73500 114.000
59.75000 105.000
59.76500 93.000
59.78000 99.000
59.79500 114.000
59.81000 114.000
59.82500 119.000
59.84000 103.000
59.85500 111.000
59.87000 111.000
59.88500 108.000
59.90000 112.000
59.91500 115.000
59.93000 111.000
59.94500 107.000
59.96000 119.000
59.97500 119.000
59.99000 102.000
60.00500 110.000
60.02000 111.000
60.03500 110.000
60.05000 99.000
60.06500 118.000
60.08000 108.000
60.09500 115.000
60.11000 126.000
60.12500 123.000
60.14000 120.000
60.15500 120.000
60.17000 103.000
60.18500 106.000
60.20000 100.000
60.21500 120.000
60.23000 110.000
60.24500 117.000
60.26000 138.000
60.27500 109.000
60.29000 108.000
60.30500 103.000
60.32000 114.000
60.33500 100.000
60.35000 108.000
60.36500 114.000
60.38000 110.000
60.39500 113.000
60.41000 106.000
60.42500 97.000
60.44000 114.000
60.45500 101.000
60.47000 112.000
60.48500 103.000
60.50000 113.000
60.51500 120.000
60.53000 123.000
60.54500 106.000
60.56000 116.000
60.57500 103.000
60.59000 119.000
60.60500 100.000
60.62000 103.000
60.63500 105.000
60.65000 106.000
60.66500 111.000
60.68000 99.000
60.69500 109.000
60.71000 114.000
60.72500 123.000
60.74000 107.000
60.75500 122.000
60.77000 115.000
60.78500 116.000
60.80000 116.000
60.81500 117.000
60.83000 124.000
60.84500 109.000
60.86000 100.000
60.87500 101.000
60.89000 103.000
60.90500 85.000
60.92000 101.000
60.93500 108.000
60.95000 113.000
60.96500 105.000
60.98000 113.000
60.99500 114.000
61.01000 102.000
61.02500 112.000
61.04000 109.000
61.05500 95.000
61.07000 109.000
61.08500 114.000
61.10000 117.000
61.11500 124.000
61.13000 118.000
61.14500 118.000
61.16000 117.000
61.17500 115.000
61.19000 112.000
61.20500 100.000
61.22000 97.000
61.23500 116.000
61.25000 124.000
61.26500 113.000
61.28000 115.000
61.29500 121.000
61.31000 104.000
61.32500 99.000
61.34000 115.000
61.35500 117.000
61.37000 101.000
61.38500 116.000
61.40000 94.000
61.41500 100.000
61.43000 107.000
61.44500 109.000
61.46000 120.000
61.47500 112.000
61.49000 108.000
61.50500 104.000
61.52000 113.000
61.53500 100.000
61.55000 87.000
61.56500 100.000
61.58000 112.000
61.59500 118.000
61.61000 116.000
61.62500 106.000
61.64000 114.000
61.65500 121.000
61.67000 119.000
61.68500 108.000
61.70000 104.000
61.71500 101.000
61.73000 109.000
61.74500 120.000
61.76000 118.000
61.77500 101.000
61.79000 99.000
61.80500 120.000
61.82000 138.000
61.83500 103.000
61.85000 106.000
61.86500 109.000
61.88000 120.000
61.89500 110.000
61.91000 116.000
61.92500 103.000
61.94000 110.000
61.95500 105.000
61.97000 119.000
61.98500 102.000
