2.000 569.0
2.015 538.0
2.030 547.0
2.045 518.0
2.060 552.0
2.075 512.0
2.090 500.0
2.105 469.0
2.120 497.0
2.135 488.0
2.150 454.0
2.165 452.0
2.180 439.0
2.195 438.0
2.210 450.0
2.225 433.0
2.240 432.0
2.255 415.0
2.270 374.0
2.285 386.0
2.300 419.0
2.315 395.0
2.330 375.0
2.345 374.0
2.360 385.0
2.375 386.0
2.390 373.0
2.405 371.0
2.420 363.0
2.435 357.0
2.450 311.0
2.465 325.0
2.480 359.0
2.495 339.0
2.510 339.0
2.525 328.0
2.540 308.0
2.555 332.0
2.570 335.0
2.585 297.0
2.600 292.0
2.615 300.0
2.630 305.0
2.645 290.0
2.660 288.0
2.675 269.0
2.690 293.0
2.705 275.0
2.720 280.0
2.735 268.0
2.750 274.0
2.765 292.0
2.780 293.0
2.795 297.0
2.810 252.0
2.825 277.0
2.840 249.0
2.855 246.0
2.870 259.0
2.885 259.0
2.900 249.0
2.915 242.0
2.930 275.0
2.945 262.0
2.960 262.0
2.975 252.0
2.990 261.0
3.005 236.0
3.020 213.0
3.035 234.0
3.050 225.0
3.065 234.0
3.080 239.0
3.095 241.0
3.110 246.0
3.125 222.0
3.140 232.0
3.155 218.0
3.170 220.0
3.185 231.0
3.200 223.0
3.215 229.0
3.230 223.0
3.245 192.0
3.260 220.0
3.275 221.0
3.290 227.0
3.305 229.0
3.320 228.0
3.335 213.0
3.350 196.0
3.365 197.0
3.380 194.0
3.395 201.0
3.410 222.0
3.425 206.0
3.440 212.0
3.455 201.0
3.470 228.0
3.485 217.0
3.500 208.0
3.515 222.0
3.530 218.0
3.545 213.0
3.560 200.0
3.575 201.0
3.590 184.0
3.605 203.0
3.620 193.0
3.635 195.0
3.650 180.0
3.665 193.0
3.680 206.0
3.695 205.0
3.710 173.0
3.725 175.0
3.740 177.0
3.755 181.0
3.770 161.0
3.785 189.0
3.800 179.0
3.815 193.0
3.830 186.0
3.845 202.0
3.860 204.0
3.875 206.0
3.890 182.0
3.905 179.0
3.920 184.0
3.935 182.0
3.950 202.0
3.965 195.0
3.980 187.0
3.995 194.0
4.010 180.0
4.025 178.0
4.040 195.0
4.055 211.0
4.070 199.0
4.085 197.0
4.100 204.0
4.115 185.0
4.130 182.0
4.145 183.0
4.160 173.0
4.175 192.0
4.190 196.0
4.205 186.0
4.220 203.0
4.235 187.0
4.250 169.0
4.265 197.0
4.280 183.0
4.295 215.0
4.310 197.0
4.325 179.0
4.340 190.0
4.355 196.0
4.370 198.0
4.385 207.0
4.400 189.0
4.415 195.0
4.430 207.0
4.445 176.0
4.460 172.0
4.475 178.0
4.490 191.0
4.505 185.0
4.520 193.0
4.535 193.0
4.550 185.0
4.565 169.0
4.580 172.0
4.595 177.0
4.610 188.0
4.625 177.0
4.640 181.0
4.655 182.0
4.670 165.0
4.685 179.0
4.700 166.0
4.715 168.0
4.730 179.0
4.745 171.0
4.760 189.0
4.775 184.0
4.790 171.0
4.805 178.0
4.820 173.0
4.835 177.0
4.850 164.0
4.865 185.0
4.880 183.0
4.895 186.0
4.910 182.0
4.925 189.0
4.940 187.0
4.955 180.0
4.970 190.0
4.985 182.0
5.000 191.0
5.015 189.0
5.030 190.0
5.045 192.0
5.060 164.0
5.075 194.0
5.090 200.0
5.105 193.0
5.120 165.0
5.135 181.0
5.150 195.0
5.165 189.0
5.180 172.0
5.195 165.0
5.210 196.0
5.225 197.0
5.240 182.0
5.255 179.0
5.270 167.0
5.285 192.0
5.300 169.0
5.315 179.0
5.330 179.0
5.345 162.0
5.360 159.0
5.375 167.0
5.390 208.0
5.405 203.0
5.420 182.0
5.435 181.0
5.450 177.0
5.465 156.0
5.480 194.0
5.495 176.0
5.510 163.0
5.525 170.0
5.540 181.0
5.555 163.0
5.570 179.0
5.585 193.0
5.600 181.0
5.615 180.0
5.630 178.0
5.645 189.0
5.660 177.0
5.675 193.0
5.690 179.0
5.705 187.0
5.720 198.0
5.735 190.0
5.750 185.0
5.765 194.0
5.780 176.0
5.795 198.0
5.810 201.0
5.825 195.0
5.840 197.0
5.855 201.0
5.870 217.0
5.885 215.0
5.900 231.0
5.915 217.0
5.930 217.0
5.945 216.0
5.960 220.0
5.975 224.0
5.990 234.0
6.005 243.0
6.020 259.0
6.035 304.0
6.050 293.0
6.065 324.0
6.080 371.0
6.095 392.0
6.110 419.0
6.125 458.0
6.140 528.0
6.155 533.0
6.170 483.0
6.185 418.0
6.200 302.0
6.215 260.0
6.230 225.0
6.245 206.0
6.260 200.0
6.275 198.0
6.290 203.0
6.305 190.0
6.320 170.0
6.335 161.0
6.350 174.0
6.365 176.0
6.380 202.0
6.395 204.0
6.410 188.0
6.425 169.0
6.440 178.0
6.455 176.0
6.470 176.0
6.485 192.0
6.500 183.0
6.515 184.0
6.530 180.0
6.545 193.0
6.560 156.0
6.575 169.0
6.590 187.0
6.605 192.0
6.620 195.0
6.635 178.0
6.650 194.0
6.665 188.0
6.680 188.0
6.695 195.0
6.710 170.0
6.725 199.0
6.740 190.0
6.755 182.0
6.770 174.0
6.785 183.0
6.800 158.0
6.815 176.0
6.830 180.0
6.845 192.0
6.860 187.0
6.875 168.0
6.890 175.0
6.905 174.0
6.920 180.0
6.935 185.0
6.950 190.0
6.965 176.0
6.980 171.0
6.995 165.0
7.010 189.0
7.025 197.0
7.040 182.0
7.055 185.0
7.070 190.0
7.085 194.0
7.100 192.0
7.115 189.0
7.130 163.0
7.145 164.0
7.160 181.0
7.175 194.0
7.190 173.0
7.205 173.0
7.220 180.0
7.235 202.0
7.250 168.0
7.265 187.0
7.280 195.0
7.295 189.0
7.310 177.0
7.325 186.0
7.340 186.0
7.355 191.0
7.370 188.0
7.385 186.0
7.400 182.0
7.415 182.0
7.430 175.0
7.445 167.0
7.460 174.0
7.475 180.0
7.490 178.0
7.505 169.0
7.520 182.0
7.535 166.0
7.550 188.0
7.565 177.0
7.580 166.0
7.595 194.0
7.610 189.0
7.625 182.0
7.640 178.0
7.655 172.0
7.670 190.0
7.685 192.0
7.700 175.0
7.715 193.0
7.730 194.0
7.745 176.0
7.760 182.0
7.775 196.0
7.790 181.0
7.805 190.0
7.820 176.0
7.835 161.0
7.850 176.0
7.865 174.0
7.880 182.0
7.895 180.0
7.910 181.0
7.925 161.0
7.940 175.0
7.955 171.0
7.970 172.0
7.985 193.0
8.000 181.0
8.015 183.0
8.030 191.0
8.045 189.0
8.060 183.0
8.075 185.0
8.090 198.0
8.105 161.0
8.120 168.0
8.135 175.0
8.150 175.0
8.165 182.0
8.180 177.0
8.195 163.0
8.210 159.0
8.225 190.0
8.240 178.0
8.255 167.0
8.270 177.0
8.285 175.0
8.300 179.0
8.315 191.0
8.330 192.0
8.345 175.0
8.360 159.0
8.375 179.0
8.390 176.0
8.405 168.0
8.420 172.0
8.435 175.0
8.450 178.0
8.465 177.0
8.480 167.0
8.495 178.0
8.510 183.0
8.525 173.0
8.540 179.0
8.555 181.0
8.570 185.0
8.585 194.0
8.600 198.0
8.615 178.0
8.630 174.0
8.645 170.0
8.660 158.0
8.675 182.0
8.690 176.0
8.705 185.0
8.720 185.0
8.735 184.0
8.750 176.0
8.765 178.0
8.780 171.0
8.795 169.0
8.810 187.0
8.825 177.0
8.840 184.0
8.855 188.0
8.870 171.0
8.885 195.0
8.900 186.0
8.915 185.0
8.930 181.0
8.945 163.0
8.960 163.0
8.975 185.0
8.990 183.0
9.005 187.0
9.020 170.0
9.035 167.0
9.050 173.0
9.065 179.0
9.080 194.0
9.095 202.0
9.110 182.0
9.125 184.0
9.140 184.0
9.155 196.0
9.170 180.0
9.185 180.0
9.200 172.0
9.215 183.0
9.230 174.0
9.245 170.0
9.260 184.0
9.275 182.0
9.290 194.0
9.305 192.0
9.320 199.0
9.335 176.0
9.350 181.0
9.365 176.0
9.380 176.0
9.395 193.0
9.410 174.0
9.425 191.0
9.440 190.0
9.455 168.0
9.470 190.0
9.485 190.0
9.500 183.0
9.515 189.0
9.530 186.0
9.545 180.0
9.560 175.0
9.575 191.0
9.590 164.0
9.605 171.0
9.620 174.0
9.635 187.0
9.650 169.0
9.665 176.0
9.680 165.0
9.695 191.0
9.710 175.0
9.725 166.0
9.740 155.0
9.755 155.0
9.770 172.0
9.785 172.0
9.800 179.0
9.815 178.0
9.830 193.0
9.845 199.0
9.860 179.0
9.875 165.0
9.890 182.0
9.905 192.0
9.920 184.0
9.935 188.0
9.950 181.0
9.965 185.0
9.980 180.0
9.995 196.0
10.010 179.0
10.025 183.0
10.040 169.0
10.055 189.0
10.070 179.0
10.085 193.0
10.100 196.0
10.115 199.0
10.130 173.0
10.145 164.0
10.160 187.0
10.175 179.0
10.190 178.0
10.205 185.0
10.220 196.0
10.235 195.0
10.250 209.0
10.265 197.0
10.280 179.0
10.295 189.0
10.310 171.0
10.325 188.0
10.340 175.0
10.355 175.0
10.370 191.0
10.385 170.0
10.400 187.0
10.415 176.0
10.430 175.0
10.445 197.0
10.460 190.0
10.475 166.0
10.490 172.0
10.505 172.0
10.520 163.0
10.535 182.0
10.550 187.0
10.565 174.0
10.580 201.0
10.595 189.0
10.610 193.0
10.625 185.0
10.640 170.0
10.655 175.0
10.670 187.0
10.685 198.0
10.700 196.0
10.715 195.0
10.730 200.0
10.745 187.0
10.760 185.0
10.775 192.0
10.790 188.0
10.805 183.0
10.820 193.0
10.835 182.0
10.850 177.0
10.865 182.0
10.880 184.0
10.895 172.0
10.910 186.0
10.925 203.0
10.940 204.0
10.955 193.0
10.970 190.0
10.985 180.0
11.000 170.0
11.015 191.0
11.030 214.0
11.045 207.0
11.060 188.0
11.075 180.0
11.090 186.0
11.105 190.0
11.120 205.0
11.135 203.0
11.150 184.0
11.165 214.0
11.180 210.0
11.195 193.0
11.210 198.0
11.225 176.0
11.240 194.0
11.255 206.0
11.270 198.0
11.285 195.0
11.300 194.0
11.315 206.0
11.330 191.0
11.345 192.0
11.360 191.0
11.375 182.0
11.390 185.0
11.405 200.0
11.420 208.0
11.435 199.0
11.450 196.0
11.465 177.0
11.480 174.0
11.495 190.0
11.510 189.0
11.525 199.0
11.540 218.0
11.555 193.0
11.570 186.0
11.585 193.0
11.600 188.0
11.615 172.0
11.630 191.0
11.645 178.0
11.660 211.0
11.675 202.0
11.690 209.0
11.705 186.0
11.720 182.0
11.735 194.0
11.750 199.0
11.765 212.0
11.780 202.0
11.795 209.0
11.810 194.0
11.825 204.0
11.840 198.0
11.855 210.0
11.870 215.0
11.885 203.0
11.900 195.0
11.915 193.0
11.930 218.0
11.945 234.0
11.960 206.0
11.975 221.0
11.990 252.0
12.005 248.0
12.020 252.0
12.035 285.0
12.050 265.0
12.065 267.0
12.080 309.0
12.095 342.0
12.110 414.0
12.125 451.0
12.140 472.0
12.155 532.0
12.170 632.0
12.185 703.0
12.200 775.0
12.215 891.0
12.230 946.0
"12.245     1043" 
"12.260     1120" 
"12.275     1166" 
"12.290     1181" 
"12.305     1274" 
"12.320     1250" 
"12.335     1176" 
12.350 917.0
12.365 652.0
12.380 503.0
12.395 417.0
12.410 357.0
12.425 329.0
12.440 302.0
12.455 298.0
12.470 313.0
12.485 302.0
12.500 294.0
12.515 275.0
12.530 286.0
12.545 296.0
12.560 285.0
12.575 283.0
12.590 265.0
12.605 262.0
12.620 283.0
12.635 295.0
12.650 290.0
12.665 262.0
12.680 272.0
12.695 268.0
12.710 233.0
12.725 297.0
12.740 267.0
12.755 285.0
12.770 265.0
12.785 245.0
12.800 246.0
12.815 259.0
12.830 260.0
12.845 249.0
12.860 247.0
12.875 245.0
12.890 266.0
12.905 267.0
12.920 257.0
12.935 251.0
12.950 247.0
12.965 239.0
12.980 264.0
12.995 264.0
13.010 261.0
13.025 244.0
13.040 226.0
13.055 254.0
13.070 264.0
13.085 274.0
13.100 241.0
13.115 241.0
13.130 246.0
13.145 255.0
13.160 251.0
13.175 241.0
13.190 266.0
13.205 268.0
13.220 266.0
13.235 263.0
13.250 271.0
13.265 288.0
13.280 294.0
13.295 294.0
13.310 311.0
13.325 300.0
13.340 311.0
13.355 340.0
13.370 352.0
13.385 344.0
13.400 366.0
13.415 373.0
13.430 367.0
13.445 339.0
13.460 313.0
13.475 311.0
13.490 300.0
13.505 269.0
13.520 241.0
13.535 282.0
13.550 277.0
13.565 270.0
13.580 258.0
13.595 284.0
13.610 260.0
13.625 234.0
13.640 279.0
13.655 283.0
13.670 276.0
13.685 257.0
13.700 247.0
13.715 262.0
13.730 264.0
13.745 236.0
13.760 226.0
13.775 228.0
13.790 225.0
13.805 251.0
13.820 235.0
13.835 233.0
13.850 225.0
13.865 221.0
13.880 231.0
13.895 218.0
13.910 229.0
13.925 217.0
13.940 233.0
13.955 219.0
13.970 237.0
13.985 212.0
14.000 224.0
14.015 216.0
14.030 208.0
14.045 202.0
14.060 222.0
14.075 202.0
14.090 226.0
14.105 227.0
14.120 223.0
14.135 249.0
14.150 227.0
14.165 244.0
14.180 213.0
14.195 219.0
14.210 204.0
14.225 237.0
14.240 228.0
14.255 212.0
14.270 222.0
14.285 246.0
14.300 227.0
14.315 223.0
14.330 204.0
14.345 231.0
14.360 228.0
14.375 216.0
14.390 207.0
14.405 216.0
14.420 206.0
14.435 231.0
14.450 220.0
14.465 209.0
14.480 220.0
14.495 205.0
14.510 211.0
14.525 222.0
14.540 223.0
14.555 222.0
14.570 216.0
14.585 224.0
14.600 227.0
14.615 225.0
14.630 218.0
14.645 234.0
14.660 227.0
14.675 235.0
14.690 219.0
14.705 199.0
14.720 208.0
14.735 207.0
14.750 210.0
14.765 229.0
14.780 216.0
14.795 221.0
14.810 207.0
14.825 207.0
14.840 225.0
14.855 210.0
14.870 212.0
14.885 211.0
14.900 209.0
14.915 243.0
14.930 208.0
14.945 212.0
14.960 240.0
14.975 228.0
14.990 219.0
15.005 229.0
15.020 213.0
15.035 196.0
15.050 222.0
15.065 207.0
15.080 196.0
15.095 206.0
15.110 207.0
15.125 239.0
15.140 216.0
15.155 187.0
15.170 201.0
15.185 223.0
15.200 222.0
15.215 217.0
15.230 193.0
15.245 191.0
15.260 203.0
15.275 199.0
15.290 230.0
15.305 223.0
15.320 210.0
15.335 207.0
15.350 233.0
15.365 197.0
15.380 188.0
15.395 218.0
15.410 218.0
15.425 204.0
15.440 195.0
15.455 206.0
15.470 204.0
15.485 197.0
15.500 220.0
15.515 213.0
15.530 185.0
15.545 197.0
15.560 210.0
15.575 224.0
15.590 216.0
15.605 213.0
15.620 204.0
15.635 228.0
15.650 222.0
15.665 220.0
15.680 200.0
15.695 216.0
15.710 223.0
15.725 224.0
15.740 205.0
15.755 196.0
15.770 200.0
15.785 220.0
15.800 216.0
15.815 211.0
15.830 211.0
15.845 203.0
15.860 227.0
15.875 209.0
15.890 192.0
15.905 217.0
15.920 208.0
15.935 220.0
15.950 209.0
15.965 229.0
15.980 223.0
15.995 206.0
16.010 199.0
16.025 227.0
16.040 196.0
16.055 214.0
16.070 201.0
16.085 218.0
16.100 234.0
16.115 248.0
16.130 224.0
16.145 208.0
16.160 198.0
16.175 211.0
16.190 235.0
16.205 229.0
16.220 223.0
16.235 236.0
16.250 235.0
16.265 246.0
16.280 218.0
16.295 234.0
16.310 247.0
16.325 245.0
16.340 245.0
16.355 241.0
16.370 259.0
16.385 258.0
16.400 242.0
16.415 240.0
16.430 252.0
16.445 244.0
16.460 235.0
16.475 234.0
16.490 259.0
16.505 242.0
16.520 231.0
16.535 237.0
16.550 245.0
16.565 223.0
16.580 220.0
16.595 250.0
16.610 206.0
16.625 204.0
16.640 199.0
16.655 190.0
16.670 224.0
16.685 205.0
16.700 204.0
16.715 236.0
16.730 228.0
16.745 214.0
16.760 218.0
16.775 240.0
16.790 234.0
16.805 220.0
16.820 234.0
16.835 242.0
16.850 256.0
16.865 231.0
16.880 229.0
16.895 228.0
16.910 223.0
16.925 239.0
16.940 235.0
16.955 234.0
16.970 231.0
16.985 223.0
17.000 213.0
17.015 229.0
17.030 239.0
17.045 220.0
17.060 225.0
17.075 229.0
17.090 220.0
17.105 223.0
17.120 222.0
17.135 208.0
17.150 232.0
17.165 237.0
17.180 247.0
17.195 248.0
17.210 219.0
17.225 220.0
17.240 231.0
17.255 227.0
17.270 213.0
17.285 226.0
17.300 234.0
17.315 225.0
17.330 209.0
17.345 225.0
17.360 240.0
17.375 232.0
17.390 198.0
17.405 218.0
17.420 233.0
17.435 248.0
17.450 238.0
17.465 220.0
17.480 209.0
17.495 215.0
17.510 232.0
17.525 226.0
17.540 204.0
17.555 225.0
17.570 238.0
17.585 230.0
17.600 239.0
17.615 245.0
17.630 231.0
17.645 222.0
17.660 247.0
17.675 238.0
17.690 237.0
17.705 236.0
17.720 233.0
17.735 248.0
17.750 221.0
17.765 233.0
17.780 237.0
17.795 234.0
17.810 242.0
17.825 227.0
17.840 234.0
17.855 231.0
17.870 235.0
17.885 212.0
17.900 230.0
17.915 242.0
17.930 234.0
17.945 233.0
17.960 237.0
17.975 241.0
17.990 249.0
18.005 274.0
18.020 258.0
18.035 282.0
18.050 253.0
18.065 260.0
18.080 264.0
18.095 241.0
18.110 262.0
18.125 287.0
18.140 256.0
18.155 245.0
18.170 239.0
18.185 268.0
18.200 240.0
18.215 236.0
18.230 244.0
18.245 229.0
18.260 239.0
18.275 263.0
18.290 260.0
18.305 262.0
18.320 234.0
18.335 240.0
18.350 253.0
18.365 260.0
18.380 238.0
18.395 220.0
18.410 224.0
18.425 258.0
18.440 261.0
18.455 248.0
18.470 264.0
18.485 253.0
18.500 272.0
18.515 272.0
18.530 262.0
18.545 260.0
18.560 263.0
18.575 254.0
18.590 238.0
18.605 245.0
18.620 246.0
18.635 209.0
18.650 231.0
18.665 240.0
18.680 257.0
18.695 243.0
18.710 244.0
18.725 266.0
18.740 250.0
18.755 240.0
18.770 243.0
18.785 263.0
18.800 261.0
18.815 244.0
18.830 270.0
18.845 244.0
18.860 251.0
18.875 251.0
18.890 267.0
18.905 268.0
18.920 242.0
18.935 255.0
18.950 248.0
18.965 241.0
18.980 233.0
18.995 230.0
19.010 228.0
19.025 229.0
19.040 249.0
19.055 253.0
19.070 249.0
19.085 249.0
19.100 243.0
19.115 281.0
19.130 253.0
19.145 240.0
19.160 242.0
19.175 221.0
19.190 248.0
19.205 216.0
19.220 237.0
19.235 273.0
19.250 262.0
19.265 251.0
19.280 223.0
19.295 262.0
19.310 279.0
19.325 271.0
19.340 262.0
19.355 246.0
19.370 259.0
19.385 281.0
19.400 274.0
19.415 313.0
19.430 315.0
19.445 304.0
19.460 290.0
19.475 290.0
19.490 303.0
19.505 310.0
19.520 319.0
19.535 283.0
19.550 295.0
19.565 294.0
19.580 277.0
19.595 284.0
19.610 300.0
19.625 298.0
19.640 294.0
19.655 302.0
19.670 295.0
19.685 251.0
19.700 280.0
19.715 282.0
19.730 251.0
19.745 232.0
19.760 246.0
19.775 249.0
19.790 239.0
19.805 242.0
19.820 268.0
19.835 234.0
19.850 248.0
19.865 258.0
19.880 254.0
19.895 254.0
19.910 248.0
19.925 259.0
19.940 243.0
19.955 249.0
19.970 242.0
19.985 247.0
20.000 260.0
20.015 263.0
20.030 259.0
20.045 238.0
20.060 257.0
20.075 246.0
20.090 240.0
20.105 239.0
20.120 231.0
20.135 254.0
20.150 247.0
20.165 230.0
20.180 258.0
20.195 247.0
20.210 259.0
20.225 264.0
20.240 264.0
20.255 256.0
20.270 263.0
20.285 223.0
20.300 231.0
20.315 253.0
20.330 245.0
20.345 248.0
20.360 244.0
20.375 229.0
20.390 265.0
20.405 268.0
20.420 253.0
20.435 231.0
20.450 240.0
20.465 259.0
20.480 242.0
20.495 249.0
20.510 268.0
20.525 251.0
20.540 231.0
20.555 240.0
20.570 223.0
20.585 236.0
20.600 258.0
20.615 248.0
20.630 265.0
20.645 242.0
20.660 254.0
20.675 265.0
20.690 265.0
20.705 233.0
20.720 245.0
20.735 241.0
20.750 262.0
20.765 246.0
20.780 250.0
20.795 246.0
20.810 241.0
20.825 258.0
20.840 249.0
20.855 251.0
20.870 264.0
20.885 271.0
20.900 264.0
20.915 273.0
20.930 279.0
20.945 243.0
20.960 234.0
20.975 244.0
20.990 215.0
21.005 236.0
21.020 251.0
21.035 266.0
21.050 240.0
21.065 241.0
21.080 238.0
21.095 255.0
21.110 269.0
21.125 261.0
21.140 256.0
21.155 258.0
21.170 265.0
21.185 244.0
21.200 254.0
21.215 260.0
21.230 257.0
21.245 270.0
21.260 260.0
21.275 253.0
21.290 267.0
21.305 259.0
21.320 251.0
21.335 245.0
21.350 249.0
21.365 273.0
21.380 273.0
21.395 281.0
21.410 274.0
21.425 276.0
21.440 280.0
21.455 268.0
21.470 262.0
21.485 245.0
21.500 259.0
21.515 253.0
21.530 291.0
21.545 277.0
21.560 281.0
21.575 282.0
21.590 299.0
21.605 280.0
21.620 301.0
21.635 271.0
21.650 289.0
21.665 295.0
21.680 297.0
21.695 278.0
21.710 258.0
21.725 292.0
21.740 270.0
21.755 275.0
21.770 282.0
21.785 267.0
21.800 280.0
21.815 281.0
21.830 279.0
21.845 266.0
21.860 281.0
21.875 267.0
21.890 270.0
21.905 277.0
21.920 281.0
21.935 273.0
21.950 265.0
21.965 275.0
21.980 274.0
21.995 258.0
22.010 291.0
22.025 292.0
22.040 267.0
22.055 287.0
22.070 302.0
22.085 295.0
22.100 280.0
22.115 317.0
22.130 321.0
22.145 291.0
22.160 276.0
22.175 263.0
22.190 298.0
22.205 301.0
22.220 291.0
22.235 262.0
22.250 262.0
22.265 273.0
22.280 278.0
22.295 270.0
22.310 283.0
22.325 299.0
22.340 280.0
22.355 268.0
22.370 301.0
22.385 296.0
22.400 261.0
22.415 259.0
22.430 276.0
22.445 268.0
22.460 265.0
22.475 268.0
22.490 285.0
22.505 273.0
22.520 257.0
22.535 268.0
22.550 261.0
22.565 263.0
22.580 269.0
22.595 260.0
22.610 272.0
22.625 274.0
22.640 264.0
22.655 266.0
22.670 260.0
22.685 285.0
22.700 248.0
22.715 264.0
22.730 266.0
22.745 262.0
22.760 271.0
22.775 244.0
22.790 242.0
22.805 263.0
22.820 258.0
22.835 274.0
22.850 262.0
22.865 261.0
22.880 275.0
22.895 258.0
22.910 260.0
22.925 259.0
22.940 272.0
22.955 272.0
22.970 265.0
22.985 270.0
23.000 255.0
23.015 267.0
23.030 276.0
23.045 256.0
23.060 262.0
23.075 269.0
23.090 281.0
23.105 268.0
23.120 290.0
23.135 319.0
23.150 297.0
23.165 281.0
23.180 283.0
23.195 293.0
23.210 271.0
23.225 295.0
23.240 262.0
23.255 287.0
23.270 309.0
23.285 283.0
23.300 276.0
23.315 293.0
23.330 313.0
23.345 274.0
23.360 279.0
23.375 282.0
23.390 287.0
23.405 275.0
23.420 284.0
23.435 318.0
23.450 308.0
23.465 262.0
23.480 293.0
23.495 301.0
23.510 300.0
23.525 286.0
23.540 282.0
23.555 284.0
23.570 294.0
23.585 312.0
23.600 290.0
23.615 318.0
23.630 300.0
23.645 309.0
23.660 289.0
23.675 291.0
23.690 277.0
23.705 293.0
23.720 301.0
23.735 296.0
23.750 276.0
23.765 275.0
23.780 280.0
23.795 299.0
23.810 277.0
23.825 270.0
23.840 285.0
23.855 299.0
23.870 291.0
23.885 292.0
23.900 303.0
23.915 285.0
23.930 286.0
23.945 282.0
23.960 287.0
23.975 267.0
23.990 268.0
24.005 267.0
24.020 250.0
24.035 245.0
24.050 256.0
24.065 271.0
24.080 253.0
24.095 272.0
24.110 274.0
24.125 271.0
24.140 273.0
24.155 296.0
24.170 293.0
24.185 265.0
24.200 275.0
24.215 290.0
24.230 296.0
24.245 269.0
24.260 274.0
24.275 260.0
24.290 244.0
24.305 279.0
24.320 285.0
24.335 276.0
24.350 288.0
24.365 294.0
24.380 290.0
24.395 278.0
24.410 255.0
24.425 276.0
24.440 285.0
24.455 290.0
24.470 278.0
24.485 266.0
24.500 294.0
24.515 271.0
24.530 252.0
24.545 306.0
24.560 278.0
24.575 264.0
24.590 262.0
24.605 281.0
24.620 294.0
24.635 287.0
24.650 281.0
24.665 323.0
24.680 289.0
24.695 308.0
24.710 313.0
24.725 334.0
24.740 337.0
24.755 337.0
24.770 348.0
24.785 369.0
24.800 336.0
24.815 325.0
24.830 305.0
24.845 306.0
24.860 298.0
24.875 286.0
24.890 307.0
24.905 275.0
24.920 272.0
24.935 295.0
24.950 288.0
24.965 294.0
24.980 299.0
24.995 273.0
25.010 285.0
25.025 279.0
25.040 286.0
25.055 262.0
25.070 298.0
25.085 299.0
25.100 285.0
25.115 295.0
25.130 315.0
25.145 329.0
25.160 311.0
25.175 323.0
25.190 312.0
25.205 322.0
25.220 326.0
25.235 327.0
25.250 308.0
25.265 326.0
25.280 327.0
25.295 344.0
25.310 328.0
25.325 320.0
25.340 326.0
25.355 330.0
25.370 300.0
25.385 285.0
25.400 298.0
25.415 302.0
25.430 323.0
25.445 326.0
25.460 332.0
25.475 324.0
25.490 323.0
25.505 318.0
25.520 327.0
25.535 336.0
25.550 322.0
25.565 309.0
25.580 334.0
25.595 341.0
25.610 356.0
25.625 351.0
25.640 352.0
25.655 387.0
25.670 379.0
25.685 396.0
25.700 400.0
25.715 388.0
25.730 431.0
25.745 450.0
25.760 471.0
25.775 487.0
25.790 462.0
25.805 459.0
25.820 463.0
25.835 458.0
25.850 455.0
25.865 444.0
25.880 417.0
25.895 395.0
25.910 382.0
25.925 383.0
25.940 382.0
25.955 384.0
25.970 377.0
25.985 355.0
26.000 345.0
26.015 369.0
26.030 348.0
26.045 360.0
26.060 394.0
26.075 362.0
26.090 372.0
26.105 340.0
26.120 351.0
26.135 361.0
26.150 400.0
26.165 402.0
26.180 398.0
26.195 432.0
26.210 443.0
26.225 439.0
26.240 452.0
26.255 477.0
26.270 473.0
26.285 504.0
26.300 550.0
26.315 551.0
26.330 589.0
26.345 571.0
26.360 514.0
26.375 525.0
26.390 517.0
26.405 524.0
26.420 532.0
26.435 511.0
26.450 483.0
26.465 474.0
26.480 454.0
26.495 482.0
26.510 468.0
26.525 448.0
26.540 468.0
26.555 481.0
26.570 460.0
26.585 494.0
26.600 491.0
26.615 484.0
26.630 495.0
26.645 496.0
26.660 496.0
26.675 537.0
26.690 537.0
26.705 516.0
26.720 553.0
26.735 568.0
26.750 565.0
26.765 545.0
26.780 556.0
26.795 599.0
26.810 571.0
26.825 581.0
26.840 576.0
26.855 562.0
26.870 537.0
26.885 521.0
26.900 549.0
26.915 555.0
26.930 559.0
26.945 561.0
26.960 537.0
26.975 587.0
26.990 599.0
27.005 601.0
27.020 632.0
27.035 624.0
27.050 649.0
27.065 655.0
27.080 716.0
27.095 711.0
27.110 705.0
27.125 704.0
27.140 744.0
27.155 738.0
27.170 732.0
27.185 710.0
27.200 727.0
27.215 702.0
27.230 668.0
27.245 684.0
27.260 680.0
27.275 673.0
27.290 670.0
27.305 643.0
27.320 674.0
27.335 700.0
27.350 670.0
27.365 664.0
27.380 662.0
27.395 654.0
27.410 700.0
27.425 683.0
27.440 681.0
27.455 677.0
27.470 701.0
27.485 685.0
27.500 648.0
27.515 698.0
27.530 709.0
27.545 697.0
27.560 673.0
27.575 706.0
27.590 735.0
27.605 731.0
27.620 717.0
27.635 701.0
27.650 776.0
27.665 751.0
27.680 749.0
27.695 747.0
27.710 763.0
27.725 742.0
27.740 777.0
27.755 794.0
27.770 814.0
27.785 839.0
27.800 894.0
27.815 886.0
27.830 845.0
27.845 784.0
27.860 725.0
27.875 696.0
27.890 691.0
27.905 672.0
27.920 662.0
27.935 591.0
27.950 552.0
27.965 565.0
27.980 539.0
27.995 544.0
28.010 486.0
28.025 454.0
28.040 510.0
28.055 452.0
28.070 456.0
28.085 472.0
28.100 430.0
28.115 400.0
28.130 438.0
28.145 418.0
28.160 398.0
28.175 387.0
28.190 407.0
28.205 357.0
28.220 404.0
28.235 392.0
28.250 379.0
28.265 360.0
28.280 380.0
28.295 373.0
28.310 343.0
28.325 316.0
28.340 357.0
28.355 352.0
28.370 371.0
28.385 372.0
28.400 334.0
28.415 317.0
28.430 315.0
28.445 339.0
28.460 319.0
28.475 315.0
28.490 335.0
28.505 312.0
28.520 323.0
28.535 309.0
28.550 294.0
28.565 310.0
28.580 294.0
28.595 292.0
28.610 306.0
28.625 280.0
28.640 284.0
28.655 282.0
28.670 302.0
28.685 294.0
28.700 287.0
28.715 292.0
28.730 285.0
28.745 299.0
28.760 297.0
28.775 294.0
28.790 282.0
28.805 278.0
28.820 295.0
28.835 274.0
28.850 279.0
28.865 294.0
28.880 272.0
28.895 265.0
28.910 268.0
28.925 277.0
28.940 265.0
28.955 283.0
28.970 282.0
28.985 269.0
29.000 260.0
29.015 287.0
29.030 283.0
29.045 293.0
29.060 253.0
29.075 257.0
29.090 261.0
29.105 253.0
29.120 291.0
29.135 252.0
29.150 269.0
29.165 271.0
29.180 232.0
29.195 257.0
29.210 276.0
29.225 270.0
29.240 268.0
29.255 274.0
29.270 265.0
29.285 264.0
29.300 263.0
29.315 262.0
29.330 256.0
29.345 232.0
29.360 235.0
29.375 253.0
29.390 242.0
29.405 259.0
29.420 257.0
29.435 248.0
29.450 243.0
29.465 248.0
29.480 267.0
29.495 267.0
29.510 233.0
29.525 245.0
29.540 242.0
29.555 229.0
29.570 253.0
29.585 262.0
29.600 252.0
29.615 238.0
29.630 239.0
29.645 241.0
29.660 227.0
29.675 233.0
29.690 233.0
29.705 240.0
29.720 220.0
29.735 238.0
29.750 245.0
29.765 228.0
29.780 226.0
29.795 240.0
29.810 234.0
29.825 240.0
29.840 236.0
29.855 224.0
29.870 224.0
29.885 238.0
29.900 244.0
29.915 233.0
29.930 248.0
29.945 226.0
29.960 248.0
29.975 252.0
29.990 255.0
30.005 276.0
30.020 280.0
30.035 278.0
30.050 258.0
30.065 239.0
30.080 265.0
30.095 264.0
30.110 275.0
30.125 271.0
30.140 239.0
30.155 241.0
30.170 229.0
30.185 233.0
30.200 238.0
30.215 254.0
30.230 248.0
30.245 236.0
30.260 242.0
30.275 231.0
30.290 237.0
30.305 265.0
30.320 240.0
30.335 246.0
30.350 236.0
30.365 258.0
30.380 219.0
30.395 206.0
30.410 208.0
30.425 223.0
30.440 229.0
30.455 233.0
30.470 214.0
30.485 217.0
30.500 229.0
30.515 227.0
30.530 207.0
30.545 244.0
30.560 228.0
30.575 229.0
30.590 227.0
30.605 244.0
30.620 229.0
30.635 228.0
30.650 229.0
30.665 235.0
30.680 244.0
30.695 244.0
30.710 245.0
30.725 231.0
30.740 269.0
30.755 245.0
30.770 245.0
30.785 260.0
30.800 239.0
30.815 242.0
30.830 244.0
30.845 261.0
30.860 246.0
30.875 221.0
30.890 225.0
30.905 244.0
30.920 251.0
30.935 230.0
30.950 220.0
30.965 253.0
30.980 235.0
30.995 250.0
31.010 258.0
31.025 227.0
31.040 275.0
31.055 277.0
31.070 297.0
31.085 319.0
31.100 312.0
31.115 317.0
31.130 293.0
31.145 277.0
31.160 274.0
31.175 247.0
31.190 245.0
31.205 224.0
31.220 244.0
31.235 224.0
31.250 223.0
31.265 208.0
31.280 222.0
31.295 209.0
31.310 201.0
31.325 190.0
31.340 192.0
31.355 205.0
31.370 214.0
31.385 221.0
31.400 205.0
31.415 182.0
31.430 185.0
31.445 220.0
31.460 219.0
31.475 213.0
31.490 219.0
31.505 206.0
31.520 195.0
31.535 198.0
31.550 214.0
31.565 202.0
31.580 198.0
31.595 192.0
31.610 219.0
31.625 197.0
31.640 199.0
31.655 216.0
31.670 208.0
31.685 211.0
31.700 211.0
31.715 199.0
31.730 208.0
31.745 223.0
31.760 204.0
31.775 187.0
31.790 187.0
31.805 201.0
31.820 187.0
31.835 188.0
31.850 198.0
31.865 196.0
31.880 190.0
31.895 202.0
31.910 200.0
31.925 194.0
31.940 192.0
31.955 177.0
31.970 205.0
31.985 194.0
32.000 190.0
32.015 190.0
32.030 190.0
32.045 184.0
32.060 201.0
32.075 198.0
32.090 193.0
32.105 192.0
32.120 195.0
32.135 207.0
32.150 205.0
32.165 212.0
32.180 197.0
32.195 194.0
32.210 185.0
32.225 200.0
32.240 166.0
32.255 195.0
32.270 188.0
32.285 179.0
32.300 172.0
32.315 178.0
32.330 192.0
32.345 207.0
32.360 177.0
32.375 162.0
32.390 173.0
32.405 170.0
32.420 185.0
32.435 184.0
32.450 176.0
32.465 169.0
32.480 169.0
32.495 194.0
32.510 166.0
32.525 184.0
32.540 175.0
32.555 183.0
32.570 189.0
32.585 181.0
32.600 190.0
32.615 192.0
32.630 199.0
32.645 172.0
32.660 181.0
32.675 184.0
32.690 186.0
32.705 173.0
32.720 183.0
32.735 182.0
32.750 180.0
32.765 168.0
32.780 171.0
32.795 166.0
32.810 170.0
32.825 173.0
32.840 158.0
32.855 174.0
32.870 170.0
32.885 182.0
32.900 172.0
32.915 172.0
32.930 162.0
32.945 157.0
32.960 167.0
32.975 167.0
32.990 163.0
33.005 183.0
33.020 177.0
33.035 170.0
33.050 161.0
33.065 160.0
33.080 188.0
33.095 175.0
33.110 163.0
33.125 156.0
33.140 163.0
33.155 184.0
33.170 173.0
33.185 164.0
33.200 166.0
33.215 165.0
33.230 178.0
33.245 169.0
33.260 163.0
33.275 168.0
33.290 162.0
33.305 147.0
33.320 178.0
33.335 164.0
33.350 168.0
33.365 156.0
33.380 158.0
33.395 149.0
33.410 160.0
33.425 157.0
33.440 159.0
33.455 159.0
33.470 166.0
33.485 161.0
33.500 150.0
33.515 179.0
33.530 183.0
33.545 166.0
33.560 157.0
33.575 161.0
33.590 168.0
33.605 169.0
33.620 150.0
33.635 166.0
33.650 171.0
33.665 173.0
33.680 182.0
33.695 162.0
33.710 173.0
33.725 177.0
33.740 160.0
33.755 161.0
33.770 175.0
33.785 183.0
33.800 175.0
33.815 174.0
33.830 164.0
33.845 177.0
33.860 184.0
33.875 176.0
33.890 156.0
33.905 190.0
33.920 181.0
33.935 154.0
33.950 178.0
33.965 192.0
33.980 179.0
33.995 175.0
34.010 165.0
34.025 171.0
34.040 170.0
34.055 160.0
34.070 168.0
34.085 157.0
34.100 159.0
34.115 167.0
34.130 164.0
34.145 161.0
34.160 155.0
34.175 161.0
34.190 169.0
34.205 168.0
34.220 171.0
34.235 166.0
34.250 160.0
34.265 152.0
34.280 140.0
34.295 152.0
34.310 157.0
34.325 173.0
34.340 157.0
34.355 136.0
34.370 147.0
34.385 156.0
34.400 153.0
34.415 149.0
34.430 152.0
34.445 154.0
34.460 142.0
34.475 147.0
34.490 150.0
34.505 145.0
34.520 159.0
34.535 152.0
34.550 158.0
34.565 170.0
34.580 157.0
34.595 183.0
34.610 156.0
34.625 149.0
34.640 150.0
34.655 157.0
34.670 156.0
34.685 159.0
34.700 149.0
34.715 129.0
34.730 142.0
34.745 148.0
34.760 150.0
34.775 145.0
34.790 158.0
34.805 133.0
34.820 157.0
34.835 135.0
34.850 148.0
34.865 162.0
34.880 163.0
34.895 157.0
34.910 165.0
34.925 143.0
34.940 155.0
34.955 150.0
34.970 172.0
34.985 152.0
35.000 139.0
35.015 166.0
35.030 153.0
35.045 135.0
35.060 137.0
35.075 140.0
35.090 127.0
35.105 140.0
35.120 151.0
35.135 144.0
35.150 152.0
35.165 169.0
35.180 150.0
35.195 134.0
35.210 118.0
35.225 142.0
35.240 141.0
35.255 149.0
35.270 123.0
35.285 128.0
35.300 158.0
35.315 149.0
35.330 128.0
35.345 143.0
35.360 154.0
35.375 142.0
35.390 134.0
35.405 141.0
35.420 141.0
35.435 153.0
35.450 147.0
35.465 122.0
35.480 151.0
35.495 147.0
35.510 131.0
35.525 149.0
35.540 143.0
35.555 131.0
35.570 123.0
35.585 129.0
35.600 135.0
35.615 155.0
35.630 141.0
35.645 136.0
35.660 139.0
35.675 154.0
35.690 125.0
35.705 118.0
35.720 125.0
35.735 140.0
35.750 125.0
35.765 114.0
35.780 127.0
35.795 131.0
35.810 149.0
35.825 147.0
35.840 132.0
35.855 124.0
35.870 135.0
35.885 131.0
35.900 122.0
35.915 131.0
35.930 133.0
35.945 144.0
35.960 125.0
35.975 142.0
35.990 133.0
36.005 120.0
36.020 121.0
36.035 126.0
36.050 122.0
36.065 129.0
36.080 123.0
36.095 129.0
36.110 128.0
36.125 146.0
36.140 125.0
36.155 131.0
36.170 120.0
36.185 117.0
36.200 123.0
36.215 137.0
36.230 134.0
36.245 131.0
36.260 146.0
36.275 139.0
36.290 140.0
36.305 120.0
36.320 123.0
36.335 108.0
36.350 144.0
36.365 134.0
36.380 132.0
36.395 133.0
36.410 120.0
36.425 130.0
36.440 128.0
36.455 136.0
36.470 119.0
36.485 107.0
36.500 136.0
36.515 133.0
36.530 124.0
36.545 123.0
36.560 132.0
36.575 141.0
36.590 128.0
36.605 124.0
36.620 126.0
36.635 123.0
36.650 103.0
36.665 130.0
36.680 138.0
36.695 134.0
36.710 132.0
36.725 111.0
36.740 135.0
36.755 141.0
36.770 122.0
36.785 116.0
36.800 124.0
36.815 132.0
36.830 135.0
36.845 102.0
36.860 115.0
36.875 117.0
36.890 112.0
36.905 125.0
36.920 139.0
36.935 130.0
36.950 127.0
36.965 132.0
36.980 139.0
36.995 126.0
37.010 132.0
37.025 132.0
37.040 124.0
37.055 127.0
37.070 129.0
37.085 103.0
37.100 117.0
37.115 113.0
37.130 120.0
37.145 133.0
37.160 126.0
37.175 121.0
37.190 129.0
37.205 116.0
37.220 131.0
37.235 128.0
37.250 103.0
37.265 123.0
37.280 120.0
37.295 105.0
37.310 124.0
37.325 135.0
37.340 136.0
37.355 125.0
37.370 116.0
37.385 129.0
37.400 117.0
37.415 126.0
37.430 127.0
37.445 111.0
37.460 128.0
37.475 116.0
37.490 120.0
37.505 138.0
37.520 122.0
37.535 140.0
37.550 134.0
37.565 127.0
37.580 127.0
37.595 127.0
37.610 140.0
37.625 123.0
37.640 123.0
37.655 116.0
37.670 112.0
37.685 134.0
37.700 121.0
37.715 128.0
37.730 132.0
37.745 129.0
37.760 119.0
37.775 122.0
37.790 121.0
37.805 137.0
37.820 113.0
37.835 110.0
37.850 127.0
37.865 102.0
37.880 123.0
37.895 134.0
37.910 117.0
37.925 114.0
37.940 114.0
37.955 136.0
37.970 123.0
37.985 129.0
38.000 131.0
38.015 117.0
38.030 125.0
38.045 120.0
38.060 123.0
38.075 109.0
38.090 126.0
38.105 135.0
38.120 125.0
38.135 116.0
38.150 119.0
38.165 122.0
38.180 125.0
38.195 112.0
38.210 121.0
38.225 124.0
38.240 117.0
38.255 116.0
38.270 122.0
38.285 116.0
38.300 103.0
38.315 112.0
38.330 111.0
38.345 114.0
38.360 111.0
38.375 117.0
38.390 135.0
38.405 131.0
38.420 124.0
38.435 124.0
38.450 122.0
38.465 125.0
38.480 107.0
38.495 114.0
38.510 127.0
38.525 108.0
38.540 136.0
38.555 113.0
38.570 118.0
38.585 134.0
38.600 116.0
38.615 120.0
38.630 108.0
38.645 110.0
38.660 114.0
38.675 127.0
38.690 115.0
38.705 112.0
38.720 114.0
38.735 111.0
38.750 115.0
38.765 132.0
38.780 126.0
38.795 113.0
38.810 120.0
38.825 136.0
38.840 112.0
38.855 134.0
38.870 122.0
38.885 121.0
38.900 115.0
38.915 120.0
38.930 114.0
38.945 133.0
38.960 111.0
38.975 108.0
38.990 117.0
39.005 125.0
39.020 111.0
39.035 120.0
39.050 125.0
39.065 111.0
39.080 117.0
39.095 137.0
39.110 125.0
39.125 115.0
39.140 108.0
39.155 139.0
39.170 119.0
39.185 119.0
39.200 117.0
39.215 124.0
39.230 119.0
39.245 108.0
39.260 120.0
39.275 120.0
39.290 117.0
39.305 109.0
39.320 109.0
39.335 106.0
39.350 107.0
39.365 117.0
39.380 117.0
39.395 119.0
39.410 110.0
39.425 108.0
39.440 122.0
39.455 124.0
39.470 123.0
39.485 122.0
39.500 141.0
39.515 126.0
39.530 113.0
39.545 92.0
39.560 105.0
39.575 104.0
39.590 105.0
39.605 101.0
39.620 102.0
39.635 114.0
39.650 123.0
39.665 127.0
39.680 121.0
39.695 133.0
39.710 121.0
39.725 110.0
39.740 113.0
39.755 127.0
39.770 116.0
39.785 126.0
39.800 121.0
39.815 122.0
39.830 127.0
39.845 122.0
39.860 117.0
39.875 109.0
39.890 95.0
39.905 93.0
39.920 127.0
39.935 155.0
39.950 129.0
39.965 118.0
39.980 133.0
39.995 134.0
40.010 119.0
40.025 124.0
40.040 120.0
40.055 114.0
40.070 119.0
40.085 113.0
40.100 116.0
40.115 101.0
40.130 110.0
40.145 117.0
40.160 110.0
40.175 128.0
40.190 129.0
40.205 115.0
40.220 133.0
40.235 123.0
40.250 133.0
40.265 123.0
40.280 122.0
40.295 138.0
40.310 141.0
40.325 126.0
40.340 115.0
40.355 128.0
40.370 133.0
40.385 122.0
40.400 119.0
40.415 126.0
40.430 124.0
40.445 121.0
40.460 121.0
40.475 114.0
40.490 107.0
40.505 125.0
40.520 127.0
40.535 138.0
40.550 122.0
40.565 111.0
40.580 119.0
40.595 124.0
40.610 115.0
40.625 131.0
40.640 123.0
40.655 119.0
40.670 124.0
40.685 126.0
40.700 124.0
40.715 123.0
40.730 138.0
40.745 137.0
40.760 132.0
40.775 124.0
40.790 124.0
40.805 134.0
40.820 111.0
40.835 117.0
40.850 128.0
40.865 117.0
40.880 127.0
40.895 119.0
40.910 135.0
40.925 120.0
40.940 133.0
40.955 124.0
40.970 110.0
40.985 123.0
41.000 124.0
41.015 109.0
41.030 121.0
41.045 123.0
41.060 129.0
41.075 133.0
41.090 94.0
41.105 112.0
41.120 125.0
41.135 122.0
41.150 138.0
41.165 138.0
41.180 137.0
41.195 122.0
41.210 118.0
41.225 118.0
41.240 136.0
41.255 131.0
41.270 121.0
41.285 132.0
41.300 110.0
41.315 110.0
41.330 119.0
41.345 132.0
41.360 134.0
41.375 119.0
41.390 117.0
41.405 111.0
41.420 98.0
41.435 92.0
41.450 90.0
41.465 105.0
41.480 123.0
41.495 116.0
41.510 97.0
41.525 112.0
41.540 115.0
41.555 116.0
41.570 113.0
41.585 119.0
41.600 131.0
41.615 117.0
41.630 106.0
41.645 110.0
41.660 120.0
41.675 123.0
41.690 116.0
41.705 109.0
41.720 101.0
41.735 108.0
41.750 123.0
41.765 117.0
41.780 116.0
41.795 123.0
41.810 108.0
41.825 106.0
41.840 111.0
41.855 110.0
41.870 119.0
41.885 111.0
41.900 107.0
41.915 120.0
41.930 129.0
41.945 127.0
41.960 121.0
41.975 141.0
41.990 115.0
42.005 126.0
42.020 125.0
42.035 129.0
42.050 134.0
42.065 105.0
42.080 116.0
42.095 111.0
42.110 112.0
42.125 116.0
42.140 130.0
42.155 127.0
42.170 127.0
42.185 106.0
42.200 104.0
42.215 123.0
42.230 125.0
42.245 139.0
42.260 112.0
42.275 125.0
42.290 111.0
42.305 124.0
42.320 123.0
42.335 110.0
42.350 109.0
42.365 116.0
42.380 111.0
42.395 110.0
42.410 117.0
42.425 132.0
42.440 104.0
42.455 115.0
42.470 122.0
42.485 130.0
42.500 107.0
42.515 114.0
42.530 117.0
42.545 123.0
42.560 110.0
42.575 112.0
42.590 128.0
42.605 124.0
42.620 131.0
42.635 118.0
42.650 104.0
42.665 125.0
42.680 107.0
42.695 118.0
42.710 120.0
42.725 130.0
42.740 139.0
42.755 132.0
42.770 123.0
42.785 126.0
42.800 111.0
42.815 116.0
42.830 104.0
42.845 124.0
42.860 112.0
42.875 103.0
42.890 118.0
42.905 134.0
42.920 122.0
42.935 114.0
42.950 109.0
42.965 108.0
42.980 106.0
42.995 103.0
43.010 102.0
43.025 115.0
43.040 119.0
43.055 120.0
43.070 109.0
43.085 112.0
43.100 98.0
43.115 110.0
43.130 124.0
43.145 122.0
43.160 113.0
43.175 113.0
43.190 105.0
43.205 119.0
43.220 117.0
43.235 114.0
43.250 116.0
43.265 100.0
43.280 104.0
43.295 121.0
43.310 126.0
43.325 117.0
43.340 118.0
43.355 120.0
43.370 121.0
43.385 104.0
43.400 109.0
43.415 120.0
43.430 116.0
43.445 110.0
43.460 109.0
43.475 126.0
43.490 124.0
43.505 113.0
43.520 110.0
43.535 134.0
43.550 108.0
43.565 118.0
43.580 96.0
43.595 106.0
43.610 123.0
43.625 116.0
43.640 119.0
43.655 117.0
43.670 106.0
43.685 118.0
43.700 111.0
43.715 114.0
43.730 116.0
43.745 107.0
43.760 102.0
43.775 110.0
43.790 117.0
43.805 111.0
43.820 112.0
43.835 97.0
43.850 105.0
43.865 127.0
43.880 98.0
43.895 107.0
43.910 120.0
43.925 125.0
43.940 114.0
43.955 119.0
43.970 132.0
43.985 125.0
44.000 123.0
44.015 120.0
44.030 116.0
44.045 121.0
44.060 125.0
44.075 124.0
44.090 124.0
44.105 125.0
44.120 117.0
44.135 127.0
44.150 112.0
44.165 112.0
44.180 124.0
44.195 127.0
44.210 134.0
44.225 119.0
44.240 117.0
44.255 137.0
44.270 117.0
44.285 115.0
44.300 109.0
44.315 124.0
44.330 116.0
44.345 115.0
44.360 125.0
44.375 130.0
44.390 104.0
44.405 112.0
44.420 118.0
44.435 107.0
44.450 121.0
44.465 122.0
44.480 132.0
44.495 122.0
44.510 118.0
44.525 106.0
44.540 115.0
44.555 135.0
44.570 123.0
44.585 129.0
44.600 135.0
44.615 120.0
44.630 113.0
44.645 115.0
44.660 117.0
44.675 124.0
44.690 106.0
44.705 124.0
44.720 109.0
44.735 127.0
44.750 120.0
44.765 129.0
44.780 119.0
44.795 132.0
44.810 125.0
44.825 123.0
44.840 113.0
44.855 117.0
44.870 116.0
44.885 117.0
44.900 143.0
44.915 120.0
44.930 112.0
44.945 120.0
44.960 132.0
44.975 114.0
44.990 121.0
45.005 100.0
45.020 124.0
45.035 138.0
45.050 143.0
45.065 112.0
45.080 118.0
45.095 122.0
45.110 114.0
45.125 124.0
45.140 124.0
45.155 118.0
45.170 107.0
45.185 100.0
45.200 108.0
45.215 107.0
45.230 116.0
45.245 123.0
45.260 116.0
45.275 116.0
45.290 119.0
45.305 124.0
45.320 116.0
45.335 120.0
45.350 122.0
45.365 103.0
45.380 101.0
45.395 109.0
45.410 99.0
45.425 112.0
45.440 135.0
45.455 116.0
45.470 126.0
45.485 119.0
45.500 113.0
45.515 112.0
45.530 105.0
45.545 105.0
45.560 105.0
45.575 118.0
45.590 106.0
45.605 86.0
45.620 104.0
45.635 115.0
45.650 113.0
45.665 104.0
45.680 104.0
45.695 98.0
45.710 101.0
45.725 102.0
45.740 107.0
45.755 118.0
45.770 114.0
45.785 113.0
45.800 121.0
45.815 122.0
45.830 113.0
45.845 107.0
45.860 114.0
45.875 118.0
45.890 123.0
45.905 110.0
45.920 118.0
45.935 111.0
45.950 112.0
45.965 142.0
45.980 101.0
45.995 116.0
46.010 124.0
46.025 111.0
46.040 115.0
46.055 110.0
46.070 105.0
46.085 109.0
46.100 102.0
46.115 112.0
46.130 109.0
46.145 121.0
46.160 110.0
46.175 104.0
46.190 127.0
46.205 115.0
46.220 125.0
46.235 122.0
46.250 115.0
46.265 109.0
46.280 115.0
46.295 104.0
46.310 101.0
46.325 118.0
46.340 112.0
46.355 107.0
46.370 105.0
46.385 113.0
46.400 113.0
46.415 103.0
46.430 118.0
46.445 110.0
46.460 115.0
46.475 116.0
46.490 108.0
46.505 92.0
46.520 97.0
46.535 106.0
46.550 114.0
46.565 122.0
46.580 115.0
46.595 117.0
46.610 126.0
46.625 107.0
46.640 110.0
46.655 115.0
46.670 97.0
46.685 103.0
46.700 93.0
46.715 94.0
46.730 116.0
46.745 101.0
46.760 113.0
46.775 115.0
46.790 117.0
46.805 106.0
46.820 118.0
46.835 108.0
46.850 107.0
46.865 115.0
46.880 116.0
46.895 108.0
46.910 116.0
46.925 121.0
46.940 109.0
46.955 128.0
46.970 119.0
46.985 116.0
47.000 97.0
47.015 114.0
47.030 120.0
47.045 124.0
47.060 106.0
47.075 100.0
47.090 112.0
47.105 118.0
47.120 99.0
47.135 102.0
47.150 121.0
47.165 114.0
47.180 111.0
47.195 104.0
47.210 106.0
47.225 107.0
47.240 98.0
47.255 111.0
47.270 99.0
47.285 98.0
47.300 96.0
47.315 98.0
47.330 115.0
47.345 116.0
47.360 117.0
47.375 111.0
47.390 109.0
47.405 108.0
47.420 99.0
47.435 104.0
47.450 88.0
47.465 108.0
47.480 106.0
47.495 104.0
47.510 93.0
47.525 104.0
47.540 105.0
47.555 119.0
47.570 98.0
47.585 116.0
47.600 112.0
47.615 113.0
47.630 103.0
47.645 103.0
47.660 112.0
47.675 88.0
47.690 96.0
47.705 90.0
47.720 92.0
47.735 96.0
47.750 101.0
47.765 111.0
47.780 111.0
47.795 111.0
47.810 106.0
47.825 116.0
47.840 100.0
47.855 108.0
47.870 98.0
47.885 101.0
47.900 99.0
47.915 85.0
47.930 101.0
47.945 102.0
47.960 103.0
47.975 92.0
47.990 95.0
48.005 95.0
48.020 90.0
48.035 93.0
48.050 98.0
48.065 104.0
48.080 101.0
48.095 104.0
48.110 84.0
48.125 95.0
48.140 98.0
48.155 115.0
48.170 108.0
48.185 97.0
48.200 92.0
48.215 99.0
48.230 99.0
48.245 103.0
48.260 93.0
48.275 79.0
48.290 97.0
48.305 94.0
48.320 111.0
48.335 103.0
48.350 106.0
48.365 104.0
48.380 86.0
48.395 95.0
48.410 97.0
48.425 91.0
48.440 101.0
48.455 96.0
48.470 98.0
48.485 85.0
48.500 90.0
48.515 100.0
48.530 95.0
48.545 95.0
48.560 115.0
48.575 112.0
48.590 79.0
48.605 82.0
48.620 85.0
48.635 106.0
48.650 102.0
48.665 101.0
48.680 104.0
48.695 110.0
48.710 93.0
48.725 112.0
48.740 101.0
48.755 117.0
48.770 109.0
48.785 88.0
48.800 91.0
48.815 92.0
48.830 98.0
48.845 106.0
48.860 101.0
48.875 106.0
48.890 93.0
48.905 96.0
48.920 91.0
48.935 95.0
48.950 101.0
48.965 110.0
48.980 95.0
48.995 109.0
49.010 91.0
49.025 99.0
49.040 90.0
49.055 90.0
49.070 92.0
49.085 100.0
49.100 102.0
49.115 100.0
49.130 104.0
49.145 103.0
49.160 100.0
49.175 103.0
49.190 96.0
49.205 84.0
49.220 112.0
49.235 91.0
49.250 101.0
49.265 102.0
49.280 94.0
49.295 102.0
49.310 106.0
49.325 105.0
49.340 93.0
49.355 105.0
49.370 96.0
49.385 95.0
49.400 108.0
49.415 100.0
49.430 93.0
49.445 104.0
49.460 115.0
49.475 108.0
49.490 114.0
49.505 94.0
49.520 101.0
49.535 108.0
49.550 100.0
49.565 100.0
49.580 116.0
49.595 99.0
49.610 100.0
49.625 115.0
49.640 91.0
49.655 87.0
49.670 103.0
49.685 99.0
49.700 106.0
49.715 93.0
49.730 98.0
49.745 88.0
49.760 113.0
49.775 97.0
49.790 80.0
49.805 111.0
49.820 106.0
49.835 110.0
49.850 104.0
49.865 89.0
49.880 93.0
49.895 101.0
49.910 97.0
49.925 93.0
49.940 100.0
49.955 97.0
49.970 97.0
49.985 104.0
50.000 97.0
50.015 96.0
50.030 99.0
50.045 112.0
50.060 94.0
50.075 89.0
50.090 94.0
50.105 101.0
50.120 100.0
50.135 92.0
50.150 93.0
50.165 78.0
50.180 84.0
50.195 86.0
50.210 95.0
50.225 95.0
50.240 110.0
50.255 99.0
50.270 82.0
50.285 98.0
50.300 114.0
50.315 109.0
50.330 103.0
50.345 95.0
50.360 92.0
50.375 97.0
50.390 82.0
50.405 110.0
50.420 94.0
50.435 84.0
50.450 98.0
50.465 99.0
50.480 91.0
50.495 99.0
50.510 101.0
50.525 103.0
50.540 100.0
50.555 89.0
50.570 94.0
50.585 100.0
50.600 108.0
50.615 90.0
50.630 87.0
50.645 94.0
50.660 104.0
50.675 91.0
50.690 91.0
50.705 99.0
50.720 98.0
50.735 102.0
50.750 93.0
50.765 95.0
50.780 101.0
50.795 93.0
50.810 88.0
50.825 95.0
50.840 95.0
50.855 105.0
50.870 81.0
50.885 91.0
50.900 84.0
50.915 93.0
50.930 92.0
50.945 87.0
50.960 100.0
50.975 95.0
50.990 100.0
51.005 108.0
51.020 103.0
51.035 99.0
51.050 89.0
51.065 97.0
51.080 96.0
51.095 90.0
51.110 100.0
51.125 88.0
51.140 81.0
51.155 81.0
51.170 87.0
51.185 92.0
51.200 91.0
51.215 95.0
51.230 98.0
51.245 83.0
51.260 91.0
51.275 83.0
51.290 98.0
51.305 101.0
51.320 94.0
51.335 101.0
51.350 86.0
51.365 95.0
51.380 103.0
51.395 110.0
51.410 93.0
51.425 99.0
51.440 89.0
51.455 76.0
51.470 83.0
51.485 116.0
51.500 107.0
51.515 101.0
51.530 94.0
51.545 88.0
51.560 87.0
51.575 93.0
51.590 80.0
51.605 88.0
51.620 98.0
51.635 94.0
51.650 104.0
51.665 90.0
51.680 102.0
51.695 97.0
51.710 99.0
51.725 100.0
51.740 92.0
51.755 79.0
51.770 87.0
51.785 86.0
51.800 102.0
51.815 105.0
51.830 98.0
51.845 106.0
51.860 101.0
51.875 98.0
51.890 104.0
51.905 110.0
51.920 96.0
51.935 85.0
51.950 89.0
51.965 101.0
51.980 85.0
51.995 95.0
52.010 100.0
52.025 104.0
52.040 103.0
52.055 104.0
52.070 111.0
52.085 96.0
52.100 97.0
52.115 88.0
52.130 95.0
52.145 101.0
52.160 106.0
52.175 95.0
52.190 90.0
52.205 88.0
52.220 97.0
52.235 87.0
52.250 89.0
52.265 94.0
52.280 107.0
52.295 101.0
52.310 103.0
52.325 95.0
52.340 111.0
52.355 101.0
52.370 96.0
52.385 91.0
52.400 81.0
52.415 93.0
52.430 90.0
52.445 89.0
52.460 90.0
52.475 94.0
52.490 98.0
52.505 89.0
52.520 82.0
52.535 100.0
52.550 102.0
52.565 101.0
52.580 85.0
52.595 94.0
52.610 102.0
52.625 80.0
52.640 95.0
52.655 105.0
52.670 86.0
52.685 88.0
52.700 96.0
52.715 91.0
52.730 100.0
52.745 128.0
52.760 99.0
52.775 91.0
52.790 87.0
52.805 81.0
52.820 103.0
52.835 112.0
52.850 92.0
52.865 108.0
52.880 111.0
52.895 97.0
52.910 94.0
52.925 90.0
52.940 92.0
52.955 94.0
52.970 100.0
52.985 96.0
53.000 92.0
53.015 98.0
53.030 111.0
53.045 108.0
53.060 109.0
53.075 105.0
53.090 109.0
53.105 88.0
53.120 95.0
53.135 97.0
53.150 88.0
53.165 97.0
53.180 98.0
53.195 100.0
53.210 87.0
53.225 108.0
53.240 107.0
53.255 109.0
53.270 102.0
53.285 99.0
53.300 92.0
53.315 105.0
53.330 108.0
53.345 107.0
53.360 110.0
53.375 103.0
53.390 106.0
53.405 109.0
53.420 101.0
53.435 100.0
53.450 88.0
53.465 99.0
53.480 102.0
53.495 87.0
53.510 88.0
53.525 96.0
53.540 81.0
53.555 77.0
53.570 107.0
53.585 98.0
53.600 94.0
53.615 101.0
53.630 84.0
53.645 96.0
53.660 97.0
53.675 99.0
53.690 98.0
53.705 94.0
53.720 75.0
53.735 95.0
53.750 94.0
53.765 98.0
53.780 99.0
53.795 98.0
53.810 90.0
53.825 94.0
53.840 100.0
53.855 93.0
53.870 101.0
53.885 93.0
53.900 98.0
53.915 101.0
53.930 89.0
53.945 91.0
53.960 94.0
53.975 90.0
53.990 97.0
54.005 76.0
54.020 78.0
54.035 92.0
54.050 85.0
54.065 82.0
54.080 89.0
54.095 93.0
54.110 109.0
54.125 103.0
54.140 109.0
54.155 83.0
54.170 93.0
54.185 90.0
54.200 94.0
54.215 95.0
54.230 104.0
54.245 105.0
54.260 85.0
54.275 82.0
54.290 87.0
54.305 88.0
54.320 107.0
54.335 103.0
54.350 94.0
54.365 96.0
54.380 92.0
54.395 97.0
54.410 93.0
54.425 91.0
54.440 110.0
54.455 105.0
54.470 98.0
54.485 96.0
54.500 104.0
54.515 107.0
54.530 101.0
54.545 100.0
54.560 103.0
54.575 112.0
54.590 100.0
54.605 86.0
54.620 101.0
54.635 105.0
54.650 97.0
54.665 97.0
54.680 95.0
54.695 97.0
54.710 109.0
54.725 87.0
54.740 108.0
54.755 109.0
54.770 103.0
54.785 95.0
54.800 79.0
54.815 102.0
54.830 105.0
54.845 93.0
54.860 98.0
54.875 98.0
54.890 93.0
54.905 88.0
54.920 92.0
54.935 86.0
54.950 88.0
54.965 108.0
54.980 107.0
54.995 105.0
55.010 95.0
55.025 105.0
55.040 88.0
55.055 84.0
55.070 110.0
55.085 101.0
55.100 91.0
55.115 97.0
55.130 97.0
55.145 96.0
55.160 102.0
55.175 98.0
55.190 85.0
55.205 92.0
55.220 107.0
55.235 94.0
55.250 105.0
55.265 101.0
55.280 84.0
55.295 98.0
55.310 88.0
55.325 96.0
55.340 96.0
55.355 99.0
55.370 102.0
55.385 94.0
55.400 99.0
55.415 95.0
55.430 115.0
55.445 99.0
55.460 107.0
55.475 99.0
55.490 112.0
55.505 101.0
55.520 93.0
55.535 106.0
55.550 101.0
55.565 83.0
55.580 96.0
55.595 105.0
55.610 109.0
55.625 94.0
55.640 89.0
55.655 101.0
55.670 96.0
55.685 94.0
55.700 101.0
55.715 106.0
55.730 107.0
55.745 92.0
55.760 92.0
55.775 91.0
55.790 99.0
55.805 83.0
55.820 97.0
55.835 101.0
55.850 107.0
55.865 86.0
55.880 94.0
55.895 94.0
55.910 89.0
55.925 97.0
55.940 106.0
55.955 119.0
55.970 87.0
55.985 91.0
56.000 101.0
56.015 97.0
56.030 97.0
56.045 93.0
56.060 85.0
56.075 104.0
56.090 117.0
56.105 102.0
56.120 81.0
56.135 76.0
56.150 93.0
56.165 104.0
56.180 100.0
56.195 85.0
56.210 101.0
56.225 106.0
56.240 105.0
56.255 94.0
56.270 90.0
56.285 88.0
56.300 94.0
56.315 93.0
56.330 94.0
56.345 107.0
56.360 103.0
56.375 88.0
56.390 102.0
56.405 93.0
56.420 86.0
56.435 92.0
56.450 99.0
56.465 97.0
56.480 85.0
56.495 101.0
56.510 90.0
56.525 100.0
56.540 89.0
56.555 85.0
56.570 105.0
56.585 92.0
56.600 98.0
56.615 98.0
56.630 93.0
56.645 97.0
56.660 104.0
56.675 106.0
56.690 108.0
56.705 112.0
56.720 93.0
56.735 110.0
56.750 89.0
56.765 93.0
56.780 94.0
56.795 101.0
56.810 100.0
56.825 97.0
56.840 104.0
56.855 84.0
56.870 95.0
56.885 92.0
56.900 101.0
56.915 80.0
56.930 96.0
56.945 97.0
56.960 103.0
56.975 104.0
56.990 95.0
57.005 111.0
57.020 100.0
57.035 96.0
57.050 90.0
57.065 91.0
57.080 103.0
57.095 89.0
57.110 88.0
57.125 93.0
57.140 96.0
57.155 100.0
57.170 102.0
57.185 96.0
57.200 90.0
57.215 86.0
57.230 85.0
57.245 99.0
57.260 84.0
57.275 91.0
57.290 90.0
57.305 85.0
57.320 72.0
57.335 93.0
57.350 96.0
57.365 91.0
57.380 90.0
57.395 84.0
57.410 84.0
57.425 79.0
57.440 89.0
57.455 89.0
57.470 95.0
57.485 97.0
57.500 86.0
57.515 93.0
57.530 93.0
57.545 96.0
57.560 83.0
57.575 87.0
57.590 86.0
57.605 87.0
57.620 86.0
57.635 105.0
57.650 90.0
57.665 83.0
57.680 72.0
57.695 92.0
57.710 82.0
57.725 92.0
57.740 85.0
57.755 95.0
57.770 88.0
57.785 95.0
57.800 94.0
57.815 98.0
57.830 87.0
57.845 88.0
57.860 98.0
57.875 89.0
57.890 83.0
57.905 90.0
57.920 87.0
57.935 98.0
57.950 91.0
57.965 101.0
57.980 90.0
57.995 93.0
58.010 89.0
58.025 90.0
58.040 101.0
58.055 88.0
58.070 79.0
58.085 86.0
58.100 99.0
58.115 91.0
58.130 89.0
58.145 103.0
58.160 100.0
58.175 92.0
58.190 101.0
58.205 87.0
58.220 90.0
58.235 94.0
58.250 81.0
58.265 83.0
58.280 88.0
58.295 87.0
58.310 87.0
58.325 85.0
58.340 90.0
58.355 94.0
58.370 82.0
58.385 77.0
58.400 87.0
58.415 89.0
58.430 91.0
58.445 85.0
58.460 84.0
58.475 86.0
58.490 84.0
58.505 103.0
58.520 94.0
58.535 84.0
58.550 78.0
58.565 73.0
58.580 72.0
58.595 79.0
58.610 83.0
58.625 80.0
58.640 72.0
58.655 89.0
58.670 73.0
58.685 66.0
58.700 71.0
58.715 88.0
58.730 93.0
58.745 83.0
58.760 83.0
58.775 78.0
58.790 93.0
58.805 89.0
58.820 77.0
58.835 77.0
58.850 80.0
58.865 97.0
58.880 84.0
58.895 71.0
58.910 89.0
58.925 83.0
58.940 93.0
58.955 92.0
58.970 88.0
58.985 99.0
59.000 87.0
59.015 90.0
59.030 83.0
59.045 71.0
59.060 79.0
59.075 80.0
59.090 93.0
59.105 91.0
59.120 73.0
59.135 77.0
59.150 77.0
59.165 86.0
59.180 87.0
59.195 88.0
59.210 80.0
59.225 83.0
59.240 77.0
59.255 79.0
59.270 65.0
59.285 84.0
59.300 87.0
59.315 89.0
59.330 70.0
59.345 78.0
59.360 78.0
59.375 92.0
59.390 93.0
59.405 82.0
59.420 63.0
59.435 78.0
59.450 65.0
59.465 78.0
59.480 82.0
59.495 86.0
59.510 95.0
59.525 86.0
59.540 89.0
59.555 89.0
59.570 80.0
59.585 76.0
59.600 75.0
59.615 65.0
59.630 67.0
59.645 69.0
59.660 83.0
59.675 82.0
59.690 84.0
59.705 82.0
59.720 77.0
59.735 91.0
59.750 62.0
59.765 66.0
59.780 78.0
59.795 83.0
59.810 67.0
59.825 79.0
59.840 81.0
59.855 83.0
59.870 86.0
59.885 77.0
59.900 82.0
59.915 89.0
59.930 78.0
59.945 81.0
59.960 81.0
59.975 88.0
59.990 97.0
60.005 69.0
60.020 67.0
60.035 71.0
60.050 73.0
60.065 76.0
60.080 74.0
60.095 79.0
60.110 83.0
60.125 75.0
60.140 87.0
60.155 83.0
60.170 79.0
60.185 84.0
60.200 79.0
60.215 77.0
60.230 86.0
60.245 100.0
60.260 79.0
60.275 89.0
60.290 96.0
60.305 94.0
60.320 84.0
60.335 79.0
60.350 71.0
60.365 75.0
60.380 72.0
60.395 77.0
60.410 78.0
60.425 81.0
60.440 75.0
60.455 75.0
60.470 71.0
60.485 91.0
60.500 78.0
60.515 79.0
60.530 74.0
60.545 75.0
60.560 68.0
60.575 84.0
60.590 89.0
60.605 79.0
60.620 78.0
60.635 62.0
60.650 82.0
60.665 73.0
60.680 75.0
60.695 75.0
60.710 82.0
60.725 84.0
60.740 79.0
60.755 91.0
60.770 82.0
60.785 86.0
60.800 82.0
60.815 75.0
60.830 73.0
60.845 79.0
60.860 75.0
60.875 77.0
60.890 70.0
60.905 90.0
60.920 91.0
60.935 76.0
60.950 74.0
60.965 77.0
60.980 83.0
60.995 87.0
61.010 88.0
61.025 76.0
61.040 84.0
61.055 84.0
61.070 72.0
61.085 76.0
61.100 73.0
61.115 89.0
61.130 85.0
61.145 62.0
61.160 69.0
61.175 82.0
61.190 72.0
61.205 72.0
61.220 72.0
61.235 94.0
61.250 84.0
61.265 80.0
61.280 81.0
61.295 79.0
61.310 77.0
61.325 79.0
61.340 76.0
61.355 83.0
61.370 92.0
61.385 80.0
61.400 73.0
61.415 90.0
61.430 88.0
61.445 80.0
61.460 73.0
61.475 91.0
61.490 74.0
61.505 68.0
61.520 71.0
61.535 88.0
61.550 77.0
61.565 65.0
61.580 74.0
61.595 96.0
61.610 84.0
61.625 84.0
61.640 90.0
61.655 79.0
61.670 81.0
61.685 80.0
61.700 80.0
61.715 71.0
61.730 76.0
61.745 68.0
61.760 76.0
61.775 80.0
61.790 77.0
61.805 91.0
61.820 78.0
61.835 78.0
61.850 83.0
61.865 72.0
61.880 87.0
61.895 69.0
61.910 64.0
61.925 69.0
61.940 76.0
61.955 76.0
61.970 84.0
61.985 81.0
