2.00000 4.000
2.01500 1.000
2.03000 4.000
2.04500 3.000
2.06000 4.000
2.07500 0.000
2.09000 2.000
2.10500 8.000
2.12000 4.000
2.13500 3.000
2.15000 4.000
2.16500 5.000
2.18000 5.000
2.19500 8.000
2.21000 6.000
2.22500 6.000
2.24000 4.000
2.25500 6.000
2.27000 5.000
2.28500 4.000
2.30000 7.000
2.31500 4.000
2.33000 3.000
2.34500 3.000
2.36000 1.000
2.37500 3.000
2.39000 6.000
2.40500 4.000
2.42000 4.000
2.43500 7.000
2.45000 6.000
2.46500 5.000
2.48000 7.000
2.49500 6.000
2.51000 3.000
2.52500 4.000
2.54000 5.000
2.55500 2.000
2.57000 3.000
2.58500 3.000
2.60000 6.000
2.61500 4.000
2.63000 4.000
2.64500 2.000
2.66000 4.000
2.67500 5.000
2.69000 4.000
2.70500 6.000
2.72000 7.000
2.73500 3.000
2.75000 7.000
2.76500 6.000
2.78000 6.000
2.79500 2.000
2.81000 2.000
2.82500 6.000
2.84000 6.000
2.85500 10.000
2.87000 10.000
2.88500 6.000
2.90000 10.000
2.91500 9.000
2.93000 13.000
2.94500 49.000
2.96000 91.000
2.97500 235.000
2.99000 413.000
3.00500 640.000
3.02000 947.000
3.03500 1279.000
3.05000 1550.000
3.06500 1856.000
3.08000 1966.000
3.09500 2069.000
3.11000 2002.000
3.12500 2064.000
3.14000 2085.000
3.15500 2064.000
3.17000 2008.000
3.18500 1955.000
3.20000 2037.000
3.21500 2054.000
3.23000 2056.000
3.24500 1940.000
3.26000 1943.000
3.27500 1994.000
3.29000 1939.000
3.30500 1995.000
3.32000 1939.000
3.33500 1976.000
3.35000 1956.000
3.36500 1906.000
3.38000 1869.000
3.39500 1900.000
3.41000 1978.000
3.42500 1979.000
3.44000 1944.000
3.45500 1875.000
3.47000 1844.000
3.48500 1856.000
3.50000 1819.000
3.51500 1803.000
3.53000 1873.000
3.54500 1850.000
3.56000 1778.000
3.57500 1819.000
3.59000 1801.000
3.60500 1720.000
3.62000 1777.000
3.63500 1780.000
3.65000 1739.000
3.66500 1774.000
3.68000 1745.000
3.69500 1779.000
3.71000 1783.000
3.72500 1781.000
3.74000 1707.000
3.75500 1729.000
3.77000 1761.000
3.78500 1701.000
3.80000 1685.000
3.81500 1671.000
3.83000 1633.000
3.84500 1670.000
3.86000 1652.000
3.87500 1674.000
3.89000 1633.000
3.90500 1606.000
3.92000 1652.000
3.93500 1606.000
3.95000 1668.000
3.96500 1622.000
3.98000 1635.000
3.99500 1599.000
4.01000 1609.000
4.02500 1607.000
4.04000 1566.000
4.05500 1592.000
4.07000 1613.000
4.08500 1604.000
4.10000 1571.000
4.11500 1522.000
4.13000 1504.000
4.14500 1480.000
4.16000 1495.000
4.17500 1530.000
4.19000 1538.000
4.20500 1446.000
4.22000 1474.000
4.23500 1522.000
4.25000 1421.000
4.26500 1425.000
4.28000 1478.000
4.29500 1536.000
4.31000 1497.000
4.32500 1436.000
4.34000 1446.000
4.35500 1391.000
4.37000 1438.000
4.38500 1459.000
4.40000 1475.000
4.41500 1497.000
4.43000 1449.000
4.44500 1454.000
4.46000 1456.000
4.47500 1510.000
4.49000 1435.000
4.50500 1478.000
4.52000 1400.000
4.53500 1449.000
4.55000 1432.000
4.56500 1447.000
4.58000 1407.000
4.59500 1398.000
4.61000 1340.000
4.62500 1350.000
4.64000 1322.000
4.65500 1362.000
4.67000 1427.000
4.68500 1348.000
4.70000 1364.000
4.71500 1312.000
4.73000 1360.000
4.74500 1312.000
4.76000 1288.000
4.77500 1306.000
4.79000 1297.000
4.80500 1343.000
4.82000 1322.000
4.83500 1259.000
4.85000 1255.000
4.86500 1295.000
4.88000 1270.000
4.89500 1241.000
4.91000 1273.000
4.92500 1242.000
4.94000 1231.000
4.95500 1227.000
4.97000 1246.000
4.98500 1319.000
5.00000 1336.000
5.01500 1271.000
5.03000 1240.000
5.04500 1215.000
5.06000 1221.000
5.07500 1243.000
5.09000 1236.000
5.10500 1258.000
5.12000 1195.000
5.13500 1189.000
5.15000 1217.000
5.16500 1230.000
5.18000 1199.000
5.19500 1239.000
5.21000 1175.000
5.22500 1213.000
5.24000 1254.000
5.25500 1231.000
5.27000 1207.000
5.28500 1203.000
5.30000 1133.000
5.31500 1164.000
5.33000 1160.000
5.34500 1207.000
5.36000 1186.000
5.37500 1181.000
5.39000 1205.000
5.40500 1197.000
5.42000 1174.000
5.43500 1191.000
5.45000 1139.000
5.46500 1133.000
5.48000 1123.000
5.49500 1107.000
5.51000 1139.000
5.52500 1165.000
5.54000 1118.000
5.55500 1111.000
5.57000 1108.000
5.58500 1098.000
5.60000 1086.000
5.61500 1148.000
5.63000 1137.000
5.64500 1108.000
5.66000 1128.000
5.67500 1125.000
5.69000 1104.000
5.70500 1099.000
5.72000 1098.000
5.73500 1092.000
5.75000 1110.000
5.76500 1090.000
5.78000 1136.000
5.79500 1097.000
5.81000 1103.000
5.82500 1157.000
5.84000 1101.000
5.85500 1115.000
5.87000 1069.000
5.88500 1090.000
5.90000 1096.000
5.91500 1060.000
5.93000 1075.000
5.94500 1038.000
5.96000 1035.000
5.97500 1057.000
5.99000 1048.000
6.00500 1033.000
6.02000 1046.000
6.03500 1020.000
6.05000 1046.000
6.06500 1046.000
6.08000 1029.000
6.09500 1067.000
6.11000 991.000
6.12500 1023.000
6.14000 1042.000
6.15500 1054.000
6.17000 1001.000
6.18500 1033.000
6.20000 1019.000
6.21500 998.000
6.23000 1035.000
6.24500 953.000
6.26000 1013.000
6.27500 1015.000
6.29000 997.000
6.30500 977.000
6.32000 1051.000
6.33500 1026.000
6.35000 1027.000
6.36500 994.000
6.38000 975.000
6.39500 1029.000
6.41000 999.000
6.42500 1009.000
6.44000 993.000
6.45500 983.000
6.47000 1002.000
6.48500 1020.000
6.50000 976.000
6.51500 972.000
6.53000 974.000
6.54500 959.000
6.56000 1002.000
6.57500 956.000
6.59000 956.000
6.60500 970.000
6.62000 978.000
6.63500 952.000
6.65000 966.000
6.66500 995.000
6.68000 1014.000
6.69500 1010.000
6.71000 978.000
6.72500 991.000
6.74000 963.000
6.75500 950.000
6.77000 962.000
6.78500 910.000
6.80000 915.000
6.81500 946.000
6.83000 914.000
6.84500 947.000
6.86000 905.000
6.87500 933.000
6.89000 933.000
6.90500 900.000
6.92000 929.000
6.93500 936.000
6.95000 907.000
6.96500 932.000
6.98000 897.000
6.99500 963.000
7.01000 934.000
7.02500 892.000
7.04000 921.000
7.05500 932.000
7.07000 933.000
7.08500 923.000
7.10000 883.000
7.11500 927.000
7.13000 898.000
7.14500 874.000
7.16000 879.000
7.17500 923.000
7.19000 895.000
7.20500 894.000
7.22000 918.000
7.23500 909.000
7.25000 917.000
7.26500 857.000
7.28000 899.000
7.29500 901.000
7.31000 843.000
7.32500 867.000
7.34000 911.000
7.35500 916.000
7.37000 914.000
7.38500 957.000
7.40000 908.000
7.41500 914.000
7.43000 900.000
7.44500 890.000
7.46000 922.000
7.47500 880.000
7.49000 903.000
7.50500 899.000
7.52000 900.000
7.53500 898.000
7.55000 882.000
7.56500 882.000
7.58000 877.000
7.59500 862.000
7.61000 886.000
7.62500 879.000
7.64000 906.000
7.65500 902.000
7.67000 895.000
7.68500 835.000
7.70000 835.000
7.71500 873.000
7.73000 869.000
7.74500 859.000
7.76000 840.000
7.77500 868.000
7.79000 862.000
7.80500 872.000
7.82000 870.000
7.83500 870.000
7.85000 835.000
7.86500 821.000
7.88000 798.000
7.89500 852.000
7.91000 891.000
7.92500 866.000
7.94000 882.000
7.95500 835.000
7.97000 807.000
7.98500 834.000
8.00000 870.000
8.01500 858.000
8.03000 830.000
8.04500 821.000
8.06000 872.000
8.07500 824.000
8.09000 829.000
8.10500 825.000
8.12000 861.000
8.13500 870.000
8.15000 853.000
8.16500 844.000
8.18000 856.000
8.19500 800.000
8.21000 810.000
8.22500 829.000
8.24000 855.000
8.25500 841.000
8.27000 837.000
8.28500 872.000
8.30000 845.000
8.31500 836.000
8.33000 817.000
8.34500 796.000
8.36000 803.000
8.37500 822.000
8.39000 831.000
8.40500 858.000
8.42000 803.000
8.43500 814.000
8.45000 828.000
8.46500 755.000
8.48000 801.000
8.49500 840.000
8.51000 833.000
8.52500 829.000
8.54000 841.000
8.55500 816.000
8.57000 871.000
8.58500 815.000
8.60000 843.000
8.61500 834.000
8.63000 820.000
8.64500 800.000
8.66000 784.000
8.67500 785.000
8.69000 752.000
8.70500 759.000
8.72000 781.000
8.73500 809.000
8.75000 815.000
8.76500 781.000
8.78000 770.000
8.79500 778.000
8.81000 810.000
8.82500 746.000
8.84000 769.000
8.85500 797.000
8.87000 821.000
8.88500 864.000
8.90000 838.000
8.91500 834.000
8.93000 821.000
8.94500 734.000
8.96000 794.000
8.97500 867.000
8.99000 819.000
9.00500 779.000
9.02000 776.000
9.03500 774.000
9.05000 776.000
9.06500 768.000
9.08000 810.000
9.09500 793.000
9.11000 788.000
9.12500 787.000
9.14000 757.000
9.15500 841.000
9.17000 816.000
9.18500 783.000
9.20000 738.000
9.21500 719.000
9.23000 788.000
9.24500 803.000
9.26000 757.000
9.27500 762.000
9.29000 750.000
9.30500 747.000
9.32000 740.000
9.33500 766.000
9.35000 749.000
9.36500 764.000
9.38000 790.000
9.39500 768.000
9.41000 782.000
9.42500 787.000
9.44000 764.000
9.45500 799.000
9.47000 754.000
9.48500 748.000
9.50000 776.000
9.51500 770.000
9.53000 784.000
9.54500 788.000
9.56000 791.000
9.57500 778.000
9.59000 765.000
9.60500 778.000
9.62000 754.000
9.63500 799.000
9.65000 820.000
9.66500 806.000
9.68000 794.000
9.69500 800.000
9.71000 798.000
9.72500 758.000
9.74000 790.000
9.75500 774.000
9.77000 683.000
9.78500 742.000
9.80000 749.000
9.81500 769.000
9.83000 757.000
9.84500 738.000
9.86000 733.000
9.87500 730.000
9.89000 770.000
9.90500 766.000
9.92000 775.000
9.93500 745.000
9.95000 765.000
9.96500 737.000
9.98000 745.000
9.99500 732.000
10.01000 773.000
10.02500 733.000
10.04000 754.000
10.05500 778.000
10.07000 780.000
10.08500 757.000
10.10000 757.000
10.11500 736.000
10.13000 702.000
10.14500 722.000
10.16000 805.000
10.17500 733.000
10.19000 743.000
10.20500 706.000
10.22000 730.000
10.23500 720.000
10.25000 731.000
10.26500 739.000
10.28000 777.000
10.29500 773.000
10.31000 780.000
10.32500 767.000
10.34000 736.000
10.35500 740.000
10.37000 747.000
10.38500 757.000
10.40000 743.000
10.41500 760.000
10.43000 729.000
10.44500 693.000
10.46000 737.000
10.47500 719.000
10.49000 752.000
10.50500 745.000
10.52000 748.000
10.53500 737.000
10.55000 724.000
10.56500 741.000
10.58000 731.000
10.59500 763.000
10.61000 767.000
10.62500 738.000
10.64000 722.000
10.65500 729.000
10.67000 724.000
10.68500 746.000
10.70000 698.000
10.71500 750.000
10.73000 762.000
10.74500 758.000
10.76000 745.000
10.77500 729.000
10.79000 719.000
10.80500 733.000
10.82000 738.000
10.83500 725.000
10.85000 726.000
10.86500 710.000
10.88000 763.000
10.89500 720.000
10.91000 711.000
10.92500 693.000
10.94000 722.000
10.95500 772.000
10.97000 745.000
10.98500 735.000
11.00000 746.000
11.01500 730.000
11.03000 711.000
11.04500 767.000
11.06000 751.000
11.07500 753.000
11.09000 726.000
11.10500 701.000
11.12000 716.000
11.13500 701.000
11.15000 753.000
11.16500 703.000
11.18000 684.000
11.19500 749.000
11.21000 728.000
11.22500 749.000
11.24000 762.000
11.25500 783.000
11.27000 732.000
11.28500 720.000
11.30000 741.000
11.31500 735.000
11.33000 744.000
11.34500 744.000
11.36000 747.000
11.37500 754.000
11.39000 769.000
11.40500 722.000
11.42000 715.000
11.43500 754.000
11.45000 736.000
11.46500 740.000
11.48000 732.000
11.49500 777.000
11.51000 735.000
11.52500 725.000
11.54000 758.000
11.55500 723.000
11.57000 741.000
11.58500 736.000
11.60000 766.000
11.61500 736.000
11.63000 745.000
11.64500 754.000
11.66000 742.000
11.67500 710.000
11.69000 723.000
11.70500 697.000
11.72000 711.000
11.73500 733.000
11.75000 696.000
11.76500 721.000
11.78000 727.000
11.79500 714.000
11.81000 692.000
11.82500 726.000
11.84000 748.000
11.85500 765.000
11.87000 751.000
11.88500 724.000
11.90000 737.000
11.91500 713.000
11.93000 726.000
11.94500 747.000
11.96000 731.000
11.97500 745.000
11.99000 736.000
12.00500 708.000
12.02000 710.000
12.03500 728.000
12.05000 727.000
12.06500 726.000
12.08000 750.000
12.09500 741.000
12.11000 767.000
12.12500 728.000
12.14000 708.000
12.15500 714.000
12.17000 695.000
12.18500 712.000
12.20000 704.000
12.21500 745.000
12.23000 739.000
12.24500 708.000
12.26000 727.000
12.27500 746.000
12.29000 745.000
12.30500 734.000
12.32000 732.000
12.33500 729.000
12.35000 745.000
12.36500 742.000
12.38000 761.000
12.39500 789.000
12.41000 768.000
12.42500 760.000
12.44000 757.000
12.45500 751.000
12.47000 732.000
12.48500 731.000
12.50000 740.000
12.51500 727.000
12.53000 700.000
12.54500 718.000
12.56000 703.000
12.57500 727.000
12.59000 730.000
12.60500 711.000
12.62000 694.000
12.63500 752.000
12.65000 736.000
12.66500 762.000
12.68000 746.000
12.69500 740.000
12.71000 747.000
12.72500 757.000
12.74000 730.000
12.75500 724.000
12.77000 752.000
12.78500 722.000
12.80000 714.000
12.81500 718.000
12.83000 749.000
12.84500 738.000
12.86000 725.000
12.87500 746.000
12.89000 755.000
12.90500 733.000
12.92000 753.000
12.93500 758.000
12.95000 741.000
12.96500 747.000
12.98000 769.000
12.99500 737.000
13.01000 744.000
13.02500 746.000
13.04000 753.000
13.05500 732.000
13.07000 747.000
13.08500 774.000
13.10000 774.000
13.11500 778.000
13.13000 746.000
13.14500 741.000
13.16000 717.000
13.17500 739.000
13.19000 739.000
13.20500 740.000
13.22000 757.000
13.23500 733.000
13.25000 742.000
13.26500 746.000
13.28000 749.000
13.29500 688.000
13.31000 749.000
13.32500 780.000
13.34000 749.000
13.35500 763.000
13.37000 748.000
13.38500 725.000
13.40000 755.000
13.41500 745.000
13.43000 782.000
13.44500 761.000
13.46000 761.000
13.47500 718.000
13.49000 707.000
13.50500 768.000
13.52000 734.000
13.53500 769.000
13.55000 756.000
13.56500 735.000
13.58000 763.000
13.59500 785.000
13.61000 781.000
13.62500 769.000
13.64000 782.000
13.65500 799.000
13.67000 774.000
13.68500 782.000
13.70000 764.000
13.71500 794.000
13.73000 787.000
13.74500 755.000
13.76000 754.000
13.77500 764.000
13.79000 754.000
13.80500 764.000
13.82000 768.000
13.83500 772.000
13.85000 777.000
13.86500 764.000
13.88000 749.000
13.89500 739.000
13.91000 761.000
13.92500 763.000
13.94000 765.000
13.95500 787.000
13.97000 751.000
13.98500 754.000
14.00000 780.000
14.01500 704.000
14.03000 736.000
14.04500 740.000
14.06000 746.000
14.07500 781.000
14.09000 771.000
14.10500 780.000
14.12000 763.000
14.13500 795.000
14.15000 807.000
14.16500 814.000
14.18000 757.000
14.19500 766.000
14.21000 773.000
14.22500 777.000
14.24000 750.000
14.25500 753.000
14.27000 757.000
14.28500 800.000
14.30000 761.000
14.31500 787.000
14.33000 777.000
14.34500 748.000
14.36000 734.000
14.37500 703.000
14.39000 816.000
14.40500 817.000
14.42000 771.000
14.43500 766.000
14.45000 757.000
14.46500 783.000
14.48000 770.000
14.49500 792.000
14.51000 788.000
14.52500 776.000
14.54000 776.000
14.55500 765.000
14.57000 781.000
14.58500 774.000
14.60000 753.000
14.61500 744.000
14.63000 765.000
14.64500 817.000
14.66000 760.000
14.67500 752.000
14.69000 770.000
14.70500 750.000
14.72000 793.000
14.73500 840.000
14.75000 807.000
14.76500 759.000
14.78000 755.000
14.79500 809.000
14.81000 830.000
14.82500 790.000
14.84000 823.000
14.85500 795.000
14.87000 763.000
14.88500 759.000
14.90000 785.000
14.91500 803.000
14.93000 769.000
14.94500 755.000
14.96000 828.000
14.97500 783.000
14.99000 796.000
15.00500 793.000
15.02000 809.000
15.03500 833.000
15.05000 821.000
15.06500 830.000
15.08000 813.000
15.09500 828.000
15.11000 788.000
15.12500 795.000
15.14000 838.000
15.15500 803.000
15.17000 838.000
15.18500 769.000
15.20000 778.000
15.21500 798.000
15.23000 828.000
15.24500 831.000
15.26000 753.000
15.27500 747.000
15.29000 835.000
15.30500 809.000
15.32000 778.000
15.33500 822.000
15.35000 800.000
15.36500 729.000
15.38000 785.000
15.39500 803.000
15.41000 780.000
15.42500 773.000
15.44000 802.000
15.45500 777.000
15.47000 818.000
15.48500 792.000
15.50000 813.000
15.51500 807.000
15.53000 794.000
15.54500 804.000
15.56000 829.000
15.57500 848.000
15.59000 844.000
15.60500 814.000
15.62000 777.000
15.63500 795.000
15.65000 816.000
15.66500 816.000
15.68000 797.000
15.69500 796.000
15.71000 830.000
15.72500 821.000
15.74000 763.000
15.75500 801.000
15.77000 815.000
15.78500 800.000
15.80000 805.000
15.81500 818.000
15.83000 810.000
15.84500 811.000
15.86000 833.000
15.87500 841.000
15.89000 812.000
15.90500 841.000
15.92000 867.000
15.93500 825.000
15.95000 807.000
15.96500 835.000
15.98000 846.000
15.99500 861.000
16.01000 808.000
16.02500 831.000
16.04000 811.000
16.05500 803.000
16.07000 824.000
16.08500 811.000
16.10000 843.000
16.11500 784.000
16.13000 819.000
16.14500 848.000
16.16000 858.000
16.17500 909.000
16.19000 847.000
16.20500 800.000
16.22000 838.000
16.23500 839.000
16.25000 798.000
16.26500 810.000
16.28000 850.000
16.29500 871.000
16.31000 834.000
16.32500 833.000
16.34000 856.000
16.35500 863.000
16.37000 799.000
16.38500 842.000
16.40000 892.000
16.41500 853.000
16.43000 823.000
16.44500 807.000
16.46000 869.000
16.47500 844.000
16.49000 836.000
16.50500 789.000
16.52000 817.000
16.53500 822.000
16.55000 813.000
16.56500 825.000
16.58000 819.000
16.59500 828.000
16.61000 879.000
16.62500 819.000
16.64000 839.000
16.65500 863.000
16.67000 865.000
16.68500 856.000
16.70000 876.000
16.71500 830.000
16.73000 851.000
16.74500 871.000
16.76000 855.000
16.77500 892.000
16.79000 871.000
16.80500 877.000
16.82000 870.000
16.83500 834.000
16.85000 835.000
16.86500 846.000
16.88000 870.000
16.89500 871.000
16.91000 832.000
16.92500 843.000
16.94000 854.000
16.95500 861.000
16.97000 866.000
16.98500 894.000
17.00000 858.000
17.01500 885.000
17.03000 874.000
17.04500 861.000
17.06000 917.000
17.07500 821.000
17.09000 874.000
17.10500 882.000
17.12000 856.000
17.13500 847.000
17.15000 838.000
17.16500 910.000
17.18000 867.000
17.19500 850.000
17.21000 853.000
17.22500 890.000
17.24000 847.000
17.25500 902.000
17.27000 857.000
17.28500 831.000
17.30000 869.000
17.31500 865.000
17.33000 885.000
17.34500 876.000
17.36000 864.000
17.37500 881.000
17.39000 852.000
17.40500 860.000
17.42000 871.000
17.43500 843.000
17.45000 833.000
17.46500 834.000
17.48000 856.000
17.49500 854.000
17.51000 863.000
17.52500 888.000
17.54000 924.000
17.55500 883.000
17.57000 889.000
17.58500 907.000
17.60000 907.000
17.61500 846.000
17.63000 860.000
17.64500 850.000
17.66000 930.000
17.67500 919.000
17.69000 893.000
17.70500 841.000
17.72000 837.000
17.73500 879.000
17.75000 927.000
17.76500 869.000
17.78000 862.000
17.79500 891.000
17.81000 856.000
17.82500 868.000
17.84000 926.000
17.85500 925.000
17.87000 875.000
17.88500 901.000
17.90000 907.000
17.91500 889.000
17.93000 883.000
17.94500 900.000
17.96000 904.000
17.97500 891.000
17.99000 934.000
18.00500 917.000
18.02000 888.000
18.03500 897.000
18.05000 883.000
18.06500 846.000
18.08000 883.000
18.09500 889.000
18.11000 955.000
18.12500 958.000
18.14000 902.000
18.15500 933.000
18.17000 905.000
18.18500 897.000
18.20000 944.000
18.21500 885.000
18.23000 873.000
18.24500 903.000
18.26000 938.000
18.27500 915.000
18.29000 869.000
18.30500 935.000
18.32000 907.000
18.33500 884.000
18.35000 920.000
18.36500 870.000
18.38000 891.000
18.39500 914.000
18.41000 934.000
18.42500 939.000
18.44000 943.000
18.45500 935.000
18.47000 940.000
18.48500 921.000
18.50000 918.000
18.51500 901.000
18.53000 909.000
18.54500 957.000
18.56000 950.000
18.57500 956.000
18.59000 904.000
18.60500 914.000
18.62000 917.000
18.63500 901.000
18.65000 907.000
18.66500 872.000
18.68000 898.000
18.69500 926.000
18.71000 906.000
18.72500 952.000
18.74000 961.000
18.75500 894.000
18.77000 909.000
18.78500 947.000
18.80000 921.000
18.81500 907.000
18.83000 899.000
18.84500 919.000
18.86000 929.000
18.87500 918.000
18.89000 932.000
18.90500 944.000
18.92000 936.000
18.93500 930.000
18.95000 931.000
18.96500 916.000
18.98000 945.000
18.99500 931.000
19.01000 930.000
19.02500 928.000
19.04000 914.000
19.05500 949.000
19.07000 947.000
19.08500 927.000
19.10000 936.000
19.11500 933.000
19.13000 938.000
19.14500 965.000
19.16000 985.000
19.17500 962.000
19.19000 944.000
19.20500 922.000
19.22000 914.000
19.23500 950.000
19.25000 944.000
19.26500 938.000
19.28000 922.000
19.29500 898.000
19.31000 922.000
19.32500 961.000
19.34000 942.000
19.35500 984.000
19.37000 953.000
19.38500 880.000
19.40000 927.000
19.41500 940.000
19.43000 944.000
19.44500 973.000
19.46000 972.000
19.47500 972.000
19.49000 920.000
19.50500 922.000
19.52000 957.000
19.53500 938.000
19.55000 961.000
19.56500 947.000
19.58000 989.000
19.59500 942.000
19.61000 973.000
19.62500 930.000
19.64000 941.000
19.65500 970.000
19.67000 976.000
19.68500 947.000
19.70000 950.000
19.71500 966.000
19.73000 951.000
19.74500 969.000
19.76000 937.000
19.77500 929.000
19.79000 935.000
19.80500 950.000
19.82000 923.000
19.83500 912.000
19.85000 922.000
19.86500 925.000
19.88000 906.000
19.89500 953.000
19.91000 947.000
19.92500 946.000
19.94000 929.000
19.95500 928.000
19.97000 964.000
19.98500 977.000
20.00000 929.000
20.01500 952.000
20.03000 927.000
20.04500 998.000
20.06000 986.000
20.07500 962.000
20.09000 931.000
20.10500 954.000
20.12000 987.000
20.13500 971.000
20.15000 976.000
20.16500 969.000
20.18000 933.000
20.19500 999.000
20.21000 963.000
20.22500 931.000
20.24000 987.000
20.25500 978.000
20.27000 950.000
20.28500 986.000
20.30000 954.000
20.31500 956.000
20.33000 957.000
20.34500 998.000
20.36000 978.000
20.37500 959.000
20.39000 968.000
20.40500 968.000
20.42000 965.000
20.43500 990.000
20.45000 996.000
20.46500 952.000
20.48000 973.000
20.49500 989.000
20.51000 950.000
20.52500 992.000
20.54000 959.000
20.55500 987.000
20.57000 998.000
20.58500 954.000
20.60000 906.000
20.61500 959.000
20.63000 971.000
20.64500 970.000
20.66000 986.000
20.67500 973.000
20.69000 1031.000
20.70500 963.000
20.72000 959.000
20.73500 965.000
20.75000 995.000
20.76500 957.000
20.78000 995.000
20.79500 971.000
20.81000 998.000
20.82500 991.000
20.84000 971.000
20.85500 1000.000
20.87000 936.000
20.88500 975.000
20.90000 981.000
20.91500 948.000
20.93000 997.000
20.94500 971.000
20.96000 961.000
20.97500 989.000
20.99000 952.000
21.00500 968.000
21.02000 952.000
21.03500 930.000
21.05000 945.000
21.06500 974.000
21.08000 969.000
21.09500 994.000
21.11000 971.000
21.12500 959.000
21.14000 972.000
21.15500 1001.000
21.17000 1001.000
21.18500 971.000
21.20000 951.000
21.21500 993.000
21.23000 983.000
21.24500 943.000
21.26000 1024.000
21.27500 974.000
21.29000 986.000
21.30500 965.000
21.32000 959.000
21.33500 981.000
21.35000 996.000
21.36500 1000.000
21.38000 1008.000
21.39500 1008.000
21.41000 990.000
21.42500 984.000
21.44000 942.000
21.45500 976.000
21.47000 990.000
21.48500 997.000
21.50000 957.000
21.51500 995.000
21.53000 967.000
21.54500 1011.000
21.56000 1044.000
21.57500 954.000
21.59000 951.000
21.60500 946.000
21.62000 953.000
21.63500 998.000
21.65000 1005.000
21.66500 970.000
21.68000 1003.000
21.69500 1018.000
21.71000 979.000
21.72500 1013.000
21.74000 1037.000
21.75500 1012.000
21.77000 994.000
21.78500 969.000
21.80000 976.000
21.81500 961.000
21.83000 992.000
21.84500 988.000
21.86000 957.000
21.87500 956.000
21.89000 936.000
21.90500 977.000
21.92000 976.000
21.93500 1001.000
21.95000 1034.000
21.96500 978.000
21.98000 972.000
21.99500 1018.000
22.01000 988.000
22.02500 1033.000
22.04000 972.000
22.05500 996.000
22.07000 961.000
22.08500 966.000
22.10000 983.000
22.11500 961.000
22.13000 962.000
22.14500 987.000
22.16000 987.000
22.17500 971.000
22.19000 987.000
22.20500 1008.000
22.22000 1000.000
22.23500 998.000
22.25000 980.000
22.26500 992.000
22.28000 1002.000
22.29500 976.000
22.31000 970.000
22.32500 977.000
22.34000 1004.000
22.35500 961.000
22.37000 975.000
22.38500 981.000
22.40000 966.000
22.41500 966.000
22.43000 959.000
22.44500 950.000
22.46000 1003.000
22.47500 1034.000
22.49000 988.000
22.50500 986.000
22.52000 980.000
22.53500 972.000
22.55000 955.000
22.56500 988.000
22.58000 960.000
22.59500 981.000
22.61000 980.000
22.62500 1029.000
22.64000 925.000
22.65500 957.000
22.67000 991.000
22.68500 953.000
22.70000 989.000
22.71500 997.000
22.73000 986.000
22.74500 1000.000
22.76000 927.000
22.77500 927.000
22.79000 965.000
22.80500 954.000
22.82000 981.000
22.83500 1020.000
22.85000 989.000
22.86500 979.000
22.88000 955.000
22.89500 974.000
22.91000 1003.000
22.92500 981.000
22.94000 996.000
22.95500 980.000
22.97000 971.000
22.98500 980.000
23.00000 961.000
23.01500 1036.000
23.03000 972.000
23.04500 962.000
23.06000 997.000
23.07500 964.000
23.09000 974.000
23.10500 982.000
23.12000 992.000
23.13500 993.000
23.15000 972.000
23.16500 1001.000
23.18000 987.000
23.19500 985.000
23.21000 995.000
23.22500 1012.000
23.24000 988.000
23.25500 975.000
23.27000 992.000
23.28500 981.000
23.30000 964.000
23.31500 994.000
23.33000 970.000
23.34500 966.000
23.36000 965.000
23.37500 976.000
23.39000 967.000
23.40500 981.000
23.42000 962.000
23.43500 939.000
23.45000 938.000
23.46500 957.000
23.48000 1031.000
23.49500 960.000
23.51000 999.000
23.52500 1021.000
23.54000 1010.000
23.55500 954.000
23.57000 1000.000
23.58500 993.000
23.60000 959.000
23.61500 979.000
23.63000 974.000
23.64500 932.000
23.66000 955.000
23.67500 945.000
23.69000 940.000
23.70500 874.000
23.72000 902.000
23.73500 1015.000
23.75000 1025.000
23.76500 999.000
23.78000 987.000
23.79500 957.000
23.81000 972.000
23.82500 959.000
23.84000 912.000
23.85500 966.000
23.87000 1006.000
23.88500 1030.000
23.90000 983.000
23.91500 945.000
23.93000 1004.000
23.94500 1004.000
23.96000 955.000
23.97500 969.000
23.99000 963.000
24.00500 955.000
24.02000 925.000
24.03500 946.000
24.05000 973.000
24.06500 918.000
24.08000 937.000
24.09500 958.000
24.11000 943.000
24.12500 975.000
24.14000 939.000
24.15500 967.000
24.17000 964.000
24.18500 951.000
24.20000 924.000
24.21500 952.000
24.23000 960.000
24.24500 940.000
24.26000 965.000
24.27500 999.000
24.29000 967.000
24.30500 974.000
24.32000 941.000
24.33500 934.000
24.35000 933.000
24.36500 935.000
24.38000 926.000
24.39500 954.000
24.41000 939.000
24.42500 941.000
24.44000 954.000
24.45500 991.000
24.47000 927.000
24.48500 949.000
24.50000 953.000
24.51500 930.000
24.53000 974.000
24.54500 970.000
24.56000 960.000
24.57500 970.000
24.59000 956.000
24.60500 888.000
24.62000 943.000
24.63500 968.000
24.65000 947.000
24.66500 953.000
24.68000 964.000
24.69500 956.000
24.71000 923.000
24.72500 962.000
24.74000 926.000
24.75500 947.000
24.77000 926.000
24.78500 910.000
24.80000 907.000
24.81500 937.000
24.83000 919.000
24.84500 905.000
24.86000 924.000
24.87500 936.000
24.89000 933.000
24.90500 939.000
24.92000 901.000
24.93500 936.000
24.95000 900.000
24.96500 918.000
24.98000 920.000
24.99500 962.000
25.01000 961.000
25.02500 898.000
25.04000 885.000
25.05500 918.000
25.07000 945.000
25.08500 953.000
25.10000 919.000
25.11500 905.000
25.13000 894.000
25.14500 897.000
25.16000 908.000
25.17500 934.000
25.19000 915.000
25.20500 896.000
25.22000 924.000
25.23500 893.000
25.25000 881.000
25.26500 871.000
25.28000 943.000
25.29500 914.000
25.31000 901.000
25.32500 890.000
25.34000 917.000
25.35500 912.000
25.37000 876.000
25.38500 880.000
25.40000 877.000
25.41500 905.000
25.43000 911.000
25.44500 917.000
25.46000 907.000
25.47500 882.000
25.49000 892.000
25.50500 905.000
25.52000 896.000
25.53500 886.000
25.55000 872.000
25.56500 857.000
25.58000 863.000
25.59500 929.000
25.61000 878.000
25.62500 868.000
25.64000 867.000
25.65500 834.000
25.67000 883.000
25.68500 830.000
25.70000 843.000
25.71500 836.000
25.73000 890.000
25.74500 834.000
25.76000 831.000
25.77500 888.000
25.79000 875.000
25.80500 892.000
25.82000 920.000
25.83500 915.000
25.85000 841.000
25.86500 863.000
25.88000 834.000
25.89500 875.000
25.91000 879.000
25.92500 888.000
25.94000 810.000
25.95500 857.000
25.97000 854.000
25.98500 873.000
26.00000 874.000
26.01500 873.000
26.03000 834.000
26.04500 827.000
26.06000 862.000
26.07500 847.000
26.09000 899.000
26.10500 880.000
26.12000 845.000
26.13500 883.000
26.15000 887.000
26.16500 818.000
26.18000 875.000
26.19500 849.000
26.21000 856.000
26.22500 828.000
26.24000 842.000
26.25500 844.000
26.27000 832.000
26.28500 836.000
26.30000 838.000
26.31500 846.000
26.33000 817.000
26.34500 845.000
26.36000 811.000
26.37500 857.000
26.39000 852.000
26.40500 821.000
26.42000 811.000
26.43500 836.000
26.45000 815.000
26.46500 861.000
26.48000 825.000
26.49500 837.000
26.51000 865.000
26.52500 872.000
26.54000 874.000
26.55500 860.000
26.57000 862.000
26.58500 838.000
26.60000 822.000
26.61500 815.000
26.63000 807.000
26.64500 798.000
26.66000 804.000
26.67500 839.000
26.69000 828.000
26.70500 820.000
26.72000 811.000
26.73500 798.000
26.75000 849.000
26.76500 800.000
26.78000 795.000
26.79500 800.000
26.81000 800.000
26.82500 823.000
26.84000 765.000
26.85500 777.000
26.87000 787.000
26.88500 786.000
26.90000 771.000
26.91500 771.000
26.93000 786.000
26.94500 768.000
26.96000 782.000
26.97500 799.000
26.99000 822.000
27.00500 785.000
27.02000 767.000
27.03500 801.000
27.05000 775.000
27.06500 773.000
27.08000 763.000
27.09500 760.000
27.11000 775.000
27.12500 804.000
27.14000 746.000
27.15500 783.000
27.17000 768.000
27.18500 777.000
27.20000 796.000
27.21500 771.000
27.23000 791.000
27.24500 751.000
27.26000 748.000
27.27500 770.000
27.29000 769.000
27.30500 782.000
27.32000 752.000
27.33500 767.000
27.35000 757.000
27.36500 707.000
27.38000 722.000
27.39500 711.000
27.41000 759.000
27.42500 743.000
27.44000 715.000
27.45500 769.000
27.47000 747.000
27.48500 728.000
27.50000 736.000
27.51500 777.000
27.53000 730.000
27.54500 728.000
27.56000 742.000
27.57500 746.000
27.59000 759.000
27.60500 753.000
27.62000 722.000
27.63500 752.000
27.65000 760.000
27.66500 739.000
27.68000 716.000
27.69500 721.000
27.71000 785.000
27.72500 746.000
27.74000 719.000
27.75500 754.000
27.77000 751.000
27.78500 756.000
27.80000 739.000
27.81500 746.000
27.83000 707.000
27.84500 711.000
27.86000 708.000
27.87500 710.000
27.89000 706.000
27.90500 688.000
27.92000 720.000
27.93500 737.000
27.95000 739.000
27.96500 713.000
27.98000 715.000
27.99500 722.000
28.01000 744.000
28.02500 762.000
28.04000 715.000
28.05500 744.000
28.07000 762.000
28.08500 743.000
28.10000 689.000
28.11500 656.000
28.13000 659.000
28.14500 713.000
28.16000 688.000
28.17500 706.000
28.19000 690.000
28.20500 709.000
28.22000 710.000
28.23500 700.000
28.25000 692.000
28.26500 718.000
28.28000 721.000
28.29500 682.000
28.31000 692.000
28.32500 685.000
28.34000 700.000
28.35500 695.000
28.37000 694.000
28.38500 696.000
28.40000 716.000
28.41500 707.000
28.43000 731.000
28.44500 695.000
28.46000 704.000
28.47500 714.000
28.49000 696.000
28.50500 672.000
28.52000 679.000
28.53500 688.000
28.55000 698.000
28.56500 674.000
28.58000 661.000
28.59500 631.000
28.61000 692.000
28.62500 677.000
28.64000 653.000
28.65500 639.000
28.67000 674.000
28.68500 684.000
28.70000 651.000
28.71500 647.000
28.73000 618.000
28.74500 663.000
28.76000 663.000
28.77500 675.000
28.79000 670.000
28.80500 679.000
28.82000 682.000
28.83500 648.000
28.85000 661.000
28.86500 685.000
28.88000 670.000
28.89500 648.000
28.91000 632.000
28.92500 651.000
28.94000 658.000
28.95500 638.000
28.97000 645.000
28.98500 635.000
29.00000 674.000
29.01500 651.000
29.03000 651.000
29.04500 652.000
29.06000 678.000
29.07500 655.000
29.09000 690.000
29.10500 658.000
29.12000 630.000
29.13500 687.000
29.15000 610.000
29.16500 651.000
29.18000 645.000
29.19500 641.000
29.21000 607.000
29.22500 626.000
29.24000 665.000
29.25500 667.000
29.27000 665.000
29.28500 661.000
29.30000 629.000
29.31500 654.000
29.33000 623.000
29.34500 629.000
29.36000 602.000
29.37500 630.000
29.39000 642.000
29.40500 639.000
29.42000 667.000
29.43500 582.000
29.45000 597.000
29.46500 657.000
29.48000 667.000
29.49500 633.000
29.51000 622.000
29.52500 623.000
29.54000 608.000
29.55500 625.000
29.57000 644.000
29.58500 680.000
29.60000 610.000
29.61500 586.000
29.63000 598.000
29.64500 618.000
29.66000 638.000
29.67500 626.000
29.69000 633.000
29.70500 625.000
29.72000 638.000
29.73500 625.000
29.75000 626.000
29.76500 573.000
29.78000 586.000
29.79500 599.000
29.81000 638.000
29.82500 621.000
29.84000 599.000
29.85500 607.000
29.87000 607.000
29.88500 650.000
29.90000 657.000
29.91500 621.000
29.93000 623.000
29.94500 605.000
29.96000 581.000
29.97500 632.000
29.99000 611.000
30.00500 616.000
30.02000 606.000
30.03500 646.000
30.05000 594.000
30.06500 587.000
30.08000 583.000
30.09500 622.000
30.11000 597.000
30.12500 588.000
30.14000 556.000
30.15500 577.000
30.17000 605.000
30.18500 624.000
30.20000 613.000
30.21500 578.000
30.23000 595.000
30.24500 632.000
30.26000 598.000
30.27500 605.000
30.29000 576.000
30.30500 555.000
30.32000 576.000
30.33500 581.000
30.35000 576.000
30.36500 558.000
30.38000 551.000
30.39500 588.000
30.41000 572.000
30.42500 590.000
30.44000 604.000
30.45500 576.000
30.47000 579.000
30.48500 559.000
30.50000 577.000
30.51500 628.000
30.53000 566.000
30.54500 543.000
30.56000 577.000
30.57500 583.000
30.59000 573.000
30.60500 577.000
30.62000 586.000
30.63500 558.000
30.65000 549.000
30.66500 576.000
30.68000 552.000
30.69500 558.000
30.71000 586.000
30.72500 580.000
30.74000 569.000
30.75500 600.000
30.77000 576.000
30.78500 574.000
30.80000 565.000
30.81500 574.000
30.83000 575.000
30.84500 577.000
30.86000 560.000
30.87500 594.000
30.89000 596.000
30.90500 569.000
30.92000 532.000
30.93500 559.000
30.95000 569.000
30.96500 590.000
30.98000 561.000
30.99500 529.000
31.01000 553.000
31.02500 608.000
31.04000 568.000
31.05500 581.000
31.07000 582.000
31.08500 559.000
31.10000 587.000
31.11500 565.000
31.13000 562.000
31.14500 545.000
31.16000 564.000
31.17500 575.000
31.19000 534.000
31.20500 558.000
31.22000 583.000
31.23500 546.000
31.25000 523.000
31.26500 532.000
31.28000 521.000
31.29500 534.000
31.31000 490.000
31.32500 521.000
31.34000 500.000
31.35500 527.000
31.37000 514.000
31.38500 564.000
31.40000 541.000
31.41500 533.000
31.43000 526.000
31.44500 489.000
31.46000 493.000
31.47500 499.000
31.49000 555.000
31.50500 521.000
31.52000 517.000
31.53500 533.000
31.55000 492.000
31.56500 546.000
31.58000 536.000
31.59500 560.000
31.61000 519.000
31.62500 524.000
31.64000 536.000
31.65500 527.000
31.67000 516.000
31.68500 494.000
31.70000 523.000
31.71500 514.000
31.73000 524.000
31.74500 524.000
31.76000 527.000
31.77500 506.000
31.79000 530.000
31.80500 522.000
31.82000 484.000
31.83500 535.000
31.85000 531.000
31.86500 525.000
31.88000 512.000
31.89500 516.000
31.91000 507.000
31.92500 483.000
31.94000 520.000
31.95500 505.000
31.97000 518.000
31.98500 502.000
32.00000 509.000
32.01500 477.000
32.03000 492.000
32.04500 481.000
32.06000 532.000
32.07500 512.000
32.09000 504.000
32.10500 485.000
32.12000 511.000
32.13500 510.000
32.15000 490.000
32.16500 498.000
32.18000 466.000
32.19500 499.000
32.21000 469.000
32.22500 513.000
32.24000 484.000
32.25500 520.000
32.27000 496.000
32.28500 500.000
32.30000 494.000
32.31500 473.000
32.33000 485.000
32.34500 492.000
32.36000 509.000
32.37500 508.000
32.39000 477.000
32.40500 493.000
32.42000 520.000
32.43500 510.000
32.45000 506.000
32.46500 502.000
32.48000 512.000
32.49500 506.000
32.51000 510.000
32.52500 489.000
32.54000 466.000
32.55500 508.000
32.57000 495.000
32.58500 504.000
32.60000 482.000
32.61500 481.000
32.63000 467.000
32.64500 486.000
32.66000 492.000
32.67500 496.000
32.69000 467.000
32.70500 440.000
32.72000 478.000
32.73500 461.000
32.75000 486.000
32.76500 476.000
32.78000 461.000
32.79500 470.000
32.81000 504.000
32.82500 492.000
32.84000 475.000
32.85500 495.000
32.87000 456.000
32.88500 436.000
32.90000 474.000
32.91500 511.000
32.93000 450.000
32.94500 452.000
32.96000 479.000
32.97500 508.000
32.99000 469.000
33.00500 438.000
33.02000 460.000
33.03500 471.000
33.05000 458.000
33.06500 448.000
33.08000 449.000
33.09500 443.000
33.11000 471.000
33.12500 470.000
33.14000 469.000
33.15500 467.000
33.17000 470.000
33.18500 458.000
33.20000 443.000
33.21500 448.000
33.23000 483.000
33.24500 476.000
33.26000 470.000
33.27500 431.000
33.29000 456.000
33.30500 475.000
33.32000 428.000
33.33500 429.000
33.35000 461.000
33.36500 445.000
33.38000 434.000
33.39500 444.000
33.41000 439.000
33.42500 456.000
33.44000 429.000
33.45500 454.000
33.47000 451.000
33.48500 466.000
33.50000 450.000
33.51500 430.000
33.53000 419.000
33.54500 425.000
33.56000 447.000
33.57500 425.000
33.59000 452.000
33.60500 431.000
33.62000 412.000
33.63500 478.000
33.65000 485.000
33.66500 454.000
33.68000 446.000
33.69500 466.000
33.71000 448.000
33.72500 429.000
33.74000 395.000
33.75500 439.000
33.77000 450.000
33.78500 425.000
33.80000 460.000
33.81500 482.000
33.83000 455.000
33.84500 479.000
33.86000 437.000
33.87500 431.000
33.89000 422.000
33.90500 427.000
33.92000 453.000
33.93500 463.000
33.95000 432.000
33.96500 485.000
33.98000 467.000
33.99500 458.000
34.01000 433.000
34.02500 479.000
34.04000 482.000
34.05500 448.000
34.07000 419.000
34.08500 448.000
34.10000 415.000
34.11500 417.000
34.13000 421.000
34.14500 400.000
34.16000 384.000
34.17500 394.000
34.19000 406.000
34.20500 419.000
34.22000 436.000
34.23500 431.000
34.25000 448.000
34.26500 445.000
34.28000 438.000
34.29500 422.000
34.31000 416.000
34.32500 409.000
34.34000 414.000
34.35500 414.000
34.37000 434.000
34.38500 416.000
34.40000 388.000
34.41500 411.000
34.43000 429.000
34.44500 420.000
34.46000 428.000
34.47500 409.000
34.49000 373.000
34.50500 415.000
34.52000 402.000
34.53500 409.000
34.55000 405.000
34.56500 419.000
34.58000 391.000
34.59500 393.000
34.61000 406.000
34.62500 386.000
34.64000 358.000
34.65500 391.000
34.67000 418.000
34.68500 397.000
34.70000 390.000
34.71500 414.000
34.73000 426.000
34.74500 365.000
34.76000 386.000
34.77500 403.000
34.79000 420.000
34.80500 408.000
34.82000 394.000
34.83500 424.000
34.85000 408.000
34.86500 411.000
34.88000 395.000
34.89500 416.000
34.91000 412.000
34.92500 420.000
34.94000 405.000
34.95500 435.000
34.97000 414.000
34.98500 387.000
35.00000 391.000
35.01500 400.000
35.03000 410.000
35.04500 392.000
35.06000 417.000
35.07500 404.000
35.09000 422.000
35.10500 441.000
35.12000 442.000
35.13500 424.000
35.15000 388.000
35.16500 412.000
35.18000 404.000
35.19500 399.000
35.21000 390.000
35.22500 402.000
35.24000 422.000
35.25500 372.000
35.27000 413.000
35.28500 424.000
35.30000 421.000
35.31500 407.000
35.33000 405.000
35.34500 390.000
35.36000 384.000
35.37500 411.000
35.39000 426.000
35.40500 371.000
35.42000 390.000
35.43500 403.000
35.45000 386.000
35.46500 407.000
35.48000 380.000
35.49500 379.000
35.51000 355.000
35.52500 367.000
35.54000 378.000
35.55500 397.000
35.57000 412.000
35.58500 397.000
35.60000 378.000
35.61500 371.000
35.63000 364.000
35.64500 382.000
35.66000 388.000
35.67500 375.000
35.69000 381.000
35.70500 380.000
35.72000 392.000
35.73500 383.000
35.75000 383.000
35.76500 401.000
35.78000 387.000
35.79500 394.000
35.81000 390.000
35.82500 416.000
35.84000 375.000
35.85500 371.000
35.87000 364.000
35.88500 388.000
35.90000 392.000
35.91500 382.000
35.93000 355.000
35.94500 361.000
35.96000 377.000
35.97500 364.000
35.99000 377.000
36.00500 396.000
36.02000 371.000
36.03500 374.000
36.05000 362.000
36.06500 356.000
36.08000 360.000
36.09500 359.000
36.11000 384.000
36.12500 389.000
36.14000 373.000
36.15500 380.000
36.17000 362.000
36.18500 372.000
36.20000 390.000
36.21500 376.000
36.23000 352.000
36.24500 344.000
36.26000 348.000
36.27500 343.000
36.29000 377.000
36.30500 358.000
36.32000 332.000
36.33500 358.000
36.35000 345.000
36.36500 374.000
36.38000 361.000
36.39500 369.000
36.41000 352.000
36.42500 345.000
36.44000 350.000
36.45500 359.000
36.47000 372.000
36.48500 367.000
36.50000 367.000
36.51500 373.000
36.53000 376.000
36.54500 345.000
36.56000 371.000
36.57500 356.000
36.59000 374.000
36.60500 366.000
36.62000 358.000
36.63500 359.000
36.65000 357.000
36.66500 394.000
36.68000 386.000
36.69500 372.000
36.71000 373.000
36.72500 368.000
36.74000 352.000
36.75500 341.000
36.77000 369.000
36.78500 379.000
36.80000 362.000
36.81500 378.000
36.83000 360.000
36.84500 334.000
36.86000 354.000
36.87500 352.000
36.89000 319.000
36.90500 346.000
36.92000 344.000
36.93500 336.000
36.95000 325.000
36.96500 340.000
36.98000 339.000
36.99500 374.000
37.01000 356.000
37.02500 371.000
37.04000 368.000
37.05500 377.000
37.07000 374.000
37.08500 367.000
37.10000 363.000
37.11500 397.000
37.13000 400.000
37.14500 365.000
37.16000 340.000
37.17500 346.000
37.19000 309.000
37.20500 339.000
37.22000 352.000
37.23500 352.000
37.25000 368.000
37.26500 324.000
37.28000 329.000
37.29500 347.000
37.31000 338.000
37.32500 397.000
37.34000 382.000
37.35500 303.000
37.37000 364.000
37.38500 389.000
37.40000 362.000
37.41500 349.000
37.43000 340.000
37.44500 329.000
37.46000 369.000
37.47500 361.000
37.49000 333.000
37.50500 334.000
37.52000 350.000
37.53500 342.000
37.55000 344.000
37.56500 332.000
37.58000 329.000
37.59500 329.000
37.61000 353.000
37.62500 371.000
37.64000 373.000
37.65500 358.000
37.67000 343.000
37.68500 345.000
37.70000 344.000
37.71500 333.000
37.73000 332.000
37.74500 348.000
37.76000 351.000
37.77500 343.000
37.79000 344.000
37.80500 341.000
37.82000 380.000
37.83500 371.000
37.85000 334.000
37.86500 336.000
37.88000 349.000
37.89500 379.000
37.91000 341.000
37.92500 345.000
37.94000 330.000
37.95500 320.000
37.97000 328.000
37.98500 372.000
38.00000 371.000
38.01500 359.000
38.03000 310.000
38.04500 293.000
38.06000 326.000
38.07500 343.000
38.09000 349.000
38.10500 328.000
38.12000 340.000
38.13500 341.000
38.15000 338.000
38.16500 335.000
38.18000 352.000
38.19500 339.000
38.21000 329.000
38.22500 345.000
38.24000 335.000
38.25500 330.000
38.27000 324.000
38.28500 319.000
38.30000 334.000
38.31500 338.000
38.33000 329.000
38.34500 349.000
38.36000 354.000
38.37500 333.000
38.39000 378.000
38.40500 356.000
38.42000 329.000
38.43500 350.000
38.45000 345.000
38.46500 358.000
38.48000 330.000
38.49500 330.000
38.51000 337.000
38.52500 316.000
38.54000 356.000
38.55500 345.000
38.57000 344.000
38.58500 327.000
38.60000 334.000
38.61500 340.000
38.63000 324.000
38.64500 324.000
38.66000 316.000
38.67500 346.000
38.69000 359.000
38.70500 330.000
38.72000 306.000
38.73500 309.000
38.75000 348.000
38.76500 359.000
38.78000 361.000
38.79500 319.000
38.81000 332.000
38.82500 316.000
38.84000 334.000
38.85500 328.000
38.87000 318.000
38.88500 339.000
38.90000 346.000
38.91500 392.000
38.93000 354.000
38.94500 349.000
38.96000 365.000
38.97500 367.000
38.99000 316.000
39.00500 338.000
39.02000 351.000
39.03500 355.000
39.05000 345.000
39.06500 327.000
39.08000 316.000
39.09500 301.000
39.11000 324.000
39.12500 332.000
39.14000 351.000
39.15500 361.000
39.17000 334.000
39.18500 305.000
39.20000 334.000
39.21500 334.000
39.23000 322.000
39.24500 335.000
39.26000 338.000
39.27500 319.000
39.29000 328.000
39.30500 310.000
39.32000 325.000
39.33500 346.000
39.35000 342.000
39.36500 333.000
39.38000 334.000
39.39500 342.000
39.41000 356.000
39.42500 345.000
39.44000 340.000
39.45500 333.000
39.47000 344.000
39.48500 346.000
39.50000 339.000
39.51500 312.000
39.53000 324.000
39.54500 333.000
39.56000 358.000
39.57500 343.000
39.59000 364.000
39.60500 346.000
39.62000 345.000
39.63500 330.000
39.65000 348.000
39.66500 337.000
39.68000 329.000
39.69500 361.000
39.71000 362.000
39.72500 340.000
39.74000 327.000
39.75500 335.000
39.77000 323.000
39.78500 347.000
39.80000 328.000
39.81500 327.000
39.83000 329.000
39.84500 345.000
39.86000 353.000
39.87500 355.000
39.89000 358.000
39.90500 371.000
39.92000 327.000
39.93500 355.000
39.95000 315.000
39.96500 305.000
39.98000 327.000
39.99500 339.000
40.01000 333.000
40.02500 311.000
40.04000 320.000
40.05500 321.000
40.07000 353.000
40.08500 346.000
40.10000 355.000
40.11500 332.000
40.13000 329.000
40.14500 323.000
40.16000 309.000
40.17500 327.000
40.19000 349.000
40.20500 322.000
40.22000 345.000
40.23500 368.000
40.25000 357.000
40.26500 341.000
40.28000 332.000
40.29500 320.000
40.31000 338.000
40.32500 334.000
40.34000 347.000
40.35500 336.000
40.37000 337.000
40.38500 332.000
40.40000 326.000
40.41500 323.000
40.43000 349.000
40.44500 342.000
40.46000 324.000
40.47500 312.000
40.49000 360.000
40.50500 344.000
40.52000 331.000
40.53500 361.000
40.55000 328.000
40.56500 329.000
40.58000 334.000
40.59500 290.000
40.61000 331.000
40.62500 325.000
40.64000 329.000
40.65500 352.000
40.67000 308.000
40.68500 305.000
40.70000 349.000
40.71500 320.000
40.73000 320.000
40.74500 329.000
40.76000 335.000
40.77500 326.000
40.79000 318.000
40.80500 378.000
40.82000 348.000
40.83500 336.000
40.85000 332.000
40.86500 323.000
40.88000 313.000
40.89500 340.000
40.91000 329.000
40.92500 322.000
40.94000 346.000
40.95500 343.000
40.97000 315.000
40.98500 311.000
41.00000 323.000
41.01500 328.000
41.03000 334.000
41.04500 329.000
41.06000 345.000
41.07500 358.000
41.09000 344.000
41.10500 355.000
41.12000 377.000
41.13500 336.000
41.15000 314.000
41.16500 344.000
41.18000 351.000
41.19500 347.000
41.21000 330.000
41.22500 339.000
41.24000 342.000
41.25500 326.000
41.27000 325.000
41.28500 319.000
41.30000 316.000
41.31500 315.000
41.33000 327.000
41.34500 321.000
41.36000 341.000
41.37500 324.000
41.39000 353.000
41.40500 350.000
41.42000 348.000
41.43500 339.000
41.45000 348.000
41.46500 340.000
41.48000 352.000
41.49500 336.000
41.51000 366.000
41.52500 356.000
41.54000 330.000
41.55500 320.000
41.57000 324.000
41.58500 320.000
41.60000 326.000
41.61500 324.000
41.63000 329.000
41.64500 334.000
41.66000 312.000
41.67500 315.000
41.69000 330.000
41.70500 315.000
41.72000 308.000
41.73500 330.000
41.75000 338.000
41.76500 344.000
41.78000 346.000
41.79500 369.000
41.81000 369.000
41.82500 376.000
41.84000 341.000
41.85500 333.000
41.87000 336.000
41.88500 329.000
41.90000 355.000
41.91500 319.000
41.93000 326.000
41.94500 347.000
41.96000 336.000
41.97500 329.000
41.99000 343.000
42.00500 335.000
42.02000 320.000
42.03500 324.000
42.05000 346.000
42.06500 350.000
42.08000 334.000
42.09500 319.000
42.11000 358.000
42.12500 331.000
42.14000 342.000
42.15500 337.000
42.17000 363.000
42.18500 341.000
42.20000 328.000
42.21500 323.000
42.23000 332.000
42.24500 342.000
42.26000 372.000
42.27500 366.000
42.29000 351.000
42.30500 350.000
42.32000 346.000
42.33500 355.000
42.35000 339.000
42.36500 329.000
42.38000 350.000
42.39500 314.000
42.41000 320.000
42.42500 343.000
42.44000 337.000
42.45500 302.000
42.47000 317.000
42.48500 342.000
42.50000 323.000
42.51500 337.000
42.53000 328.000
42.54500 339.000
42.56000 330.000
42.57500 330.000
42.59000 342.000
42.60500 322.000
42.62000 317.000
42.63500 330.000
42.65000 338.000
42.66500 304.000
42.68000 355.000
42.69500 360.000
42.71000 374.000
42.72500 335.000
42.74000 341.000
42.75500 331.000
42.77000 313.000
42.78500 335.000
42.80000 330.000
42.81500 315.000
42.83000 312.000
42.84500 325.000
42.86000 347.000
42.87500 332.000
42.89000 345.000
42.90500 357.000
42.92000 310.000
42.93500 314.000
42.95000 316.000
42.96500 344.000
42.98000 352.000
42.99500 321.000
43.01000 315.000
43.02500 339.000
43.04000 347.000
43.05500 347.000
43.07000 374.000
43.08500 331.000
43.10000 334.000
43.11500 333.000
43.13000 346.000
43.14500 333.000
43.16000 312.000
43.17500 312.000
43.19000 319.000
43.20500 326.000
43.22000 336.000
43.23500 333.000
43.25000 319.000
43.26500 323.000
43.28000 360.000
43.29500 331.000
43.31000 322.000
43.32500 317.000
43.34000 320.000
43.35500 337.000
43.37000 341.000
43.38500 336.000
43.40000 352.000
43.41500 327.000
43.43000 354.000
43.44500 334.000
43.46000 343.000
43.47500 343.000
43.49000 344.000
43.50500 325.000
43.52000 349.000
43.53500 328.000
43.55000 338.000
43.56500 337.000
43.58000 337.000
43.59500 317.000
43.61000 316.000
43.62500 312.000
43.64000 325.000
43.65500 319.000
43.67000 325.000
43.68500 327.000
43.70000 323.000
43.71500 327.000
43.73000 325.000
43.74500 310.000
43.76000 319.000
43.77500 346.000
43.79000 328.000
43.80500 319.000
43.82000 335.000
43.83500 343.000
43.85000 336.000
43.86500 327.000
43.88000 320.000
43.89500 292.000
43.91000 321.000
43.92500 316.000
43.94000 324.000
43.95500 321.000
43.97000 319.000
43.98500 341.000
44.00000 354.000
44.01500 342.000
44.03000 335.000
44.04500 357.000
44.06000 320.000
44.07500 337.000
44.09000 330.000
44.10500 321.000
44.12000 339.000
44.13500 322.000
44.15000 301.000
44.16500 321.000
44.18000 318.000
44.19500 304.000
44.21000 322.000
44.22500 324.000
44.24000 333.000
44.25500 307.000
44.27000 338.000
44.28500 331.000
44.30000 334.000
44.31500 320.000
44.33000 320.000
44.34500 352.000
44.36000 336.000
44.37500 350.000
44.39000 337.000
44.40500 351.000
44.42000 307.000
44.43500 321.000
44.45000 332.000
44.46500 326.000
44.48000 328.000
44.49500 341.000
44.51000 325.000
44.52500 323.000
44.54000 303.000
44.55500 342.000
44.57000 332.000
44.58500 320.000
44.60000 305.000
44.61500 307.000
44.63000 309.000
44.64500 340.000
44.66000 325.000
44.67500 329.000
44.69000 297.000
44.70500 314.000
44.72000 362.000
44.73500 338.000
44.75000 364.000
44.76500 336.000
44.78000 338.000
44.79500 305.000
44.81000 300.000
44.82500 303.000
44.84000 332.000
44.85500 351.000
44.87000 303.000
44.88500 311.000
44.90000 314.000
44.91500 308.000
44.93000 304.000
44.94500 331.000
44.96000 333.000
44.97500 360.000
44.99000 330.000
45.00500 320.000
45.02000 317.000
45.03500 329.000
45.05000 318.000
45.06500 309.000
45.08000 309.000
45.09500 323.000
45.11000 340.000
45.12500 319.000
45.14000 331.000
45.15500 317.000
45.17000 345.000
45.18500 308.000
45.20000 302.000
45.21500 340.000
45.23000 334.000
45.24500 309.000
45.26000 327.000
45.27500 319.000
45.29000 306.000
45.30500 337.000
45.32000 320.000
45.33500 314.000
45.35000 323.000
45.36500 312.000
45.38000 323.000
45.39500 313.000
45.41000 325.000
45.42500 313.000
45.44000 326.000
45.45500 287.000
45.47000 325.000
45.48500 318.000
45.50000 339.000
45.51500 350.000
45.53000 311.000
45.54500 320.000
45.56000 317.000
45.57500 337.000
45.59000 289.000
45.60500 307.000
45.62000 321.000
45.63500 299.000
45.65000 328.000
45.66500 345.000
45.68000 319.000
45.69500 314.000
45.71000 323.000
45.72500 293.000
45.74000 298.000
45.75500 316.000
45.77000 296.000
45.78500 312.000
45.80000 312.000
45.81500 305.000
45.83000 297.000
45.84500 318.000
45.86000 312.000
45.87500 306.000
45.89000 296.000
45.90500 305.000
45.92000 300.000
45.93500 314.000
45.95000 305.000
45.96500 284.000
45.98000 310.000
45.99500 309.000
46.01000 310.000
46.02500 308.000
46.04000 312.000
46.05500 306.000
46.07000 318.000
46.08500 307.000
46.10000 318.000
46.11500 319.000
46.13000 303.000
46.14500 309.000
46.16000 315.000
46.17500 300.000
46.19000 316.000
46.20500 314.000
46.22000 334.000
46.23500 336.000
46.25000 275.000
46.26500 291.000
46.28000 291.000
46.29500 307.000
46.31000 298.000
46.32500 297.000
46.34000 306.000
46.35500 310.000
46.37000 303.000
46.38500 328.000
46.40000 315.000
46.41500 306.000
46.43000 298.000
46.44500 321.000
46.46000 313.000
46.47500 301.000
46.49000 304.000
46.50500 300.000
46.52000 293.000
46.53500 333.000
46.55000 307.000
46.56500 310.000
46.58000 326.000
46.59500 311.000
46.61000 341.000
46.62500 311.000
46.64000 326.000
46.65500 313.000
46.67000 318.000
46.68500 295.000
46.70000 307.000
46.71500 298.000
46.73000 312.000
46.74500 307.000
46.76000 288.000
46.77500 296.000
46.79000 286.000
46.80500 305.000
46.82000 293.000
46.83500 279.000
46.85000 286.000
46.86500 276.000
46.88000 280.000
46.89500 293.000
46.91000 282.000
46.92500 250.000
46.94000 299.000
46.95500 324.000
46.97000 302.000
46.98500 294.000
47.00000 281.000
47.01500 314.000
47.03000 286.000
47.04500 287.000
47.06000 313.000
47.07500 275.000
47.09000 282.000
47.10500 306.000
47.12000 305.000
47.13500 302.000
47.15000 287.000
47.16500 276.000
47.18000 307.000
47.19500 325.000
47.21000 332.000
47.22500 317.000
47.24000 300.000
47.25500 315.000
47.27000 276.000
47.28500 291.000
47.30000 296.000
47.31500 290.000
47.33000 299.000
47.34500 290.000
47.36000 287.000
47.37500 274.000
47.39000 273.000
47.40500 265.000
47.42000 282.000
47.43500 281.000
47.45000 287.000
47.46500 286.000
47.48000 292.000
47.49500 300.000
47.51000 309.000
47.52500 301.000
47.54000 285.000
47.55500 278.000
47.57000 277.000
47.58500 304.000
47.60000 302.000
47.61500 287.000
47.63000 295.000
47.64500 280.000
47.66000 286.000
47.67500 266.000
47.69000 288.000
47.70500 308.000
47.72000 272.000
47.73500 291.000
47.75000 306.000
47.76500 292.000
47.78000 283.000
47.79500 290.000
47.81000 290.000
47.82500 277.000
47.84000 307.000
47.85500 318.000
47.87000 291.000
47.88500 278.000
47.90000 272.000
47.91500 274.000
47.93000 282.000
47.94500 294.000
47.96000 296.000
47.97500 305.000
47.99000 319.000
48.00500 296.000
48.02000 294.000
48.03500 276.000
48.05000 276.000
48.06500 281.000
48.08000 276.000
48.09500 273.000
48.11000 267.000
48.12500 274.000
48.14000 276.000
48.15500 263.000
48.17000 299.000
48.18500 283.000
48.20000 294.000
48.21500 276.000
48.23000 285.000
48.24500 297.000
48.26000 263.000
48.27500 280.000
48.29000 289.000
48.30500 262.000
48.32000 285.000
48.33500 290.000
48.35000 268.000
48.36500 266.000
48.38000 268.000
48.39500 292.000
48.41000 271.000
48.42500 276.000
48.44000 286.000
48.45500 290.000
48.47000 289.000
48.48500 304.000
48.50000 294.000
48.51500 302.000
48.53000 297.000
48.54500 278.000
48.56000 255.000
48.57500 283.000
48.59000 283.000
48.60500 251.000
48.62000 288.000
48.63500 266.000
48.65000 282.000
48.66500 268.000
48.68000 267.000
48.69500 271.000
48.71000 285.000
48.72500 283.000
48.74000 287.000
48.75500 270.000
48.77000 271.000
48.78500 287.000
48.80000 281.000
48.81500 271.000
48.83000 269.000
48.84500 263.000
48.86000 280.000
48.87500 282.000
48.89000 266.000
48.90500 278.000
48.92000 297.000
48.93500 292.000
48.95000 259.000
48.96500 275.000
48.98000 276.000
48.99500 268.000
49.01000 288.000
49.02500 285.000
49.04000 283.000
49.05500 289.000
49.07000 299.000
49.08500 271.000
49.10000 282.000
49.11500 289.000
49.13000 293.000
49.14500 288.000
49.16000 268.000
49.17500 270.000
49.19000 277.000
49.20500 295.000
49.22000 288.000
49.23500 273.000
49.25000 263.000
49.26500 263.000
49.28000 295.000
49.29500 288.000
49.31000 269.000
49.32500 272.000
49.34000 250.000
49.35500 277.000
49.37000 275.000
49.38500 283.000
49.40000 292.000
49.41500 290.000
49.43000 283.000
49.44500 290.000
49.46000 283.000
49.47500 289.000
49.49000 279.000
49.50500 264.000
49.52000 286.000
49.53500 263.000
49.55000 268.000
49.56500 282.000
49.58000 263.000
49.59500 284.000
49.61000 260.000
49.62500 267.000
49.64000 297.000
49.65500 259.000
49.67000 277.000
49.68500 260.000
49.70000 262.000
49.71500 265.000
49.73000 290.000
49.74500 286.000
49.76000 272.000
49.77500 274.000
49.79000 277.000
49.80500 284.000
49.82000 280.000
49.83500 288.000
49.85000 276.000
49.86500 275.000
49.88000 248.000
49.89500 253.000
49.91000 283.000
49.92500 271.000
49.94000 266.000
49.95500 268.000
49.97000 263.000
49.98500 248.000
50.00000 266.000
50.01500 264.000
50.03000 283.000
50.04500 281.000
50.06000 273.000
50.07500 282.000
50.09000 286.000
50.10500 278.000
50.12000 277.000
50.13500 240.000
50.15000 265.000
50.16500 262.000
50.18000 251.000
50.19500 268.000
50.21000 274.000
50.22500 290.000
50.24000 257.000
50.25500 249.000
50.27000 251.000
50.28500 259.000
50.30000 249.000
50.31500 254.000
50.33000 251.000
50.34500 245.000
50.36000 255.000
50.37500 281.000
50.39000 250.000
50.40500 243.000
50.42000 261.000
50.43500 252.000
50.45000 240.000
50.46500 242.000
50.48000 264.000
50.49500 267.000
50.51000 254.000
50.52500 257.000
50.54000 254.000
50.55500 267.000
50.57000 261.000
50.58500 276.000
50.60000 290.000
50.61500 264.000
50.63000 276.000
50.64500 245.000
50.66000 264.000
50.67500 246.000
50.69000 255.000
50.70500 283.000
50.72000 276.000
50.73500 261.000
50.75000 252.000
50.76500 249.000
50.78000 253.000
50.79500 267.000
50.81000 247.000
50.82500 269.000
50.84000 255.000
50.85500 264.000
50.87000 267.000
50.88500 276.000
50.90000 265.000
50.91500 250.000
50.93000 248.000
50.94500 242.000
50.96000 250.000
50.97500 282.000
50.99000 268.000
51.00500 251.000
51.02000 249.000
51.03500 249.000
51.05000 261.000
51.06500 273.000
51.08000 276.000
51.09500 261.000
51.11000 249.000
51.12500 261.000
51.14000 264.000
51.15500 258.000
51.17000 259.000
51.18500 236.000
51.20000 244.000
51.21500 245.000
51.23000 266.000
51.24500 268.000
51.26000 255.000
51.27500 246.000
51.29000 269.000
51.30500 270.000
51.32000 277.000
51.33500 249.000
51.35000 249.000
51.36500 253.000
51.38000 283.000
51.39500 258.000
51.41000 265.000
51.42500 236.000
51.44000 245.000
51.45500 235.000
51.47000 246.000
51.48500 273.000
51.50000 262.000
51.51500 262.000
51.53000 228.000
51.54500 248.000
51.56000 271.000
51.57500 271.000
51.59000 268.000
51.60500 257.000
51.62000 253.000
51.63500 265.000
51.65000 275.000
51.66500 263.000
51.68000 257.000
51.69500 256.000
51.71000 249.000
51.72500 267.000
51.74000 256.000
51.75500 259.000
51.77000 254.000
51.78500 264.000
51.80000 259.000
51.81500 257.000
51.83000 250.000
51.84500 235.000
51.86000 248.000
51.87500 246.000
51.89000 249.000
51.90500 244.000
51.92000 270.000
51.93500 248.000
51.95000 243.000
51.96500 248.000
51.98000 228.000
51.99500 273.000
52.01000 253.000
52.02500 238.000
52.04000 249.000
52.05500 245.000
52.07000 255.000
52.08500 259.000
52.10000 251.000
52.11500 243.000
52.13000 243.000
52.14500 260.000
52.16000 237.000
52.17500 236.000
52.19000 264.000
52.20500 244.000
52.22000 245.000
52.23500 260.000
52.25000 236.000
52.26500 254.000
52.28000 263.000
52.29500 255.000
52.31000 229.000
52.32500 235.000
52.34000 232.000
52.35500 239.000
52.37000 262.000
52.38500 233.000
52.40000 227.000
52.41500 242.000
52.43000 247.000
52.44500 254.000
52.46000 236.000
52.47500 241.000
52.49000 253.000
52.50500 255.000
52.52000 252.000
52.53500 243.000
52.55000 242.000
52.56500 238.000
52.58000 262.000
52.59500 240.000
52.61000 233.000
52.62500 247.000
52.64000 259.000
52.65500 253.000
52.67000 242.000
52.68500 231.000
52.70000 254.000
52.71500 227.000
52.73000 237.000
52.74500 249.000
52.76000 234.000
52.77500 257.000
52.79000 246.000
52.80500 261.000
52.82000 281.000
52.83500 234.000
52.85000 244.000
52.86500 247.000
52.88000 248.000
52.89500 252.000
52.91000 263.000
52.92500 249.000
52.94000 225.000
52.95500 243.000
52.97000 241.000
52.98500 254.000
53.00000 236.000
53.01500 212.000
53.03000 262.000
53.04500 255.000
53.06000 244.000
53.07500 236.000
53.09000 236.000
53.10500 253.000
53.12000 237.000
53.13500 241.000
53.15000 226.000
53.16500 242.000
53.18000 241.000
53.19500 219.000
53.21000 270.000
53.22500 257.000
53.24000 229.000
53.25500 259.000
53.27000 254.000
53.28500 240.000
53.30000 225.000
53.31500 254.000
53.33000 244.000
53.34500 251.000
53.36000 233.000
53.37500 253.000
53.39000 257.000
53.40500 251.000
53.42000 240.000
53.43500 260.000
53.45000 236.000
53.46500 239.000
53.48000 242.000
53.49500 245.000
53.51000 269.000
53.52500 235.000
53.54000 235.000
53.55500 238.000
53.57000 228.000
53.58500 223.000
53.60000 234.000
53.61500 245.000
53.63000 238.000
53.64500 237.000
53.66000 240.000
53.67500 229.000
53.69000 236.000
53.70500 253.000
53.72000 248.000
53.73500 259.000
53.75000 226.000
53.76500 239.000
53.78000 222.000
53.79500 253.000
53.81000 220.000
53.82500 237.000
53.84000 223.000
53.85500 240.000
53.87000 229.000
53.88500 245.000
53.90000 254.000
53.91500 258.000
53.93000 252.000
53.94500 241.000
53.96000 239.000
53.97500 224.000
53.99000 252.000
54.00500 264.000
54.02000 239.000
54.03500 222.000
54.05000 236.000
54.06500 257.000
54.08000 243.000
54.09500 235.000
54.11000 238.000
54.12500 232.000
54.14000 238.000
54.15500 233.000
54.17000 242.000
54.18500 239.000
54.20000 232.000
54.21500 226.000
54.23000 240.000
54.24500 236.000
54.26000 205.000
54.27500 234.000
54.29000 222.000
54.30500 227.000
54.32000 229.000
54.33500 217.000
54.35000 226.000
54.36500 212.000
54.38000 241.000
54.39500 254.000
54.41000 241.000
54.42500 228.000
54.44000 241.000
54.45500 229.000
54.47000 221.000
54.48500 220.000
54.50000 225.000
54.51500 226.000
54.53000 235.000
54.54500 213.000
54.56000 216.000
54.57500 241.000
54.59000 234.000
54.60500 249.000
54.62000 267.000
54.63500 254.000
54.65000 251.000
54.66500 248.000
54.68000 234.000
54.69500 221.000
54.71000 210.000
54.72500 212.000
54.74000 227.000
54.75500 233.000
54.77000 237.000
54.78500 233.000
54.80000 232.000
54.81500 217.000
54.83000 226.000
54.84500 224.000
54.86000 236.000
54.87500 231.000
54.89000 227.000
54.90500 235.000
54.92000 216.000
54.93500 223.000
54.95000 219.000
54.96500 217.000
54.98000 232.000
54.99500 235.000
55.01000 219.000
55.02500 231.000
55.04000 248.000
55.05500 242.000
55.07000 217.000
55.08500 227.000
55.10000 212.000
55.11500 222.000
55.13000 249.000
55.14500 226.000
55.16000 239.000
55.17500 234.000
55.19000 223.000
55.20500 234.000
55.22000 215.000
55.23500 217.000
55.25000 212.000
55.26500 219.000
55.28000 226.000
55.29500 222.000
55.31000 193.000
55.32500 211.000
55.34000 242.000
55.35500 216.000
55.37000 219.000
55.38500 223.000
55.40000 222.000
55.41500 221.000
55.43000 239.000
55.44500 231.000
55.46000 212.000
55.47500 217.000
55.49000 226.000
55.50500 243.000
55.52000 217.000
55.53500 222.000
55.55000 247.000
55.56500 233.000
55.58000 230.000
55.59500 199.000
55.61000 218.000
55.62500 233.000
55.64000 235.000
55.65500 234.000
55.67000 235.000
55.68500 226.000
55.70000 227.000
55.71500 231.000
55.73000 225.000
55.74500 230.000
55.76000 210.000
55.77500 233.000
55.79000 211.000
55.80500 231.000
55.82000 206.000
55.83500 198.000
55.85000 215.000
55.86500 214.000
55.88000 218.000
55.89500 188.000
55.91000 193.000
55.92500 203.000
55.94000 211.000
55.95500 214.000
55.97000 229.000
55.98500 214.000
56.00000 205.000
56.01500 247.000
56.03000 216.000
56.04500 219.000
56.06000 221.000
56.07500 207.000
56.09000 216.000
56.10500 231.000
56.12000 243.000
56.13500 233.000
56.15000 219.000
56.16500 212.000
56.18000 230.000
56.19500 232.000
56.21000 212.000
56.22500 225.000
56.24000 221.000
56.25500 214.000
56.27000 206.000
56.28500 219.000
56.30000 220.000
56.31500 239.000
56.33000 230.000
56.34500 239.000
56.36000 234.000
56.37500 228.000
56.39000 218.000
56.40500 234.000
56.42000 223.000
56.43500 223.000
56.45000 219.000
56.46500 238.000
56.48000 237.000
56.49500 228.000
56.51000 225.000
56.52500 193.000
56.54000 235.000
56.55500 225.000
56.57000 218.000
56.58500 236.000
56.60000 208.000
56.61500 228.000
56.63000 234.000
56.64500 226.000
56.66000 243.000
56.67500 206.000
56.69000 222.000
56.70500 231.000
56.72000 230.000
56.73500 210.000
56.75000 221.000
56.76500 209.000
56.78000 237.000
56.79500 212.000
56.81000 219.000
56.82500 226.000
56.84000 225.000
56.85500 217.000
56.87000 227.000
56.88500 231.000
56.90000 212.000
56.91500 230.000
56.93000 245.000
56.94500 221.000
56.96000 211.000
56.97500 206.000
56.99000 216.000
57.00500 210.000
57.02000 237.000
57.03500 220.000
57.05000 219.000
57.06500 201.000
57.08000 214.000
57.09500 218.000
57.11000 220.000
57.12500 195.000
57.14000 207.000
57.15500 240.000
57.17000 217.000
57.18500 217.000
57.20000 229.000
57.21500 211.000
57.23000 214.000
57.24500 216.000
57.26000 210.000
57.27500 212.000
57.29000 202.000
57.30500 232.000
57.32000 241.000
57.33500 215.000
57.35000 227.000
57.36500 215.000
57.38000 225.000
57.39500 207.000
57.41000 221.000
57.42500 210.000
57.44000 200.000
57.45500 215.000
57.47000 221.000
57.48500 214.000
57.50000 210.000
57.51500 203.000
57.53000 232.000
57.54500 234.000
57.56000 226.000
57.57500 217.000
57.59000 208.000
57.60500 214.000
57.62000 197.000
57.63500 231.000
57.65000 227.000
57.66500 235.000
57.68000 216.000
57.69500 226.000
57.71000 210.000
57.72500 223.000
57.74000 214.000
57.75500 232.000
57.77000 210.000
57.78500 217.000
57.80000 219.000
57.81500 221.000
57.83000 204.000
57.84500 227.000
57.86000 237.000
57.87500 222.000
57.89000 201.000
57.90500 206.000
57.92000 222.000
57.93500 237.000
57.95000 221.000
57.96500 215.000
57.98000 194.000
57.99500 216.000
58.01000 227.000
58.02500 205.000
58.04000 207.000
58.05500 206.000
58.07000 192.000
58.08500 219.000
58.10000 226.000
58.11500 197.000
58.13000 211.000
58.14500 217.000
58.16000 207.000
58.17500 204.000
58.19000 220.000
58.20500 206.000
58.22000 205.000
58.23500 211.000
58.25000 235.000
58.26500 209.000
58.28000 206.000
58.29500 209.000
58.31000 206.000
58.32500 211.000
58.34000 222.000
58.35500 230.000
58.37000 213.000
58.38500 208.000
58.40000 205.000
58.41500 203.000
58.43000 210.000
58.44500 204.000
58.46000 230.000
58.47500 215.000
58.49000 221.000
58.50500 218.000
58.52000 192.000
58.53500 205.000
58.55000 214.000
58.56500 214.000
58.58000 210.000
58.59500 198.000
58.61000 205.000
58.62500 193.000
58.64000 196.000
58.65500 211.000
58.67000 212.000
58.68500 233.000
58.70000 197.000
58.71500 216.000
58.73000 229.000
58.74500 211.000
58.76000 209.000
58.77500 190.000
58.79000 206.000
58.80500 218.000
58.82000 212.000
58.83500 206.000
58.85000 215.000
58.86500 196.000
58.88000 219.000
58.89500 216.000
58.91000 215.000
58.92500 201.000
58.94000 202.000
58.95500 194.000
58.97000 196.000
58.98500 211.000
59.00000 210.000
59.01500 191.000
59.03000 216.000
59.04500 201.000
59.06000 207.000
59.07500 198.000
59.09000 205.000
59.10500 226.000
59.12000 215.000
59.13500 202.000
59.15000 209.000
59.16500 197.000
59.18000 192.000
59.19500 215.000
59.21000 217.000
59.22500 201.000
59.24000 198.000
59.25500 225.000
59.27000 188.000
59.28500 190.000
59.30000 222.000
59.31500 219.000
59.33000 221.000
59.34500 217.000
59.36000 208.000
59.37500 208.000
59.39000 216.000
59.40500 222.000
59.42000 208.000
59.43500 204.000
59.45000 204.000
59.46500 200.000
59.48000 198.000
59.49500 214.000
59.51000 203.000
59.52500 193.000
59.54000 202.000
59.55500 209.000
59.57000 210.000
59.58500 190.000
59.60000 211.000
59.61500 205.000
59.63000 207.000
59.64500 211.000
59.66000 211.000
59.67500 191.000
59.69000 206.000
59.70500 190.000
59.72000 199.000
59.73500 196.000
59.75000 195.000
59.76500 204.000
59.78000 201.000
59.79500 198.000
59.81000 192.000
59.82500 198.000
59.84000 209.000
59.85500 212.000
59.87000 212.000
59.88500 203.000
59.90000 218.000
59.91500 194.000
59.93000 194.000
59.94500 208.000
59.96000 209.000
59.97500 206.000
59.99000 215.000
60.00500 175.000
60.02000 210.000
60.03500 203.000
60.05000 209.000
60.06500 185.000
60.08000 188.000
60.09500 193.000
60.11000 190.000
60.12500 199.000
60.14000 180.000
60.15500 188.000
60.17000 211.000
60.18500 194.000
60.20000 197.000
60.21500 182.000
60.23000 212.000
60.24500 190.000
60.26000 190.000
60.27500 226.000
60.29000 194.000
60.30500 194.000
60.32000 213.000
60.33500 207.000
60.35000 221.000
60.36500 198.000
60.38000 216.000
60.39500 183.000
60.41000 188.000
60.42500 218.000
60.44000 197.000
60.45500 196.000
60.47000 202.000
60.48500 201.000
60.50000 201.000
60.51500 208.000
60.53000 214.000
60.54500 223.000
60.56000 207.000
60.57500 204.000
60.59000 194.000
60.60500 218.000
60.62000 200.000
60.63500 214.000
60.65000 199.000
60.66500 207.000
60.68000 180.000
60.69500 188.000
60.71000 198.000
60.72500 207.000
60.74000 201.000
60.75500 194.000
60.77000 197.000
60.78500 219.000
60.80000 194.000
60.81500 222.000
60.83000 199.000
60.84500 203.000
60.86000 173.000
60.87500 197.000
60.89000 201.000
60.90500 194.000
60.92000 199.000
60.93500 199.000
60.95000 212.000
60.96500 202.000
60.98000 202.000
60.99500 177.000
61.01000 165.000
61.02500 192.000
61.04000 198.000
61.05500 210.000
61.07000 190.000
61.08500 209.000
61.10000 192.000
61.11500 186.000
61.13000 181.000
61.14500 197.000
61.16000 199.000
61.17500 190.000
61.19000 178.000
61.20500 194.000
61.22000 189.000
61.23500 213.000
61.25000 204.000
61.26500 194.000
61.28000 207.000
61.29500 215.000
61.31000 203.000
61.32500 192.000
61.34000 203.000
61.35500 210.000
61.37000 194.000
61.38500 211.000
61.40000 197.000
61.41500 177.000
61.43000 206.000
61.44500 210.000
61.46000 199.000
61.47500 204.000
61.49000 211.000
61.50500 206.000
61.52000 183.000
61.53500 201.000
61.55000 207.000
61.56500 193.000
61.58000 193.000
61.59500 192.000
61.61000 197.000
61.62500 192.000
61.64000 187.000
61.65500 207.000
61.67000 213.000
61.68500 179.000
61.70000 187.000
61.71500 216.000
61.73000 216.000
61.74500 207.000
61.76000 190.000
61.77500 187.000
61.79000 192.000
61.80500 193.000
61.82000 215.000
61.83500 229.000
61.85000 194.000
61.86500 158.000
61.88000 200.000
61.89500 207.000
61.91000 177.000
61.92500 181.000
61.94000 181.000
61.95500 208.000
61.97000 208.000
61.98500 205.000
