2.00000 2.000
2.01500 2.000
2.03000 0.000
2.04500 2.000
2.06000 3.000
2.07500 5.000
2.09000 3.000
2.10500 2.000
2.12000 3.000
2.13500 3.000
2.15000 2.000
2.16500 2.000
2.18000 2.000
2.19500 3.000
2.21000 1.000
2.22500 2.000
2.24000 2.000
2.25500 1.000
2.27000 3.000
2.28500 3.000
2.30000 1.000
2.31500 1.000
2.33000 2.000
2.34500 4.000
2.36000 3.000
2.37500 3.000
2.39000 1.000
2.40500 1.000
2.42000 1.000
2.43500 2.000
2.45000 3.000
2.46500 2.000
2.48000 4.000
2.49500 4.000
2.51000 2.000
2.52500 4.000
2.54000 3.000
2.55500 2.000
2.57000 2.000
2.58500 2.000
2.60000 2.000
2.61500 0.000
2.63000 0.000
2.64500 2.000
2.66000 1.000
2.67500 2.000
2.69000 3.000
2.70500 2.000
2.72000 1.000
2.73500 1.000
2.75000 2.000
2.76500 1.000
2.78000 2.000
2.79500 1.000
2.81000 3.000
2.82500 2.000
2.84000 2.000
2.85500 3.000
2.87000 2.000
2.88500 3.000
2.90000 4.000
2.91500 2.000
2.93000 2.000
2.94500 2.000
2.96000 3.000
2.97500 3.000
2.99000 1.000
3.00500 1.000
3.02000 1.000
3.03500 1.000
3.05000 6.000
3.06500 3.000
3.08000 2.000
3.09500 2.000
3.11000 1.000
3.12500 2.000
3.14000 2.000
3.15500 5.000
3.17000 4.000
3.18500 6.000
3.20000 10.000
3.21500 20.000
3.23000 47.000
3.24500 72.000
3.26000 128.000
3.27500 188.000
3.29000 216.000
3.30500 259.000
3.32000 315.000
3.33500 344.000
3.35000 377.000
3.36500 382.000
3.38000 344.000
3.39500 372.000
3.41000 358.000
3.42500 370.000
3.44000 371.000
3.45500 348.000
3.47000 340.000
3.48500 353.000
3.50000 337.000
3.51500 366.000
3.53000 334.000
3.54500 340.000
3.56000 331.000
3.57500 319.000
3.59000 349.000
3.60500 313.000
3.62000 315.000
3.63500 315.000
3.65000 340.000
3.66500 343.000
3.68000 319.000
3.69500 319.000
3.71000 318.000
3.72500 338.000
3.74000 327.000
3.75500 327.000
3.77000 316.000
3.78500 304.000
3.80000 298.000
3.81500 322.000
3.83000 310.000
3.84500 300.000
3.86000 309.000
3.87500 286.000
3.89000 302.000
3.90500 307.000
3.92000 291.000
3.93500 315.000
3.95000 303.000
3.96500 298.000
3.98000 305.000
3.99500 265.000
4.01000 290.000
4.02500 304.000
4.04000 284.000
4.05500 298.000
4.07000 283.000
4.08500 304.000
4.10000 304.000
4.11500 292.000
4.13000 296.000
4.14500 291.000
4.16000 273.000
4.17500 272.000
4.19000 280.000
4.20500 282.000
4.22000 286.000
4.23500 281.000
4.25000 279.000
4.26500 289.000
4.28000 280.000
4.29500 257.000
4.31000 286.000
4.32500 286.000
4.34000 251.000
4.35500 255.000
4.37000 254.000
4.38500 270.000
4.40000 252.000
4.41500 264.000
4.43000 268.000
4.44500 267.000
4.46000 270.000
4.47500 278.000
4.49000 272.000
4.50500 272.000
4.52000 231.000
4.53500 257.000
4.55000 251.000
4.56500 255.000
4.58000 247.000
4.59500 252.000
4.61000 262.000
4.62500 262.000
4.64000 259.000
4.65500 259.000
4.67000 277.000
4.68500 273.000
4.70000 267.000
4.71500 268.000
4.73000 239.000
4.74500 253.000
4.76000 261.000
4.77500 251.000
4.79000 239.000
4.80500 267.000
4.82000 259.000
4.83500 244.000
4.85000 247.000
4.86500 243.000
4.88000 269.000
4.89500 261.000
4.91000 210.000
4.92500 256.000
4.94000 256.000
4.95500 247.000
4.97000 238.000
4.98500 259.000
5.00000 247.000
5.01500 245.000
5.03000 247.000
5.04500 221.000
5.06000 251.000
5.07500 260.000
5.09000 247.000
5.10500 261.000
5.12000 259.000
5.13500 255.000
5.15000 261.000
5.16500 245.000
5.18000 222.000
5.19500 254.000
5.21000 250.000
5.22500 251.000
5.24000 242.000
5.25500 236.000
5.27000 233.000
5.28500 243.000
5.30000 261.000
5.31500 272.000
5.33000 252.000
5.34500 268.000
5.36000 246.000
5.37500 232.000
5.39000 235.000
5.40500 245.000
5.42000 288.000
5.43500 263.000
5.45000 230.000
5.46500 225.000
5.48000 250.000
5.49500 268.000
5.51000 266.000
5.52500 279.000
5.54000 280.000
5.55500 251.000
5.57000 262.000
5.58500 225.000
5.60000 247.000
5.61500 247.000
5.63000 273.000
5.64500 253.000
5.66000 234.000
5.67500 274.000
5.69000 268.000
5.70500 248.000
5.72000 248.000
5.73500 266.000
5.75000 267.000
5.76500 264.000
5.78000 271.000
5.79500 272.000
5.81000 271.000
5.82500 281.000
5.84000 290.000
5.85500 295.000
5.87000 286.000
5.88500 323.000
5.90000 289.000
5.91500 304.000
5.93000 297.000
5.94500 296.000
5.96000 343.000
5.97500 338.000
5.99000 325.000
6.00500 346.000
6.02000 366.000
6.03500 363.000
6.05000 366.000
6.06500 376.000
6.08000 398.000
6.09500 426.000
6.11000 464.000
6.12500 467.000
6.14000 473.000
6.15500 522.000
6.17000 507.000
6.18500 528.000
6.20000 614.000
6.21500 645.000
6.23000 653.000
6.24500 603.000
6.26000 491.000
6.27500 417.000
6.29000 413.000
6.30500 403.000
6.32000 355.000
6.33500 348.000
6.35000 308.000
6.36500 282.000
6.38000 306.000
6.39500 289.000
6.41000 291.000
6.42500 270.000
6.44000 284.000
6.45500 272.000
6.47000 274.000
6.48500 289.000
6.50000 281.000
6.51500 259.000
6.53000 234.000
6.54500 276.000
6.56000 273.000
6.57500 275.000
6.59000 274.000
6.60500 262.000
6.62000 248.000
6.63500 252.000
6.65000 257.000
6.66500 250.000
6.68000 271.000
6.69500 257.000
6.71000 249.000
6.72500 259.000
6.74000 250.000
6.75500 228.000
6.77000 228.000
6.78500 265.000
6.80000 236.000
6.81500 213.000
6.83000 221.000
6.84500 219.000
6.86000 239.000
6.87500 255.000
6.89000 225.000
6.90500 253.000
6.92000 247.000
6.93500 212.000
6.95000 244.000
6.96500 235.000
6.98000 239.000
6.99500 251.000
7.01000 229.000
7.02500 255.000
7.04000 244.000
7.05500 247.000
7.07000 249.000
7.08500 231.000
7.10000 211.000
7.11500 238.000
7.13000 246.000
7.14500 247.000
7.16000 243.000
7.17500 235.000
7.19000 209.000
7.20500 236.000
7.22000 244.000
7.23500 250.000
7.25000 262.000
7.26500 232.000
7.28000 253.000
7.29500 257.000
7.31000 255.000
7.32500 261.000
7.34000 272.000
7.35500 252.000
7.37000 241.000
7.38500 255.000
7.40000 263.000
7.41500 234.000
7.43000 245.000
7.44500 255.000
7.46000 250.000
7.47500 247.000
7.49000 242.000
7.50500 248.000
7.52000 246.000
7.53500 251.000
7.55000 244.000
7.56500 248.000
7.58000 262.000
7.59500 242.000
7.61000 254.000
7.62500 263.000
7.64000 243.000
7.65500 245.000
7.67000 243.000
7.68500 244.000
7.70000 239.000
7.71500 235.000
7.73000 234.000
7.74500 253.000
7.76000 236.000
7.77500 237.000
7.79000 219.000
7.80500 241.000
7.82000 223.000
7.83500 238.000
7.85000 249.000
7.86500 229.000
7.88000 237.000
7.89500 257.000
7.91000 242.000
7.92500 239.000
7.94000 248.000
7.95500 265.000
7.97000 266.000
7.98500 254.000
8.00000 246.000
8.01500 262.000
8.03000 265.000
8.04500 258.000
8.06000 232.000
8.07500 249.000
8.09000 239.000
8.10500 242.000
8.12000 244.000
8.13500 256.000
8.15000 252.000
8.16500 256.000
8.18000 251.000
8.19500 251.000
8.21000 268.000
8.22500 256.000
8.24000 227.000
8.25500 252.000
8.27000 247.000
8.28500 247.000
8.30000 286.000
8.31500 268.000
8.33000 259.000
8.34500 257.000
8.36000 242.000
8.37500 248.000
8.39000 268.000
8.40500 269.000
8.42000 265.000
8.43500 283.000
8.45000 263.000
8.46500 257.000
8.48000 261.000
8.49500 263.000
8.51000 259.000
8.52500 293.000
8.54000 285.000
8.55500 275.000
8.57000 281.000
8.58500 273.000
8.60000 295.000
8.61500 302.000
8.63000 294.000
8.64500 264.000
8.66000 296.000
8.67500 316.000
8.69000 299.000
8.70500 293.000
8.72000 279.000
8.73500 304.000
8.75000 323.000
8.76500 314.000
8.78000 310.000
8.79500 301.000
8.81000 309.000
8.82500 308.000
8.84000 302.000
8.85500 282.000
8.87000 303.000
8.88500 309.000
8.90000 314.000
8.91500 315.000
8.93000 313.000
8.94500 285.000
8.96000 273.000
8.97500 261.000
8.99000 266.000
9.00500 276.000
9.02000 274.000
9.03500 259.000
9.05000 246.000
9.06500 263.000
9.08000 240.000
9.09500 259.000
9.11000 296.000
9.12500 275.000
9.14000 255.000
9.15500 262.000
9.17000 269.000
9.18500 269.000
9.20000 264.000
9.21500 268.000
9.23000 261.000
9.24500 240.000
9.26000 262.000
9.27500 293.000
9.29000 250.000
9.30500 254.000
9.32000 280.000
9.33500 265.000
9.35000 262.000
9.36500 274.000
9.38000 280.000
9.39500 264.000
9.41000 249.000
9.42500 257.000
9.44000 254.000
9.45500 247.000
9.47000 275.000
9.48500 261.000
9.50000 278.000
9.51500 270.000
9.53000 266.000
9.54500 263.000
9.56000 288.000
9.57500 272.000
9.59000 262.000
9.60500 240.000
9.62000 258.000
9.63500 253.000
9.65000 244.000
9.66500 264.000
9.68000 256.000
9.69500 258.000
9.71000 264.000
9.72500 282.000
9.74000 293.000
9.75500 269.000
9.77000 312.000
9.78500 271.000
9.80000 283.000
9.81500 289.000
9.83000 283.000
9.84500 295.000
9.86000 309.000
9.87500 304.000
9.89000 311.000
9.90500 318.000
9.92000 331.000
9.93500 319.000
9.95000 292.000
9.96500 309.000
9.98000 305.000
9.99500 296.000
10.01000 331.000
10.02500 337.000
10.04000 332.000
10.05500 345.000
10.07000 343.000
10.08500 372.000
10.10000 361.000
10.11500 368.000
10.13000 359.000
10.14500 378.000
10.16000 395.000
10.17500 394.000
10.19000 439.000
10.20500 425.000
10.22000 455.000
10.23500 452.000
10.25000 479.000
10.26500 488.000
10.28000 499.000
10.29500 530.000
10.31000 565.000
10.32500 579.000
10.34000 593.000
10.35500 626.000
10.37000 670.000
10.38500 735.000
10.40000 766.000
10.41500 853.000
10.43000 923.000
10.44500 905.000
10.46000 848.000
10.47500 687.000
10.49000 608.000
10.50500 533.000
10.52000 510.000
10.53500 511.000
10.55000 537.000
10.56500 600.000
10.58000 652.000
10.59500 705.000
10.61000 702.000
10.62500 682.000
10.64000 634.000
10.65500 600.000
10.67000 548.000
10.68500 509.000
10.70000 483.000
10.71500 461.000
10.73000 468.000
10.74500 490.000
10.76000 528.000
10.77500 499.000
10.79000 559.000
10.80500 551.000
10.82000 577.000
10.83500 583.000
10.85000 626.000
10.86500 632.000
10.88000 689.000
10.89500 765.000
10.91000 770.000
10.92500 829.000
10.94000 905.000
10.95500 1006.000
10.97000 1096.000
10.98500 1152.000
11.00000 1140.000
11.01500 1209.000
11.03000 1093.000
11.04500 898.000
11.06000 808.000
11.07500 705.000
11.09000 641.000
11.10500 581.000
11.12000 510.000
11.13500 475.000
11.15000 445.000
11.16500 418.000
11.18000 409.000
11.19500 421.000
11.21000 384.000
11.22500 344.000
11.24000 350.000
11.25500 332.000
11.27000 344.000
11.28500 307.000
11.30000 321.000
11.31500 329.000
11.33000 309.000
11.34500 320.000
11.36000 293.000
11.37500 301.000
11.39000 293.000
11.40500 285.000
11.42000 268.000
11.43500 269.000
11.45000 281.000
11.46500 293.000
11.48000 286.000
11.49500 277.000
11.51000 281.000
11.52500 281.000
11.54000 272.000
11.55500 304.000
11.57000 284.000
11.58500 291.000
11.60000 285.000
11.61500 270.000
11.63000 274.000
11.64500 254.000
11.66000 278.000
11.67500 293.000
11.69000 268.000
11.70500 261.000
11.72000 263.000
11.73500 275.000
11.75000 282.000
11.76500 260.000
11.78000 286.000
11.79500 262.000
11.81000 268.000
11.82500 271.000
11.84000 261.000
11.85500 266.000
11.87000 274.000
11.88500 271.000
11.90000 268.000
11.91500 277.000
11.93000 278.000
11.94500 268.000
11.96000 272.000
11.97500 273.000
11.99000 256.000
12.00500 275.000
12.02000 277.000
12.03500 269.000
12.05000 273.000
12.06500 276.000
12.08000 266.000
12.09500 230.000
12.11000 249.000
12.12500 268.000
12.14000 264.000
12.15500 258.000
12.17000 245.000
12.18500 252.000
12.20000 269.000
12.21500 274.000
12.23000 300.000
12.24500 294.000
12.26000 282.000
12.27500 267.000
12.29000 264.000
12.30500 276.000
12.32000 276.000
12.33500 268.000
12.35000 269.000
12.36500 291.000
12.38000 299.000
12.39500 282.000
12.41000 286.000
12.42500 284.000
12.44000 328.000
12.45500 333.000
12.47000 339.000
12.48500 342.000
12.50000 321.000
12.51500 335.000
12.53000 346.000
12.54500 350.000
12.56000 422.000
12.57500 390.000
12.59000 346.000
12.60500 317.000
12.62000 269.000
12.63500 273.000
12.65000 268.000
12.66500 273.000
12.68000 276.000
12.69500 262.000
12.71000 246.000
12.72500 263.000
12.74000 256.000
12.75500 240.000
12.77000 257.000
12.78500 260.000
12.80000 238.000
12.81500 248.000
12.83000 280.000
12.84500 245.000
12.86000 260.000
12.87500 248.000
12.89000 261.000
12.90500 239.000
12.92000 235.000
12.93500 252.000
12.95000 252.000
12.96500 262.000
12.98000 274.000
12.99500 261.000
13.01000 256.000
13.02500 264.000
13.04000 244.000
13.05500 246.000
13.07000 259.000
13.08500 253.000
13.10000 232.000
13.11500 248.000
13.13000 235.000
13.14500 241.000
13.16000 274.000
13.17500 247.000
13.19000 292.000
13.20500 269.000
13.22000 286.000
13.23500 227.000
13.25000 245.000
13.26500 255.000
13.28000 245.000
13.29500 276.000
13.31000 260.000
13.32500 240.000
13.34000 267.000
13.35500 264.000
13.37000 276.000
13.38500 253.000
13.40000 254.000
13.41500 240.000
13.43000 241.000
13.44500 253.000
13.46000 269.000
13.47500 262.000
13.49000 261.000
13.50500 257.000
13.52000 269.000
13.53500 252.000
13.55000 249.000
13.56500 255.000
13.58000 248.000
13.59500 277.000
13.61000 279.000
13.62500 239.000
13.64000 231.000
13.65500 251.000
13.67000 259.000
13.68500 255.000
13.70000 255.000
13.71500 248.000
13.73000 251.000
13.74500 245.000
13.76000 262.000
13.77500 258.000
13.79000 258.000
13.80500 261.000
13.82000 243.000
13.83500 276.000
13.85000 247.000
13.86500 248.000
13.88000 256.000
13.89500 248.000
13.91000 264.000
13.92500 260.000
13.94000 237.000
13.95500 257.000
13.97000 246.000
13.98500 258.000
14.00000 268.000
14.01500 240.000
14.03000 265.000
14.04500 243.000
14.06000 243.000
14.07500 275.000
14.09000 267.000
14.10500 233.000
14.12000 248.000
14.13500 265.000
14.15000 282.000
14.16500 271.000
14.18000 273.000
14.19500 267.000
14.21000 270.000
14.22500 263.000
14.24000 269.000
14.25500 257.000
14.27000 236.000
14.28500 261.000
14.30000 266.000
14.31500 255.000
14.33000 269.000
14.34500 287.000
14.36000 276.000
14.37500 271.000
14.39000 253.000
14.40500 238.000
14.42000 255.000
14.43500 240.000
14.45000 247.000
14.46500 235.000
14.48000 252.000
14.49500 272.000
14.51000 269.000
14.52500 277.000
14.54000 272.000
14.55500 257.000
14.57000 286.000
14.58500 267.000
14.60000 252.000
14.61500 251.000
14.63000 262.000
14.64500 266.000
14.66000 261.000
14.67500 278.000
14.69000 268.000
14.70500 258.000
14.72000 241.000
14.73500 246.000
14.75000 273.000
14.76500 268.000
14.78000 287.000
14.79500 267.000
14.81000 245.000
14.82500 266.000
14.84000 251.000
14.85500 265.000
14.87000 267.000
14.88500 253.000
14.90000 271.000
14.91500 269.000
14.93000 282.000
14.94500 307.000
14.96000 274.000
14.97500 292.000
14.99000 307.000
15.00500 296.000
15.02000 331.000
15.03500 345.000
15.05000 347.000
15.06500 296.000
15.08000 272.000
15.09500 254.000
15.11000 267.000
15.12500 247.000
15.14000 229.000
15.15500 250.000
15.17000 255.000
15.18500 242.000
15.20000 260.000
15.21500 277.000
15.23000 264.000
15.24500 283.000
15.26000 270.000
15.27500 263.000
15.29000 292.000
15.30500 265.000
15.32000 267.000
15.33500 261.000
15.35000 259.000
15.36500 265.000
15.38000 273.000
15.39500 250.000
15.41000 236.000
15.42500 253.000
15.44000 245.000
15.45500 251.000
15.47000 261.000
15.48500 250.000
15.50000 259.000
15.51500 272.000
15.53000 292.000
15.54500 274.000
15.56000 227.000
15.57500 244.000
15.59000 284.000
15.60500 246.000
15.62000 252.000
15.63500 243.000
15.65000 297.000
15.66500 286.000
15.68000 276.000
15.69500 263.000
15.71000 255.000
15.72500 246.000
15.74000 255.000
15.75500 294.000
15.77000 266.000
15.78500 274.000
15.80000 259.000
15.81500 276.000
15.83000 261.000
15.84500 251.000
15.86000 263.000
15.87500 258.000
15.89000 265.000
15.90500 257.000
15.92000 260.000
15.93500 253.000
15.95000 249.000
15.96500 249.000
15.98000 262.000
15.99500 272.000
16.01000 273.000
16.02500 276.000
16.04000 267.000
16.05500 269.000
16.07000 288.000
16.08500 275.000
16.10000 264.000
16.11500 283.000
16.13000 279.000
16.14500 272.000
16.16000 258.000
16.17500 254.000
16.19000 266.000
16.20500 255.000
16.22000 260.000
16.23500 241.000
16.25000 283.000
16.26500 268.000
16.28000 262.000
16.29500 269.000
16.31000 260.000
16.32500 257.000
16.34000 264.000
16.35500 266.000
16.37000 246.000
16.38500 256.000
16.40000 264.000
16.41500 272.000
16.43000 260.000
16.44500 250.000
16.46000 258.000
16.47500 292.000
16.49000 278.000
16.50500 278.000
16.52000 269.000
16.53500 247.000
16.55000 264.000
16.56500 277.000
16.58000 286.000
16.59500 305.000
16.61000 274.000
16.62500 261.000
16.64000 247.000
16.65500 254.000
16.67000 268.000
16.68500 280.000
16.70000 276.000
16.71500 255.000
16.73000 278.000
16.74500 273.000
16.76000 284.000
16.77500 288.000
16.79000 286.000
16.80500 276.000
16.82000 275.000
16.83500 292.000
16.85000 281.000
16.86500 281.000
16.88000 262.000
16.89500 277.000
16.91000 279.000
16.92500 274.000
16.94000 270.000
16.95500 288.000
16.97000 261.000
16.98500 280.000
17.00000 266.000
17.01500 289.000
17.03000 300.000
17.04500 274.000
17.06000 277.000
17.07500 287.000
17.09000 320.000
17.10500 307.000
17.12000 309.000
17.13500 284.000
17.15000 282.000
17.16500 298.000
17.18000 279.000
17.19500 306.000
17.21000 328.000
17.22500 298.000
17.24000 289.000
17.25500 321.000
17.27000 319.000
17.28500 287.000
17.30000 339.000
17.31500 342.000
17.33000 337.000
17.34500 358.000
17.36000 363.000
17.37500 353.000
17.39000 364.000
17.40500 355.000
17.42000 334.000
17.43500 368.000
17.45000 351.000
17.46500 360.000
17.48000 379.000
17.49500 352.000
17.51000 367.000
17.52500 387.000
17.54000 404.000
17.55500 382.000
17.57000 398.000
17.58500 371.000
17.60000 374.000
17.61500 357.000
17.63000 365.000
17.64500 319.000
17.66000 349.000
17.67500 342.000
17.69000 344.000
17.70500 331.000
17.72000 343.000
17.73500 322.000
17.75000 364.000
17.76500 344.000
17.78000 333.000
17.79500 310.000
17.81000 326.000
17.82500 319.000
17.84000 346.000
17.85500 332.000
17.87000 318.000
17.88500 328.000
17.90000 337.000
17.91500 331.000
17.93000 355.000
17.94500 332.000
17.96000 331.000
17.97500 343.000
17.99000 299.000
18.00500 274.000
18.02000 287.000
18.03500 280.000
18.05000 289.000
18.06500 288.000
18.08000 287.000
18.09500 262.000
18.11000 275.000
18.12500 293.000
18.14000 289.000
18.15500 294.000
18.17000 299.000
18.18500 288.000
18.20000 292.000
18.21500 283.000
18.23000 281.000
18.24500 268.000
18.26000 279.000
18.27500 279.000
18.29000 282.000
18.30500 275.000
18.32000 281.000
18.33500 283.000
18.35000 296.000
18.36500 251.000
18.38000 273.000
18.39500 288.000
18.41000 301.000
18.42500 288.000
18.44000 307.000
18.45500 311.000
18.47000 327.000
18.48500 311.000
18.50000 284.000
18.51500 284.000
18.53000 303.000
18.54500 323.000
18.56000 306.000
18.57500 303.000
18.59000 334.000
18.60500 337.000
18.62000 322.000
18.63500 336.000
18.65000 384.000
18.66500 374.000
18.68000 390.000
18.69500 440.000
18.71000 489.000
18.72500 514.000
18.74000 530.000
18.75500 555.000
18.77000 496.000
18.78500 453.000
18.80000 439.000
18.81500 417.000
18.83000 411.000
18.84500 421.000
18.86000 396.000
18.87500 381.000
18.89000 382.000
18.90500 400.000
18.92000 379.000
18.93500 395.000
18.95000 392.000
18.96500 395.000
18.98000 387.000
18.99500 382.000
19.01000 383.000
19.02500 386.000
19.04000 372.000
19.05500 399.000
19.07000 402.000
19.08500 411.000
19.10000 408.000
19.11500 425.000
19.13000 406.000
19.14500 457.000
19.16000 462.000
19.17500 451.000
19.19000 454.000
19.20500 508.000
19.22000 533.000
19.23500 543.000
19.25000 578.000
19.26500 602.000
19.28000 518.000
19.29500 462.000
19.31000 385.000
19.32500 354.000
19.34000 337.000
19.35500 314.000
19.37000 322.000
19.38500 314.000
19.40000 316.000
19.41500 307.000
19.43000 298.000
19.44500 304.000
19.46000 306.000
19.47500 322.000
19.49000 318.000
19.50500 304.000
19.52000 281.000
19.53500 310.000
19.55000 308.000
19.56500 300.000
19.58000 277.000
19.59500 290.000
19.61000 283.000
19.62500 278.000
19.64000 283.000
19.65500 283.000
19.67000 263.000
19.68500 253.000
19.70000 262.000
19.71500 282.000
19.73000 266.000
19.74500 286.000
19.76000 249.000
19.77500 284.000
19.79000 313.000
19.80500 281.000
19.82000 294.000
19.83500 266.000
19.85000 309.000
19.86500 253.000
19.88000 281.000
19.89500 281.000
19.91000 301.000
19.92500 317.000
19.94000 284.000
19.95500 284.000
19.97000 238.000
19.98500 277.000
20.00000 259.000
20.01500 282.000
20.03000 259.000
20.04500 271.000
20.06000 302.000
20.07500 293.000
20.09000 257.000
20.10500 259.000
20.12000 260.000
20.13500 250.000
20.15000 253.000
20.16500 272.000
20.18000 280.000
20.19500 286.000
20.21000 296.000
20.22500 313.000
20.24000 304.000
20.25500 300.000
20.27000 285.000
20.28500 271.000
20.30000 263.000
20.31500 266.000
20.33000 270.000
20.34500 275.000
20.36000 289.000
20.37500 274.000
20.39000 261.000
20.40500 255.000
20.42000 308.000
20.43500 284.000
20.45000 293.000
20.46500 298.000
20.48000 297.000
20.49500 294.000
20.51000 288.000
20.52500 279.000
20.54000 279.000
20.55500 264.000
20.57000 253.000
20.58500 257.000
20.60000 282.000
20.61500 292.000
20.63000 300.000
20.64500 288.000
20.66000 290.000
20.67500 286.000
20.69000 308.000
20.70500 296.000
20.72000 289.000
20.73500 293.000
20.75000 299.000
20.76500 290.000
20.78000 287.000
20.79500 281.000
20.81000 285.000
20.82500 307.000
20.84000 322.000
20.85500 314.000
20.87000 328.000
20.88500 352.000
20.90000 330.000
20.91500 326.000
20.93000 330.000
20.94500 308.000
20.96000 345.000
20.97500 350.000
20.99000 349.000
21.00500 351.000
21.02000 362.000
21.03500 350.000
21.05000 318.000
21.06500 328.000
21.08000 354.000
21.09500 347.000
21.11000 361.000
21.12500 349.000
21.14000 341.000
21.15500 354.000
21.17000 312.000
21.18500 341.000
21.20000 352.000
21.21500 332.000
21.23000 303.000
21.24500 313.000
21.26000 326.000
21.27500 303.000
21.29000 303.000
21.30500 314.000
21.32000 316.000
21.33500 302.000
21.35000 321.000
21.36500 312.000
21.38000 302.000
21.39500 311.000
21.41000 314.000
21.42500 264.000
21.44000 276.000
21.45500 277.000
21.47000 298.000
21.48500 301.000
21.50000 305.000
21.51500 260.000
21.53000 255.000
21.54500 286.000
21.56000 282.000
21.57500 277.000
21.59000 261.000
21.60500 277.000
21.62000 284.000
21.63500 308.000
21.65000 287.000
21.66500 286.000
21.68000 288.000
21.69500 285.000
21.71000 266.000
21.72500 253.000
21.74000 281.000
21.75500 273.000
21.77000 270.000
21.78500 287.000
21.80000 275.000
21.81500 262.000
21.83000 267.000
21.84500 306.000
21.86000 274.000
21.87500 255.000
21.89000 274.000
21.90500 283.000
21.92000 279.000
21.93500 276.000
21.95000 277.000
21.96500 283.000
21.98000 276.000
21.99500 285.000
22.01000 277.000
22.02500 277.000
22.04000 307.000
22.05500 291.000
22.07000 285.000
22.08500 264.000
22.10000 276.000
22.11500 294.000
22.13000 300.000
22.14500 281.000
22.16000 296.000
22.17500 290.000
22.19000 276.000
22.20500 277.000
22.22000 277.000
22.23500 285.000
22.25000 268.000
22.26500 271.000
22.28000 270.000
22.29500 275.000
22.31000 306.000
22.32500 292.000
22.34000 268.000
22.35500 273.000
22.37000 274.000
22.38500 291.000
22.40000 292.000
22.41500 285.000
22.43000 287.000
22.44500 304.000
22.46000 305.000
22.47500 294.000
22.49000 276.000
22.50500 279.000
22.52000 275.000
22.53500 297.000
22.55000 300.000
22.56500 303.000
22.58000 268.000
22.59500 282.000
22.61000 281.000
22.62500 292.000
22.64000 289.000
22.65500 288.000
22.67000 284.000
22.68500 315.000
22.70000 306.000
22.71500 315.000
22.73000 325.000
22.74500 319.000
22.76000 323.000
22.77500 323.000
22.79000 299.000
22.80500 311.000
22.82000 267.000
22.83500 307.000
22.85000 295.000
22.86500 328.000
22.88000 276.000
22.89500 271.000
22.91000 276.000
22.92500 276.000
22.94000 263.000
22.95500 294.000
22.97000 289.000
22.98500 306.000
23.00000 265.000
23.01500 274.000
23.03000 287.000
23.04500 301.000
23.06000 267.000
23.07500 278.000
23.09000 300.000
23.10500 278.000
23.12000 270.000
23.13500 286.000
23.15000 293.000
23.16500 292.000
23.18000 299.000
23.19500 301.000
23.21000 297.000
23.22500 296.000
23.24000 283.000
23.25500 265.000
23.27000 282.000
23.28500 263.000
23.30000 273.000
23.31500 281.000
23.33000 287.000
23.34500 287.000
23.36000 293.000
23.37500 280.000
23.39000 301.000
23.40500 295.000
23.42000 305.000
23.43500 305.000
23.45000 269.000
23.46500 285.000
23.48000 297.000
23.49500 310.000
23.51000 285.000
23.52500 296.000
23.54000 290.000
23.55500 280.000
23.57000 287.000
23.58500 314.000
23.60000 319.000
23.61500 296.000
23.63000 304.000
23.64500 292.000
23.66000 290.000
23.67500 307.000
23.69000 287.000
23.70500 290.000
23.72000 295.000
23.73500 289.000
23.75000 288.000
23.76500 284.000
23.78000 285.000
23.79500 277.000
23.81000 308.000
23.82500 285.000
23.84000 299.000
23.85500 281.000
23.87000 280.000
23.88500 291.000
23.90000 277.000
23.91500 305.000
23.93000 295.000
23.94500 297.000
23.96000 310.000
23.97500 291.000
23.99000 311.000
24.00500 302.000
24.02000 270.000
24.03500 304.000
24.05000 318.000
24.06500 308.000
24.08000 283.000
24.09500 311.000
24.11000 305.000
24.12500 260.000
24.14000 284.000
24.15500 299.000
24.17000 291.000
24.18500 297.000
24.20000 289.000
24.21500 302.000
24.23000 293.000
24.24500 276.000
24.26000 292.000
24.27500 339.000
24.29000 311.000
24.30500 336.000
24.32000 318.000
24.33500 339.000
24.35000 342.000
24.36500 356.000
24.38000 346.000
24.39500 376.000
24.41000 363.000
24.42500 349.000
24.44000 366.000
24.45500 421.000
24.47000 417.000
24.48500 430.000
24.50000 459.000
24.51500 501.000
24.53000 505.000
24.54500 478.000
24.56000 460.000
24.57500 407.000
24.59000 368.000
24.60500 344.000
24.62000 356.000
24.63500 318.000
24.65000 345.000
24.66500 359.000
24.68000 364.000
24.69500 343.000
24.71000 333.000
24.72500 324.000
24.74000 357.000
24.75500 344.000
24.77000 339.000
24.78500 358.000
24.80000 323.000
24.81500 335.000
24.83000 355.000
24.84500 380.000
24.86000 360.000
24.87500 352.000
24.89000 377.000
24.90500 357.000
24.92000 367.000
24.93500 404.000
24.95000 385.000
24.96500 362.000
24.98000 391.000
24.99500 395.000
25.01000 447.000
25.02500 429.000
25.04000 463.000
25.05500 434.000
25.07000 429.000
25.08500 478.000
25.10000 499.000
25.11500 448.000
25.13000 444.000
25.14500 454.000
25.16000 474.000
25.17500 446.000
25.19000 446.000
25.20500 427.000
25.22000 460.000
25.23500 461.000
25.25000 462.000
25.26500 464.000
25.28000 502.000
25.29500 520.000
25.31000 485.000
25.32500 498.000
25.34000 542.000
25.35500 543.000
25.37000 514.000
25.38500 504.000
25.40000 558.000
25.41500 533.000
25.43000 587.000
25.44500 572.000
25.46000 641.000
25.47500 635.000
25.49000 675.000
25.50500 693.000
25.52000 739.000
25.53500 751.000
25.55000 756.000
25.56500 697.000
25.58000 741.000
25.59500 699.000
25.61000 648.000
25.62500 610.000
25.64000 601.000
25.65500 628.000
25.67000 624.000
25.68500 612.000
25.70000 594.000
25.71500 540.000
25.73000 533.000
25.74500 566.000
25.76000 602.000
25.77500 578.000
25.79000 556.000
25.80500 579.000
25.82000 597.000
25.83500 545.000
25.85000 551.000
25.86500 511.000
25.88000 514.000
25.89500 494.000
25.91000 467.000
25.92500 467.000
25.94000 445.000
25.95500 419.000
25.97000 435.000
25.98500 448.000
26.00000 432.000
26.01500 457.000
26.03000 441.000
26.04500 496.000
26.06000 460.000
26.07500 480.000
26.09000 497.000
26.10500 496.000
26.12000 478.000
26.13500 485.000
26.15000 431.000
26.16500 423.000
26.18000 417.000
26.19500 418.000
26.21000 407.000
26.22500 388.000
26.24000 398.000
26.25500 409.000
26.27000 379.000
26.28500 380.000
26.30000 408.000
26.31500 401.000
26.33000 403.000
26.34500 420.000
26.36000 395.000
26.37500 399.000
26.39000 412.000
26.40500 426.000
26.42000 432.000
26.43500 479.000
26.45000 467.000
26.46500 494.000
26.48000 520.000
26.49500 564.000
26.51000 616.000
26.52500 607.000
26.54000 624.000
26.55500 661.000
26.57000 688.000
26.58500 766.000
26.60000 778.000
26.61500 750.000
26.63000 718.000
26.64500 638.000
26.66000 577.000
26.67500 469.000
26.69000 494.000
26.70500 450.000
26.72000 423.000
26.73500 418.000
26.75000 405.000
26.76500 406.000
26.78000 390.000
26.79500 400.000
26.81000 392.000
26.82500 404.000
26.84000 367.000
26.85500 357.000
26.87000 369.000
26.88500 370.000
26.90000 374.000
26.91500 365.000
26.93000 336.000
26.94500 380.000
26.96000 366.000
26.97500 347.000
26.99000 359.000
27.00500 388.000
27.02000 374.000
27.03500 372.000
27.05000 373.000
27.06500 356.000
27.08000 338.000
27.09500 346.000
27.11000 357.000
27.12500 348.000
27.14000 356.000
27.15500 361.000
27.17000 376.000
27.18500 363.000
27.20000 397.000
27.21500 420.000
27.23000 394.000
27.24500 385.000
27.26000 389.000
27.27500 388.000
27.29000 414.000
27.30500 404.000
27.32000 387.000
27.33500 372.000
27.35000 394.000
27.36500 391.000
27.38000 406.000
27.39500 422.000
27.41000 441.000
27.42500 440.000
27.44000 455.000
27.45500 452.000
27.47000 472.000
27.48500 464.000
27.50000 562.000
27.51500 596.000
27.53000 608.000
27.54500 695.000
27.56000 759.000
27.57500 804.000
27.59000 811.000
27.60500 833.000
27.62000 854.000
27.63500 793.000
27.65000 727.000
27.66500 713.000
27.68000 705.000
27.69500 732.000
27.71000 761.000
27.72500 744.000
27.74000 758.000
27.75500 782.000
27.77000 776.000
27.78500 755.000
27.80000 789.000
27.81500 796.000
27.83000 811.000
27.84500 846.000
27.86000 888.000
27.87500 892.000
27.89000 922.000
27.90500 948.000
27.92000 1006.000
27.93500 1090.000
27.95000 1043.000
27.96500 1101.000
27.98000 1172.000
27.99500 1318.000
28.01000 1343.000
28.02500 1424.000
28.04000 1515.000
28.05500 1666.000
28.07000 1739.000
28.08500 1873.000
28.10000 1985.000
28.11500 1919.000
28.13000 1860.000
28.14500 1759.000
28.16000 1584.000
28.17500 1409.000
28.19000 1295.000
28.20500 1142.000
28.22000 1030.000
28.23500 962.000
28.25000 891.000
28.26500 848.000
28.28000 768.000
28.29500 699.000
28.31000 647.000
28.32500 620.000
28.34000 613.000
28.35500 584.000
28.37000 564.000
28.38500 593.000
28.40000 586.000
28.41500 548.000
28.43000 519.000
28.44500 478.000
28.46000 447.000
28.47500 444.000
28.49000 447.000
28.50500 416.000
28.52000 418.000
28.53500 405.000
28.55000 415.000
28.56500 381.000
28.58000 399.000
28.59500 432.000
28.61000 433.000
28.62500 386.000
28.64000 400.000
28.65500 372.000
28.67000 384.000
28.68500 367.000
28.70000 374.000
28.71500 333.000
28.73000 354.000
28.74500 351.000
28.76000 333.000
28.77500 349.000
28.79000 314.000
28.80500 312.000
28.82000 322.000
28.83500 318.000
28.85000 308.000
28.86500 292.000
28.88000 321.000
28.89500 327.000
28.91000 316.000
28.92500 339.000
28.94000 319.000
28.95500 323.000
28.97000 315.000
28.98500 315.000
29.00000 335.000
29.01500 335.000
29.03000 296.000
29.04500 281.000
29.06000 301.000
29.07500 305.000
29.09000 307.000
29.10500 286.000
29.12000 301.000
29.13500 298.000
29.15000 321.000
29.16500 297.000
29.18000 328.000
29.19500 331.000
29.21000 305.000
29.22500 287.000
29.24000 288.000
29.25500 309.000
29.27000 294.000
29.28500 309.000
29.30000 291.000
29.31500 304.000
29.33000 309.000
29.34500 313.000
29.36000 302.000
29.37500 291.000
29.39000 314.000
29.40500 330.000
29.42000 329.000
29.43500 313.000
29.45000 297.000
29.46500 294.000
29.48000 311.000
29.49500 318.000
29.51000 303.000
29.52500 326.000
29.54000 330.000
29.55500 321.000
29.57000 323.000
29.58500 327.000
29.60000 316.000
29.61500 342.000
29.63000 323.000
29.64500 327.000
29.66000 332.000
29.67500 351.000
29.69000 329.000
29.70500 316.000
29.72000 299.000
29.73500 318.000
29.75000 317.000
29.76500 297.000
29.78000 295.000
29.79500 308.000
29.81000 303.000
29.82500 316.000
29.84000 311.000
29.85500 326.000
29.87000 315.000
29.88500 321.000
29.90000 338.000
29.91500 284.000
29.93000 303.000
29.94500 297.000
29.96000 303.000
29.97500 315.000
29.99000 325.000
30.00500 309.000
30.02000 316.000
30.03500 273.000
30.05000 295.000
30.06500 303.000
30.08000 313.000
30.09500 309.000
30.11000 309.000
30.12500 298.000
30.14000 324.000
30.15500 324.000
30.17000 321.000
30.18500 331.000
30.20000 307.000
30.21500 337.000
30.23000 293.000
30.24500 323.000
30.26000 325.000
30.27500 324.000
30.29000 326.000
30.30500 335.000
30.32000 357.000
30.33500 336.000
30.35000 344.000
30.36500 355.000
30.38000 362.000
30.39500 413.000
30.41000 439.000
30.42500 504.000
30.44000 546.000
30.45500 525.000
30.47000 516.000
30.48500 474.000
30.50000 435.000
30.51500 403.000
30.53000 364.000
30.54500 378.000
30.56000 317.000
30.57500 287.000
30.59000 302.000
30.60500 291.000
30.62000 286.000
30.63500 290.000
30.65000 281.000
30.66500 268.000
30.68000 281.000
30.69500 275.000
30.71000 261.000
30.72500 263.000
30.74000 252.000
30.75500 248.000
30.77000 234.000
30.78500 260.000
30.80000 249.000
30.81500 252.000
30.83000 248.000
30.84500 263.000
30.86000 247.000
30.87500 254.000
30.89000 266.000
30.90500 288.000
30.92000 270.000
30.93500 248.000
30.95000 243.000
30.96500 275.000
30.98000 258.000
30.99500 275.000
31.01000 266.000
31.02500 268.000
31.04000 257.000
31.05500 261.000
31.07000 258.000
31.08500 225.000
31.10000 250.000
31.11500 250.000
31.13000 263.000
31.14500 228.000
31.16000 221.000
31.17500 229.000
31.19000 243.000
31.20500 247.000
31.22000 249.000
31.23500 238.000
31.25000 222.000
31.26500 242.000
31.28000 261.000
31.29500 245.000
31.31000 223.000
31.32500 214.000
31.34000 252.000
31.35500 244.000
31.37000 226.000
31.38500 242.000
31.40000 242.000
31.41500 227.000
31.43000 252.000
31.44500 261.000
31.46000 233.000
31.47500 250.000
31.49000 252.000
31.50500 259.000
31.52000 254.000
31.53500 262.000
31.55000 234.000
31.56500 241.000
31.58000 271.000
31.59500 253.000
31.61000 282.000
31.62500 267.000
31.64000 286.000
31.65500 295.000
31.67000 265.000
31.68500 269.000
31.70000 254.000
31.71500 254.000
31.73000 215.000
31.74500 232.000
31.76000 246.000
31.77500 258.000
31.79000 227.000
31.80500 242.000
31.82000 256.000
31.83500 242.000
31.85000 223.000
31.86500 232.000
31.88000 237.000
31.89500 238.000
31.91000 239.000
31.92500 245.000
31.94000 220.000
31.95500 238.000
31.97000 231.000
31.98500 234.000
32.00000 240.000
32.01500 269.000
32.03000 265.000
32.04500 276.000
32.06000 268.000
32.07500 259.000
32.09000 234.000
32.10500 219.000
32.12000 218.000
32.13500 231.000
32.15000 212.000
32.16500 223.000
32.18000 232.000
32.19500 234.000
32.21000 224.000
32.22500 222.000
32.24000 230.000
32.25500 232.000
32.27000 230.000
32.28500 220.000
32.30000 213.000
32.31500 222.000
32.33000 218.000
32.34500 243.000
32.36000 232.000
32.37500 228.000
32.39000 227.000
32.40500 217.000
32.42000 233.000
32.43500 237.000
32.45000 228.000
32.46500 232.000
32.48000 229.000
32.49500 234.000
32.51000 240.000
32.52500 240.000
32.54000 233.000
32.55500 241.000
32.57000 237.000
32.58500 236.000
32.60000 238.000
32.61500 252.000
32.63000 268.000
32.64500 229.000
32.66000 259.000
32.67500 237.000
32.69000 232.000
32.70500 223.000
32.72000 232.000
32.73500 229.000
32.75000 240.000
32.76500 233.000
32.78000 233.000
32.79500 222.000
32.81000 216.000
32.82500 207.000
32.84000 220.000
32.85500 206.000
32.87000 207.000
32.88500 209.000
32.90000 214.000
32.91500 225.000
32.93000 218.000
32.94500 226.000
32.96000 257.000
32.97500 241.000
32.99000 237.000
33.00500 202.000
33.02000 239.000
33.03500 225.000
33.05000 231.000
33.06500 245.000
33.08000 233.000
33.09500 224.000
33.11000 249.000
33.12500 236.000
33.14000 228.000
33.15500 239.000
33.17000 246.000
33.18500 236.000
33.20000 219.000
33.21500 212.000
33.23000 224.000
33.24500 229.000
33.26000 232.000
33.27500 225.000
33.29000 241.000
33.30500 206.000
33.32000 213.000
33.33500 222.000
33.35000 231.000
33.36500 230.000
33.38000 249.000
33.39500 252.000
33.41000 224.000
33.42500 261.000
33.44000 227.000
33.45500 239.000
33.47000 241.000
33.48500 260.000
33.50000 232.000
33.51500 220.000
33.53000 221.000
33.54500 227.000
33.56000 243.000
33.57500 243.000
33.59000 243.000
33.60500 217.000
33.62000 259.000
33.63500 230.000
33.65000 261.000
33.66500 263.000
33.68000 235.000
33.69500 261.000
33.71000 300.000
33.72500 313.000
33.74000 270.000
33.75500 289.000
33.77000 266.000
33.78500 247.000
33.80000 242.000
33.81500 264.000
33.83000 258.000
33.84500 233.000
33.86000 236.000
33.87500 252.000
33.89000 264.000
33.90500 282.000
33.92000 280.000
33.93500 313.000
33.95000 273.000
33.96500 260.000
33.98000 285.000
33.99500 282.000
34.01000 261.000
34.02500 241.000
34.04000 251.000
34.05500 232.000
34.07000 231.000
34.08500 246.000
34.10000 247.000
34.11500 233.000
34.13000 225.000
34.14500 227.000
34.16000 223.000
34.17500 217.000
34.19000 223.000
34.20500 223.000
34.22000 227.000
34.23500 235.000
34.25000 216.000
34.26500 236.000
34.28000 215.000
34.29500 220.000
34.31000 214.000
34.32500 231.000
34.34000 229.000
34.35500 231.000
34.37000 230.000
34.38500 225.000
34.40000 216.000
34.41500 222.000
34.43000 218.000
34.44500 220.000
34.46000 207.000
34.47500 231.000
34.49000 218.000
34.50500 195.000
34.52000 212.000
34.53500 205.000
34.55000 198.000
34.56500 207.000
34.58000 201.000
34.59500 183.000
34.61000 193.000
34.62500 214.000
34.64000 192.000
34.65500 176.000
34.67000 187.000
34.68500 189.000
34.70000 182.000
34.71500 201.000
34.73000 191.000
34.74500 184.000
34.76000 186.000
34.77500 200.000
34.79000 201.000
34.80500 212.000
34.82000 173.000
34.83500 182.000
34.85000 191.000
34.86500 179.000
34.88000 189.000
34.89500 180.000
34.91000 197.000
34.92500 195.000
34.94000 196.000
34.95500 180.000
34.97000 182.000
34.98500 189.000
35.00000 192.000
35.01500 198.000
35.03000 205.000
35.04500 193.000
35.06000 190.000
35.07500 211.000
35.09000 195.000
35.10500 192.000
35.12000 173.000
35.13500 184.000
35.15000 174.000
35.16500 190.000
35.18000 186.000
35.19500 193.000
35.21000 169.000
35.22500 188.000
35.24000 199.000
35.25500 189.000
35.27000 180.000
35.28500 217.000
35.30000 215.000
35.31500 199.000
35.33000 186.000
35.34500 199.000
35.36000 198.000
35.37500 171.000
35.39000 218.000
35.40500 190.000
35.42000 182.000
35.43500 189.000
35.45000 201.000
35.46500 187.000
35.48000 180.000
35.49500 197.000
35.51000 192.000
35.52500 188.000
35.54000 171.000
35.55500 180.000
35.57000 185.000
35.58500 178.000
35.60000 194.000
35.61500 193.000
35.63000 180.000
35.64500 194.000
35.66000 194.000
35.67500 210.000
35.69000 202.000
35.70500 194.000
35.72000 201.000
35.73500 207.000
35.75000 219.000
35.76500 233.000
35.78000 239.000
35.79500 292.000
35.81000 294.000
35.82500 280.000
35.84000 262.000
35.85500 225.000
35.87000 220.000
35.88500 205.000
35.90000 215.000
35.91500 195.000
35.93000 168.000
35.94500 177.000
35.96000 211.000
35.97500 200.000
35.99000 187.000
36.00500 171.000
36.02000 189.000
36.03500 173.000
36.05000 171.000
36.06500 192.000
36.08000 180.000
36.09500 191.000
36.11000 178.000
36.12500 161.000
36.14000 193.000
36.15500 188.000
36.17000 182.000
36.18500 169.000
36.20000 184.000
36.21500 194.000
36.23000 190.000
36.24500 161.000
36.26000 175.000
36.27500 191.000
36.29000 169.000
36.30500 166.000
36.32000 199.000
36.33500 205.000
36.35000 178.000
36.36500 174.000
36.38000 168.000
36.39500 172.000
36.41000 169.000
36.42500 166.000
36.44000 172.000
36.45500 178.000
36.47000 196.000
36.48500 192.000
36.50000 176.000
36.51500 179.000
36.53000 172.000
36.54500 185.000
36.56000 169.000
36.57500 163.000
36.59000 177.000
36.60500 165.000
36.62000 178.000
36.63500 180.000
36.65000 175.000
36.66500 174.000
36.68000 176.000
36.69500 169.000
36.71000 191.000
36.72500 170.000
36.74000 176.000
36.75500 174.000
36.77000 169.000
36.78500 158.000
36.80000 162.000
36.81500 172.000
36.83000 170.000
36.84500 160.000
36.86000 158.000
36.87500 163.000
36.89000 166.000
36.90500 154.000
36.92000 157.000
36.93500 182.000
36.95000 181.000
36.96500 185.000
36.98000 170.000
36.99500 183.000
37.01000 177.000
37.02500 163.000
37.04000 167.000
37.05500 171.000
37.07000 177.000
37.08500 191.000
37.10000 177.000
37.11500 161.000
37.13000 175.000
37.14500 178.000
37.16000 182.000
37.17500 197.000
37.19000 205.000
37.20500 181.000
37.22000 172.000
37.23500 158.000
37.25000 147.000
37.26500 174.000
37.28000 163.000
37.29500 169.000
37.31000 186.000
37.32500 193.000
37.34000 186.000
37.35500 182.000
37.37000 183.000
37.38500 186.000
37.40000 172.000
37.41500 186.000
37.43000 196.000
37.44500 178.000
37.46000 161.000
37.47500 166.000
37.49000 184.000
37.50500 193.000
37.52000 158.000
37.53500 170.000
37.55000 179.000
37.56500 185.000
37.58000 188.000
37.59500 190.000
37.61000 176.000
37.62500 174.000
37.64000 173.000
37.65500 173.000
37.67000 155.000
37.68500 163.000
37.70000 176.000
37.71500 170.000
37.73000 176.000
37.74500 176.000
37.76000 157.000
37.77500 174.000
37.79000 163.000
37.80500 165.000
37.82000 170.000
37.83500 169.000
37.85000 151.000
37.86500 156.000
37.88000 162.000
37.89500 161.000
37.91000 180.000
37.92500 172.000
37.94000 163.000
37.95500 168.000
37.97000 172.000
37.98500 188.000
38.00000 168.000
38.01500 146.000
38.03000 167.000
38.04500 155.000
38.06000 172.000
38.07500 182.000
38.09000 162.000
38.10500 155.000
38.12000 155.000
38.13500 170.000
38.15000 161.000
38.16500 159.000
38.18000 164.000
38.19500 164.000
38.21000 166.000
38.22500 154.000
38.24000 169.000
38.25500 151.000
38.27000 163.000
38.28500 167.000
38.30000 152.000
38.31500 160.000
38.33000 167.000
38.34500 175.000
38.36000 159.000
38.37500 164.000
38.39000 173.000
38.40500 166.000
38.42000 163.000
38.43500 162.000
38.45000 158.000
38.46500 169.000
38.48000 177.000
38.49500 165.000
38.51000 172.000
38.52500 169.000
38.54000 170.000
38.55500 166.000
38.57000 177.000
38.58500 179.000
38.60000 192.000
38.61500 163.000
38.63000 175.000
38.64500 168.000
38.66000 173.000
38.67500 173.000
38.69000 179.000
38.70500 171.000
38.72000 189.000
38.73500 204.000
38.75000 206.000
38.76500 192.000
38.78000 240.000
38.79500 242.000
38.81000 244.000
38.82500 236.000
38.84000 226.000
38.85500 220.000
38.87000 213.000
38.88500 208.000
38.90000 208.000
38.91500 199.000
38.93000 201.000
38.94500 184.000
38.96000 201.000
38.97500 203.000
38.99000 195.000
39.00500 191.000
39.02000 185.000
39.03500 182.000
39.05000 206.000
39.06500 192.000
39.08000 173.000
39.09500 209.000
39.11000 195.000
39.12500 184.000
39.14000 180.000
39.15500 169.000
39.17000 184.000
39.18500 176.000
39.20000 192.000
39.21500 171.000
39.23000 161.000
39.24500 180.000
39.26000 187.000
39.27500 168.000
39.29000 173.000
39.30500 180.000
39.32000 179.000
39.33500 197.000
39.35000 211.000
39.36500 200.000
39.38000 205.000
39.39500 221.000
39.41000 209.000
39.42500 216.000
39.44000 205.000
39.45500 217.000
39.47000 228.000
39.48500 221.000
39.50000 207.000
39.51500 186.000
39.53000 201.000
39.54500 201.000
39.56000 187.000
39.57500 167.000
39.59000 170.000
39.60500 167.000
39.62000 159.000
39.63500 160.000
39.65000 177.000
39.66500 159.000
39.68000 169.000
39.69500 168.000
39.71000 156.000
39.72500 155.000
39.74000 169.000
39.75500 159.000
39.77000 157.000
39.78500 156.000
39.80000 150.000
39.81500 185.000
39.83000 163.000
39.84500 161.000
39.86000 164.000
39.87500 170.000
39.89000 175.000
39.90500 152.000
39.92000 162.000
39.93500 154.000
39.95000 147.000
39.96500 140.000
39.98000 142.000
39.99500 152.000
40.01000 147.000
40.02500 162.000
40.04000 131.000
40.05500 139.000
40.07000 140.000
40.08500 162.000
40.10000 158.000
40.11500 146.000
40.13000 146.000
40.14500 141.000
40.16000 135.000
40.17500 141.000
40.19000 143.000
40.20500 144.000
40.22000 174.000
40.23500 150.000
40.25000 139.000
40.26500 158.000
40.28000 149.000
40.29500 129.000
40.31000 137.000
40.32500 128.000
40.34000 127.000
40.35500 144.000
40.37000 145.000
40.38500 142.000
40.40000 147.000
40.41500 148.000
40.43000 155.000
40.44500 141.000
40.46000 162.000
40.47500 159.000
40.49000 148.000
40.50500 143.000
40.52000 155.000
40.53500 150.000
40.55000 137.000
40.56500 151.000
40.58000 148.000
40.59500 147.000
40.61000 158.000
40.62500 180.000
40.64000 175.000
40.65500 155.000
40.67000 150.000
40.68500 150.000
40.70000 151.000
40.71500 163.000
40.73000 150.000
40.74500 150.000
40.76000 162.000
40.77500 162.000
40.79000 197.000
40.80500 214.000
40.82000 197.000
40.83500 181.000
40.85000 185.000
40.86500 164.000
40.88000 152.000
40.89500 153.000
40.91000 144.000
40.92500 136.000
40.94000 148.000
40.95500 134.000
40.97000 137.000
40.98500 142.000
41.00000 149.000
41.01500 144.000
41.03000 155.000
41.04500 138.000
41.06000 140.000
41.07500 131.000
41.09000 132.000
41.10500 116.000
41.12000 146.000
41.13500 144.000
41.15000 160.000
41.16500 149.000
41.18000 127.000
41.19500 132.000
41.21000 158.000
41.22500 162.000
41.24000 133.000
41.25500 142.000
41.27000 153.000
41.28500 141.000
41.30000 149.000
41.31500 158.000
41.33000 139.000
41.34500 146.000
41.36000 149.000
41.37500 143.000
41.39000 148.000
41.40500 147.000
41.42000 150.000
41.43500 160.000
41.45000 152.000
41.46500 156.000
41.48000 149.000
41.49500 147.000
41.51000 135.000
41.52500 143.000
41.54000 157.000
41.55500 153.000
41.57000 163.000
41.58500 155.000
41.60000 135.000
41.61500 143.000
41.63000 128.000
41.64500 147.000
41.66000 144.000
41.67500 147.000
41.69000 151.000
41.70500 156.000
41.72000 160.000
41.73500 150.000
41.75000 158.000
41.76500 151.000
41.78000 149.000
41.79500 155.000
41.81000 162.000
41.82500 142.000
41.84000 148.000
41.85500 134.000
41.87000 148.000
41.88500 154.000
41.90000 134.000
41.91500 131.000
41.93000 153.000
41.94500 153.000
41.96000 153.000
41.97500 150.000
41.99000 152.000
42.00500 140.000
42.02000 151.000
42.03500 167.000
42.05000 163.000
42.06500 158.000
42.08000 157.000
42.09500 163.000
42.11000 153.000
42.12500 161.000
42.14000 173.000
42.15500 158.000
42.17000 162.000
42.18500 156.000
42.20000 163.000
42.21500 153.000
42.23000 161.000
42.24500 174.000
42.26000 164.000
42.27500 179.000
42.29000 177.000
42.30500 168.000
42.32000 168.000
42.33500 164.000
42.35000 166.000
42.36500 153.000
42.38000 164.000
42.39500 157.000
42.41000 158.000
42.42500 164.000
42.44000 161.000
42.45500 172.000
42.47000 169.000
42.48500 155.000
42.50000 145.000
42.51500 167.000
42.53000 169.000
42.54500 167.000
42.56000 164.000
42.57500 170.000
42.59000 186.000
42.60500 188.000
42.62000 169.000
42.63500 163.000
42.65000 156.000
42.66500 152.000
42.68000 167.000
42.69500 161.000
42.71000 174.000
42.72500 165.000
42.74000 166.000
42.75500 158.000
42.77000 138.000
42.78500 155.000
42.80000 139.000
42.81500 130.000
42.83000 148.000
42.84500 160.000
42.86000 160.000
42.87500 139.000
42.89000 149.000
42.90500 155.000
42.92000 172.000
42.93500 195.000
42.95000 169.000
42.96500 148.000
42.98000 162.000
42.99500 172.000
43.01000 182.000
43.02500 163.000
43.04000 135.000
43.05500 143.000
43.07000 167.000
43.08500 160.000
43.10000 170.000
43.11500 171.000
43.13000 166.000
43.14500 163.000
43.16000 167.000
43.17500 158.000
43.19000 158.000
43.20500 168.000
43.22000 166.000
43.23500 162.000
43.25000 148.000
43.26500 158.000
43.28000 146.000
43.29500 151.000
43.31000 168.000
43.32500 150.000
43.34000 155.000
43.35500 167.000
43.37000 153.000
43.38500 173.000
43.40000 157.000
43.41500 162.000
43.43000 153.000
43.44500 144.000
43.46000 155.000
43.47500 159.000
43.49000 144.000
43.50500 139.000
43.52000 145.000
43.53500 150.000
43.55000 137.000
43.56500 129.000
43.58000 126.000
43.59500 144.000
43.61000 118.000
43.62500 130.000
43.64000 136.000
43.65500 136.000
43.67000 150.000
43.68500 136.000
43.70000 128.000
43.71500 139.000
43.73000 138.000
43.74500 134.000
43.76000 145.000
43.77500 143.000
43.79000 139.000
43.80500 134.000
43.82000 149.000
43.83500 129.000
43.85000 128.000
43.86500 118.000
43.88000 133.000
43.89500 131.000
43.91000 137.000
43.92500 135.000
43.94000 134.000
43.95500 152.000
43.97000 158.000
43.98500 154.000
44.00000 140.000
44.01500 143.000
44.03000 140.000
44.04500 144.000
44.06000 139.000
44.07500 125.000
44.09000 120.000
44.10500 148.000
44.12000 150.000
44.13500 145.000
44.15000 156.000
44.16500 147.000
44.18000 141.000
44.19500 136.000
44.21000 141.000
44.22500 147.000
44.24000 143.000
44.25500 149.000
44.27000 140.000
44.28500 135.000
44.30000 131.000
44.31500 153.000
44.33000 152.000
44.34500 159.000
44.36000 147.000
44.37500 145.000
44.39000 154.000
44.40500 145.000
44.42000 144.000
44.43500 163.000
44.45000 137.000
44.46500 138.000
44.48000 146.000
44.49500 154.000
44.51000 166.000
44.52500 137.000
44.54000 152.000
44.55500 146.000
44.57000 122.000
44.58500 127.000
44.60000 146.000
44.61500 154.000
44.63000 151.000
44.64500 159.000
44.66000 157.000
44.67500 161.000
44.69000 153.000
44.70500 149.000
44.72000 162.000
44.73500 169.000
44.75000 145.000
44.76500 160.000
44.78000 137.000
44.79500 132.000
44.81000 150.000
44.82500 160.000
44.84000 171.000
44.85500 140.000
44.87000 136.000
44.88500 158.000
44.90000 134.000
44.91500 147.000
44.93000 170.000
44.94500 155.000
44.96000 172.000
44.97500 148.000
44.99000 127.000
45.00500 147.000
45.02000 164.000
45.03500 145.000
45.05000 148.000
45.06500 138.000
45.08000 130.000
45.09500 148.000
45.11000 153.000
45.12500 153.000
45.14000 151.000
45.15500 170.000
45.17000 159.000
45.18500 154.000
45.20000 166.000
45.21500 131.000
45.23000 136.000
45.24500 171.000
45.26000 135.000
45.27500 167.000
45.29000 157.000
45.30500 162.000
45.32000 127.000
45.33500 135.000
45.35000 146.000
45.36500 138.000
45.38000 140.000
45.39500 137.000
45.41000 163.000
45.42500 161.000
45.44000 156.000
45.45500 160.000
45.47000 158.000
45.48500 167.000
45.50000 160.000
45.51500 160.000
45.53000 156.000
45.54500 158.000
45.56000 156.000
45.57500 151.000
45.59000 149.000
45.60500 136.000
45.62000 128.000
45.63500 145.000
45.65000 144.000
45.66500 137.000
45.68000 127.000
45.69500 131.000
45.71000 146.000
45.72500 129.000
45.74000 142.000
45.75500 140.000
45.77000 153.000
45.78500 143.000
45.80000 142.000
45.81500 149.000
45.83000 133.000
45.84500 153.000
45.86000 145.000
45.87500 146.000
45.89000 129.000
45.90500 122.000
45.92000 126.000
45.93500 132.000
45.95000 131.000
45.96500 133.000
45.98000 131.000
45.99500 142.000
46.01000 131.000
46.02500 125.000
46.04000 134.000
46.05500 155.000
46.07000 142.000
46.08500 140.000
46.10000 121.000
46.11500 112.000
46.13000 114.000
46.14500 129.000
46.16000 137.000
46.17500 139.000
46.19000 140.000
46.20500 148.000
46.22000 152.000
46.23500 153.000
46.25000 134.000
46.26500 121.000
46.28000 142.000
46.29500 144.000
46.31000 147.000
46.32500 140.000
46.34000 149.000
46.35500 129.000
46.37000 118.000
46.38500 132.000
46.40000 109.000
46.41500 138.000
46.43000 126.000
46.44500 129.000
46.46000 130.000
46.47500 129.000
46.49000 118.000
46.50500 128.000
46.52000 130.000
46.53500 132.000
46.55000 132.000
46.56500 125.000
46.58000 119.000
46.59500 124.000
46.61000 126.000
46.62500 119.000
46.64000 124.000
46.65500 122.000
46.67000 108.000
46.68500 121.000
46.70000 128.000
46.71500 137.000
46.73000 135.000
46.74500 123.000
46.76000 125.000
46.77500 126.000
46.79000 146.000
46.80500 123.000
46.82000 128.000
46.83500 137.000
46.85000 132.000
46.86500 117.000
46.88000 133.000
46.89500 112.000
46.91000 125.000
46.92500 123.000
46.94000 134.000
46.95500 133.000
46.97000 137.000
46.98500 145.000
47.00000 150.000
47.01500 147.000
47.03000 139.000
47.04500 135.000
47.06000 140.000
47.07500 140.000
47.09000 139.000
47.10500 143.000
47.12000 121.000
47.13500 117.000
47.15000 136.000
47.16500 143.000
47.18000 138.000
47.19500 127.000
47.21000 125.000
47.22500 124.000
47.24000 122.000
47.25500 121.000
47.27000 123.000
47.28500 122.000
47.30000 130.000
47.31500 134.000
47.33000 126.000
47.34500 122.000
47.36000 126.000
47.37500 121.000
47.39000 109.000
47.40500 124.000
47.42000 130.000
47.43500 126.000
47.45000 116.000
47.46500 136.000
47.48000 122.000
47.49500 122.000
47.51000 131.000
47.52500 140.000
47.54000 154.000
47.55500 143.000
47.57000 153.000
47.58500 150.000
47.60000 149.000
47.61500 132.000
47.63000 134.000
47.64500 132.000
47.66000 143.000
47.67500 138.000
47.69000 125.000
47.70500 122.000
47.72000 131.000
47.73500 137.000
47.75000 130.000
47.76500 138.000
47.78000 139.000
47.79500 125.000
47.81000 133.000
47.82500 127.000
47.84000 133.000
47.85500 141.000
47.87000 136.000
47.88500 137.000
47.90000 137.000
47.91500 144.000
47.93000 148.000
47.94500 150.000
47.96000 158.000
47.97500 123.000
47.99000 119.000
48.00500 119.000
48.02000 139.000
48.03500 119.000
48.05000 117.000
48.06500 142.000
48.08000 123.000
48.09500 130.000
48.11000 119.000
48.12500 125.000
48.14000 118.000
48.15500 131.000
48.17000 120.000
48.18500 116.000
48.20000 127.000
48.21500 124.000
48.23000 118.000
48.24500 120.000
48.26000 136.000
48.27500 144.000
48.29000 130.000
48.30500 131.000
48.32000 144.000
48.33500 133.000
48.35000 135.000
48.36500 115.000
48.38000 127.000
48.39500 138.000
48.41000 132.000
48.42500 134.000
48.44000 138.000
48.45500 125.000
48.47000 116.000
48.48500 148.000
48.50000 150.000
48.51500 129.000
48.53000 140.000
48.54500 125.000
48.56000 130.000
48.57500 126.000
48.59000 136.000
48.60500 125.000
48.62000 136.000
48.63500 133.000
48.65000 124.000
48.66500 125.000
48.68000 133.000
48.69500 132.000
48.71000 132.000
48.72500 116.000
48.74000 122.000
48.75500 118.000
48.77000 123.000
48.78500 125.000
48.80000 130.000
48.81500 119.000
48.83000 123.000
48.84500 113.000
48.86000 127.000
48.87500 133.000
48.89000 138.000
48.90500 140.000
48.92000 127.000
48.93500 127.000
48.95000 129.000
48.96500 120.000
48.98000 127.000
48.99500 133.000
49.01000 119.000
49.02500 121.000
49.04000 133.000
49.05500 125.000
49.07000 150.000
49.08500 165.000
49.10000 160.000
49.11500 148.000
49.13000 137.000
49.14500 136.000
49.16000 133.000
49.17500 144.000
49.19000 153.000
49.20500 144.000
49.22000 153.000
49.23500 138.000
49.25000 131.000
49.26500 128.000
49.28000 128.000
49.29500 139.000
49.31000 145.000
49.32500 149.000
49.34000 134.000
49.35500 131.000
49.37000 125.000
49.38500 140.000
49.40000 137.000
49.41500 119.000
49.43000 136.000
49.44500 143.000
49.46000 111.000
49.47500 125.000
49.49000 124.000
49.50500 104.000
49.52000 119.000
49.53500 126.000
49.55000 120.000
49.56500 116.000
49.58000 116.000
49.59500 116.000
49.61000 109.000
49.62500 135.000
49.64000 118.000
49.65500 105.000
49.67000 120.000
49.68500 130.000
49.70000 124.000
49.71500 130.000
49.73000 134.000
49.74500 113.000
49.76000 117.000
49.77500 114.000
49.79000 103.000
49.80500 111.000
49.82000 126.000
49.83500 125.000
49.85000 122.000
49.86500 98.000
49.88000 118.000
49.89500 126.000
49.91000 113.000
49.92500 117.000
49.94000 134.000
49.95500 120.000
49.97000 123.000
49.98500 123.000
50.00000 116.000
50.01500 122.000
50.03000 119.000
50.04500 114.000
50.06000 128.000
50.07500 125.000
50.09000 137.000
50.10500 129.000
50.12000 123.000
50.13500 119.000
50.15000 130.000
50.16500 127.000
50.18000 128.000
50.19500 124.000
50.21000 118.000
50.22500 110.000
50.24000 121.000
50.25500 123.000
50.27000 136.000
50.28500 115.000
50.30000 126.000
50.31500 132.000
50.33000 123.000
50.34500 123.000
50.36000 123.000
50.37500 108.000
50.39000 115.000
50.40500 120.000
50.42000 113.000
50.43500 104.000
50.45000 113.000
50.46500 119.000
50.48000 125.000
50.49500 114.000
50.51000 128.000
50.52500 125.000
50.54000 130.000
50.55500 115.000
50.57000 108.000
50.58500 130.000
50.60000 128.000
50.61500 127.000
50.63000 122.000
50.64500 124.000
50.66000 139.000
50.67500 138.000
50.69000 120.000
50.70500 128.000
50.72000 135.000
50.73500 131.000
50.75000 134.000
50.76500 137.000
50.78000 118.000
50.79500 107.000
50.81000 120.000
50.82500 112.000
50.84000 123.000
50.85500 127.000
50.87000 128.000
50.88500 117.000
50.90000 134.000
50.91500 123.000
50.93000 117.000
50.94500 131.000
50.96000 132.000
50.97500 117.000
50.99000 121.000
51.00500 115.000
51.02000 128.000
51.03500 120.000
51.05000 109.000
51.06500 120.000
51.08000 120.000
51.09500 116.000
51.11000 117.000
51.12500 128.000
51.14000 118.000
51.15500 106.000
51.17000 126.000
51.18500 109.000
51.20000 120.000
51.21500 103.000
51.23000 102.000
51.24500 117.000
51.26000 114.000
51.27500 120.000
51.29000 114.000
51.30500 124.000
51.32000 128.000
51.33500 128.000
51.35000 121.000
51.36500 117.000
51.38000 104.000
51.39500 107.000
51.41000 123.000
51.42500 116.000
51.44000 122.000
51.45500 103.000
51.47000 127.000
51.48500 118.000
51.50000 113.000
51.51500 125.000
51.53000 127.000
51.54500 122.000
51.56000 136.000
51.57500 114.000
51.59000 135.000
51.60500 127.000
51.62000 121.000
51.63500 123.000
51.65000 147.000
51.66500 121.000
51.68000 130.000
51.69500 132.000
51.71000 137.000
51.72500 130.000
51.74000 133.000
51.75500 116.000
51.77000 119.000
51.78500 138.000
51.80000 131.000
51.81500 113.000
51.83000 119.000
51.84500 117.000
51.86000 131.000
51.87500 129.000
51.89000 123.000
51.90500 113.000
51.92000 113.000
51.93500 115.000
51.95000 119.000
51.96500 122.000
51.98000 113.000
51.99500 133.000
52.01000 115.000
52.02500 132.000
52.04000 151.000
52.05500 125.000
52.07000 117.000
52.08500 124.000
52.10000 126.000
52.11500 124.000
52.13000 114.000
52.14500 120.000
52.16000 135.000
52.17500 126.000
52.19000 120.000
52.20500 127.000
52.22000 125.000
52.23500 122.000
52.25000 144.000
52.26500 144.000
52.28000 149.000
52.29500 155.000
52.31000 146.000
52.32500 153.000
52.34000 145.000
52.35500 156.000
52.37000 150.000
52.38500 155.000
52.40000 156.000
52.41500 145.000
52.43000 144.000
52.44500 140.000
52.46000 134.000
52.47500 135.000
52.49000 147.000
52.50500 135.000
52.52000 130.000
52.53500 121.000
52.55000 127.000
52.56500 119.000
52.58000 123.000
52.59500 137.000
52.61000 119.000
52.62500 112.000
52.64000 134.000
52.65500 118.000
52.67000 143.000
52.68500 136.000
52.70000 122.000
52.71500 119.000
52.73000 132.000
52.74500 136.000
52.76000 124.000
52.77500 122.000
52.79000 130.000
52.80500 148.000
52.82000 132.000
52.83500 115.000
52.85000 112.000
52.86500 122.000
52.88000 122.000
52.89500 128.000
52.91000 141.000
52.92500 134.000
52.94000 132.000
52.95500 134.000
52.97000 134.000
52.98500 132.000
53.00000 127.000
53.01500 110.000
53.03000 126.000
53.04500 133.000
53.06000 121.000
53.07500 117.000
53.09000 116.000
53.10500 128.000
53.12000 121.000
53.13500 134.000
53.15000 113.000
53.16500 124.000
53.18000 124.000
53.19500 133.000
53.21000 130.000
53.22500 111.000
53.24000 131.000
53.25500 125.000
53.27000 123.000
53.28500 117.000
53.30000 110.000
53.31500 121.000
53.33000 121.000
53.34500 128.000
53.36000 134.000
53.37500 124.000
53.39000 135.000
53.40500 153.000
53.42000 124.000
53.43500 121.000
53.45000 137.000
53.46500 146.000
53.48000 119.000
53.49500 128.000
53.51000 156.000
53.52500 146.000
53.54000 133.000
53.55500 115.000
53.57000 112.000
53.58500 120.000
53.60000 138.000
53.61500 140.000
53.63000 111.000
53.64500 137.000
53.66000 129.000
53.67500 126.000
53.69000 122.000
53.70500 113.000
53.72000 127.000
53.73500 132.000
53.75000 123.000
53.76500 126.000
53.78000 117.000
53.79500 116.000
53.81000 122.000
53.82500 125.000
53.84000 139.000
53.85500 138.000
53.87000 139.000
53.88500 127.000
53.90000 145.000
53.91500 148.000
53.93000 140.000
53.94500 165.000
53.96000 175.000
53.97500 183.000
53.99000 162.000
54.00500 152.000
54.02000 172.000
54.03500 147.000
54.05000 168.000
54.06500 168.000
54.08000 159.000
54.09500 157.000
54.11000 150.000
54.12500 167.000
54.14000 156.000
54.15500 156.000
54.17000 149.000
54.18500 133.000
54.20000 128.000
54.21500 130.000
54.23000 133.000
54.24500 138.000
54.26000 142.000
54.27500 133.000
54.29000 134.000
54.30500 133.000
54.32000 132.000
54.33500 120.000
54.35000 114.000
54.36500 123.000
54.38000 133.000
54.39500 125.000
54.41000 124.000
54.42500 117.000
54.44000 120.000
54.45500 128.000
54.47000 120.000
54.48500 135.000
54.50000 133.000
54.51500 116.000
54.53000 113.000
54.54500 114.000
54.56000 122.000
54.57500 119.000
54.59000 136.000
54.60500 132.000
54.62000 139.000
54.63500 144.000
54.65000 122.000
54.66500 124.000
54.68000 130.000
54.69500 123.000
54.71000 129.000
54.72500 124.000
54.74000 119.000
54.75500 130.000
54.77000 124.000
54.78500 128.000
54.80000 123.000
54.81500 128.000
54.83000 125.000
54.84500 140.000
54.86000 130.000
54.87500 127.000
54.89000 125.000
54.90500 110.000
54.92000 115.000
54.93500 115.000
54.95000 112.000
54.96500 115.000
54.98000 115.000
54.99500 127.000
55.01000 136.000
55.02500 136.000
55.04000 149.000
55.05500 125.000
55.07000 120.000
55.08500 123.000
55.10000 120.000
55.11500 116.000
55.13000 135.000
55.14500 107.000
55.16000 130.000
55.17500 147.000
55.19000 127.000
55.20500 111.000
55.22000 121.000
55.23500 125.000
55.25000 115.000
55.26500 120.000
55.28000 118.000
55.29500 128.000
55.31000 131.000
55.32500 103.000
55.34000 110.000
55.35500 117.000
55.37000 127.000
55.38500 129.000
55.40000 111.000
55.41500 120.000
55.43000 123.000
55.44500 119.000
55.46000 108.000
55.47500 119.000
55.49000 111.000
55.50500 111.000
55.52000 106.000
55.53500 116.000
55.55000 116.000
55.56500 100.000
55.58000 108.000
55.59500 112.000
55.61000 113.000
55.62500 102.000
55.64000 110.000
55.65500 128.000
55.67000 138.000
55.68500 139.000
55.70000 126.000
55.71500 140.000
55.73000 124.000
55.74500 113.000
55.76000 126.000
55.77500 136.000
55.79000 115.000
55.80500 133.000
55.82000 117.000
55.83500 126.000
55.85000 125.000
55.86500 107.000
55.88000 117.000
55.89500 129.000
55.91000 119.000
55.92500 125.000
55.94000 127.000
55.95500 116.000
55.97000 112.000
55.98500 126.000
56.00000 122.000
56.01500 110.000
56.03000 117.000
56.04500 107.000
56.06000 102.000
56.07500 121.000
56.09000 119.000
56.10500 118.000
56.12000 97.000
56.13500 124.000
56.15000 119.000
56.16500 116.000
56.18000 116.000
56.19500 128.000
56.21000 138.000
56.22500 124.000
56.24000 122.000
56.25500 103.000
56.27000 122.000
56.28500 112.000
56.30000 113.000
56.31500 110.000
56.33000 114.000
56.34500 107.000
56.36000 107.000
56.37500 109.000
56.39000 102.000
56.40500 113.000
56.42000 109.000
56.43500 124.000
56.45000 120.000
56.46500 114.000
56.48000 114.000
56.49500 110.000
56.51000 121.000
56.52500 112.000
56.54000 115.000
56.55500 130.000
56.57000 119.000
56.58500 113.000
56.60000 119.000
56.61500 117.000
56.63000 121.000
56.64500 133.000
56.66000 106.000
56.67500 105.000
56.69000 107.000
56.70500 96.000
56.72000 112.000
56.73500 109.000
56.75000 131.000
56.76500 114.000
56.78000 121.000
56.79500 124.000
56.81000 125.000
56.82500 119.000
56.84000 117.000
56.85500 111.000
56.87000 136.000
56.88500 124.000
56.90000 133.000
56.91500 130.000
56.93000 126.000
56.94500 133.000
56.96000 114.000
56.97500 111.000
56.99000 100.000
57.00500 97.000
57.02000 114.000
57.03500 107.000
57.05000 122.000
57.06500 107.000
57.08000 116.000
57.09500 131.000
57.11000 113.000
57.12500 111.000
57.14000 117.000
57.15500 120.000
57.17000 115.000
57.18500 118.000
57.20000 103.000
57.21500 104.000
57.23000 121.000
57.24500 120.000
57.26000 116.000
57.27500 110.000
57.29000 123.000
57.30500 111.000
57.32000 120.000
57.33500 119.000
57.35000 114.000
57.36500 114.000
57.38000 114.000
57.39500 113.000
57.41000 118.000
57.42500 119.000
57.44000 131.000
57.45500 127.000
57.47000 109.000
57.48500 115.000
57.50000 117.000
57.51500 119.000
57.53000 114.000
57.54500 116.000
57.56000 124.000
57.57500 115.000
57.59000 123.000
57.60500 122.000
57.62000 138.000
57.63500 139.000
57.65000 124.000
57.66500 108.000
57.68000 130.000
57.69500 127.000
57.71000 105.000
57.72500 118.000
57.74000 131.000
57.75500 114.000
57.77000 120.000
57.78500 113.000
57.80000 111.000
57.81500 114.000
57.83000 118.000
57.84500 140.000
57.86000 127.000
57.87500 120.000
57.89000 132.000
57.90500 117.000
57.92000 131.000
57.93500 134.000
57.95000 125.000
57.96500 118.000
57.98000 127.000
57.99500 130.000
58.01000 128.000
58.02500 142.000
58.04000 129.000
58.05500 127.000
58.07000 133.000
58.08500 152.000
58.10000 134.000
58.11500 135.000
58.13000 141.000
58.14500 137.000
58.16000 124.000
58.17500 125.000
58.19000 120.000
58.20500 135.000
58.22000 127.000
58.23500 116.000
58.25000 135.000
58.26500 124.000
58.28000 121.000
58.29500 127.000
58.31000 127.000
58.32500 114.000
58.34000 126.000
58.35500 129.000
58.37000 139.000
58.38500 134.000
58.40000 133.000
58.41500 122.000
58.43000 115.000
58.44500 128.000
58.46000 129.000
58.47500 137.000
58.49000 134.000
58.50500 130.000
58.52000 119.000
58.53500 127.000
58.55000 113.000
58.56500 125.000
58.58000 133.000
58.59500 128.000
58.61000 144.000
58.62500 127.000
58.64000 113.000
58.65500 127.000
58.67000 109.000
58.68500 121.000
58.70000 115.000
58.71500 124.000
58.73000 105.000
58.74500 95.000
58.76000 98.000
58.77500 109.000
58.79000 99.000
58.80500 97.000
58.82000 92.000
58.83500 103.000
58.85000 110.000
58.86500 104.000
58.88000 101.000
58.89500 103.000
58.91000 102.000
58.92500 102.000
58.94000 101.000
58.95500 85.000
58.97000 98.000
58.98500 103.000
59.00000 110.000
59.01500 104.000
59.03000 115.000
59.04500 107.000
59.06000 117.000
59.07500 110.000
59.09000 119.000
59.10500 117.000
59.12000 111.000
59.13500 104.000
59.15000 109.000
59.16500 104.000
59.18000 112.000
59.19500 111.000
59.21000 117.000
59.22500 107.000
59.24000 97.000
59.25500 99.000
59.27000 101.000
59.28500 98.000
59.30000 104.000
59.31500 104.000
59.33000 105.000
59.34500 104.000
59.36000 103.000
59.37500 103.000
59.39000 117.000
59.40500 116.000
59.42000 106.000
59.43500 100.000
59.45000 100.000
59.46500 102.000
59.48000 100.000
59.49500 111.000
59.51000 106.000
59.52500 92.000
59.54000 107.000
59.55500 107.000
59.57000 93.000
59.58500 113.000
59.60000 110.000
59.61500 106.000
59.63000 106.000
59.64500 92.000
59.66000 96.000
59.67500 111.000
59.69000 112.000
59.70500 101.000
59.72000 94.000
59.73500 86.000
59.75000 85.000
59.76500 100.000
59.78000 106.000
59.79500 109.000
59.81000 130.000
59.82500 120.000
59.84000 100.000
59.85500 102.000
59.87000 108.000
59.88500 103.000
59.90000 104.000
59.91500 106.000
59.93000 105.000
59.94500 107.000
59.96000 98.000
59.97500 95.000
59.99000 100.000
60.00500 83.000
60.02000 97.000
60.03500 110.000
60.05000 103.000
60.06500 103.000
60.08000 111.000
60.09500 93.000
60.11000 105.000
60.12500 106.000
60.14000 109.000
60.15500 103.000
60.17000 116.000
60.18500 113.000
60.20000 109.000
60.21500 118.000
60.23000 114.000
60.24500 103.000
60.26000 105.000
60.27500 99.000
60.29000 103.000
60.30500 102.000
60.32000 118.000
60.33500 114.000
60.35000 94.000
60.36500 92.000
60.38000 107.000
60.39500 106.000
60.41000 99.000
60.42500 104.000
60.44000 92.000
60.45500 100.000
60.47000 105.000
60.48500 99.000
60.50000 122.000
60.51500 95.000
60.53000 108.000
60.54500 105.000
60.56000 101.000
60.57500 93.000
60.59000 120.000
60.60500 102.000
60.62000 96.000
60.63500 100.000
60.65000 104.000
60.66500 111.000
60.68000 107.000
60.69500 98.000
60.71000 108.000
60.72500 104.000
60.74000 89.000
60.75500 100.000
60.77000 116.000
60.78500 100.000
60.80000 106.000
60.81500 93.000
60.83000 89.000
60.84500 111.000
60.86000 104.000
60.87500 97.000
60.89000 97.000
60.90500 104.000
60.92000 100.000
60.93500 97.000
60.95000 92.000
60.96500 100.000
60.98000 108.000
60.99500 93.000
61.01000 98.000
61.02500 102.000
61.04000 100.000
61.05500 118.000
61.07000 98.000
61.08500 90.000
61.10000 105.000
61.11500 104.000
61.13000 101.000
61.14500 111.000
61.16000 99.000
61.17500 87.000
61.19000 87.000
61.20500 90.000
61.22000 87.000
61.23500 91.000
61.25000 101.000
61.26500 102.000
61.28000 85.000
61.29500 92.000
61.31000 95.000
61.32500 111.000
61.34000 105.000
61.35500 84.000
61.37000 104.000
61.38500 93.000
61.40000 104.000
61.41500 90.000
61.43000 99.000
61.44500 105.000
61.46000 106.000
61.47500 106.000
61.49000 105.000
61.50500 102.000
61.52000 105.000
61.53500 107.000
61.55000 103.000
61.56500 99.000
61.58000 111.000
61.59500 92.000
61.61000 96.000
61.62500 92.000
61.64000 100.000
61.65500 96.000
61.67000 94.000
61.68500 88.000
61.70000 99.000
61.71500 90.000
61.73000 98.000
61.74500 105.000
61.76000 88.000
61.77500 92.000
61.79000 115.000
61.80500 88.000
61.82000 98.000
61.83500 94.000
61.85000 95.000
61.86500 106.000
61.88000 99.000
61.89500 107.000
61.91000 120.000
61.92500 104.000
61.94000 91.000
61.95500 96.000
61.97000 101.000
61.98500 111.000
