2.00000 1.000
2.01500 2.000
2.03000 3.000
2.04500 2.000
2.06000 1.000
2.07500 4.000
2.09000 4.000
2.10500 3.000
2.12000 4.000
2.13500 4.000
2.15000 5.000
2.16500 2.000
2.18000 5.000
2.19500 2.000
2.21000 3.000
2.22500 4.000
2.24000 4.000
2.25500 4.000
2.27000 4.000
2.28500 7.000
2.30000 10.000
2.31500 6.000
2.33000 7.000
2.34500 5.000
2.36000 3.000
2.37500 3.000
2.39000 5.000
2.40500 6.000
2.42000 3.000
2.43500 2.000
2.45000 2.000
2.46500 3.000
2.48000 4.000
2.49500 1.000
2.51000 1.000
2.52500 3.000
2.54000 3.000
2.55500 4.000
2.57000 3.000
2.58500 3.000
2.60000 3.000
2.61500 1.000
2.63000 3.000
2.64500 3.000
2.66000 3.000
2.67500 3.000
2.69000 4.000
2.70500 3.000
2.72000 4.000
2.73500 4.000
2.75000 5.000
2.76500 4.000
2.78000 1.000
2.79500 3.000
2.81000 1.000
2.82500 7.000
2.84000 9.000
2.85500 8.000
2.87000 6.000
2.88500 12.000
2.90000 13.000
2.91500 14.000
2.93000 27.000
2.94500 38.000
2.96000 83.000
2.97500 230.000
2.99000 411.000
3.00500 574.000
3.02000 746.000
3.03500 956.000
3.05000 1128.000
3.06500 1273.000
3.08000 1382.000
3.09500 1492.000
3.11000 1529.000
3.12500 1556.000
3.14000 1541.000
3.15500 1524.000
3.17000 1510.000
3.18500 1527.000
3.20000 1534.000
3.21500 1493.000
3.23000 1445.000
3.24500 1375.000
3.26000 1514.000
3.27500 1432.000
3.29000 1398.000
3.30500 1410.000
3.32000 1408.000
3.33500 1375.000
3.35000 1389.000
3.36500 1343.000
3.38000 1347.000
3.39500 1366.000
3.41000 1375.000
3.42500 1319.000
3.44000 1328.000
3.45500 1297.000
3.47000 1255.000
3.48500 1268.000
3.50000 1272.000
3.51500 1297.000
3.53000 1283.000
3.54500 1269.000
3.56000 1276.000
3.57500 1232.000
3.59000 1245.000
3.60500 1211.000
3.62000 1225.000
3.63500 1209.000
3.65000 1180.000
3.66500 1118.000
3.68000 1187.000
3.69500 1226.000
3.71000 1146.000
3.72500 1112.000
3.74000 1149.000
3.75500 1175.000
3.77000 1202.000
3.78500 1160.000
3.80000 1164.000
3.81500 1147.000
3.83000 1099.000
3.84500 1094.000
3.86000 1054.000
3.87500 1097.000
3.89000 1109.000
3.90500 1080.000
3.92000 1108.000
3.93500 1076.000
3.95000 982.000
3.96500 1025.000
3.98000 1026.000
3.99500 1036.000
4.01000 1031.000
4.02500 1014.000
4.04000 964.000
4.05500 988.000
4.07000 1029.000
4.08500 1008.000
4.10000 991.000
4.11500 959.000
4.13000 962.000
4.14500 951.000
4.16000 975.000
4.17500 935.000
4.19000 948.000
4.20500 906.000
4.22000 916.000
4.23500 948.000
4.25000 914.000
4.26500 889.000
4.28000 930.000
4.29500 906.000
4.31000 879.000
4.32500 884.000
4.34000 881.000
4.35500 946.000
4.37000 895.000
4.38500 844.000
4.40000 877.000
4.41500 839.000
4.43000 843.000
4.44500 824.000
4.46000 811.000
4.47500 835.000
4.49000 850.000
4.50500 853.000
4.52000 829.000
4.53500 868.000
4.55000 846.000
4.56500 841.000
4.58000 827.000
4.59500 817.000
4.61000 803.000
4.62500 831.000
4.64000 838.000
4.65500 855.000
4.67000 803.000
4.68500 770.000
4.70000 782.000
4.71500 795.000
4.73000 802.000
4.74500 788.000
4.76000 745.000
4.77500 756.000
4.79000 782.000
4.80500 778.000
4.82000 789.000
4.83500 752.000
4.85000 787.000
4.86500 737.000
4.88000 761.000
4.89500 765.000
4.91000 743.000
4.92500 767.000
4.94000 760.000
4.95500 724.000
4.97000 737.000
4.98500 761.000
5.00000 713.000
5.01500 697.000
5.03000 686.000
5.04500 726.000
5.06000 712.000
5.07500 696.000
5.09000 688.000
5.10500 738.000
5.12000 695.000
5.13500 704.000
5.15000 712.000
5.16500 677.000
5.18000 677.000
5.19500 685.000
5.21000 699.000
5.22500 683.000
5.24000 684.000
5.25500 696.000
5.27000 672.000
5.28500 671.000
5.30000 641.000
5.31500 665.000
5.33000 677.000
5.34500 666.000
5.36000 619.000
5.37500 614.000
5.39000 635.000
5.40500 690.000
5.42000 659.000
5.43500 624.000
5.45000 638.000
5.46500 616.000
5.48000 660.000
5.49500 636.000
5.51000 633.000
5.52500 610.000
5.54000 626.000
5.55500 644.000
5.57000 659.000
5.58500 609.000
5.60000 647.000
5.61500 617.000
5.63000 607.000
5.64500 585.000
5.66000 605.000
5.67500 609.000
5.69000 610.000
5.70500 556.000
5.72000 560.000
5.73500 605.000
5.75000 610.000
5.76500 605.000
5.78000 598.000
5.79500 575.000
5.81000 579.000
5.82500 586.000
5.84000 615.000
5.85500 611.000
5.87000 592.000
5.88500 609.000
5.90000 583.000
5.91500 584.000
5.93000 552.000
5.94500 581.000
5.96000 550.000
5.97500 560.000
5.99000 585.000
6.00500 599.000
6.02000 592.000
6.03500 560.000
6.05000 541.000
6.06500 553.000
6.08000 564.000
6.09500 564.000
6.11000 525.000
6.12500 571.000
6.14000 539.000
6.15500 541.000
6.17000 545.000
6.18500 542.000
6.20000 550.000
6.21500 586.000
6.23000 547.000
6.24500 550.000
6.26000 548.000
6.27500 522.000
6.29000 551.000
6.30500 537.000
6.32000 522.000
6.33500 566.000
6.35000 562.000
6.36500 531.000
6.38000 535.000
6.39500 528.000
6.41000 553.000
6.42500 529.000
6.44000 531.000
6.45500 524.000
6.47000 501.000
6.48500 531.000
6.50000 532.000
6.51500 509.000
6.53000 509.000
6.54500 520.000
6.56000 530.000
6.57500 521.000
6.59000 516.000
6.60500 545.000
6.62000 501.000
6.63500 501.000
6.65000 535.000
6.66500 529.000
6.68000 508.000
6.69500 511.000
6.71000 508.000
6.72500 526.000
6.74000 506.000
6.75500 498.000
6.77000 481.000
6.78500 498.000
6.80000 463.000
6.81500 502.000
6.83000 480.000
6.84500 483.000
6.86000 522.000
6.87500 491.000
6.89000 491.000
6.90500 500.000
6.92000 483.000
6.93500 462.000
6.95000 484.000
6.96500 488.000
6.98000 484.000
6.99500 507.000
7.01000 521.000
7.02500 493.000
7.04000 446.000
7.05500 475.000
7.07000 510.000
7.08500 504.000
7.10000 468.000
7.11500 470.000
7.13000 485.000
7.14500 489.000
7.16000 469.000
7.17500 460.000
7.19000 480.000
7.20500 468.000
7.22000 489.000
7.23500 451.000
7.25000 479.000
7.26500 488.000
7.28000 472.000
7.29500 491.000
7.31000 484.000
7.32500 472.000
7.34000 491.000
7.35500 467.000
7.37000 451.000
7.38500 485.000
7.40000 477.000
7.41500 447.000
7.43000 449.000
7.44500 478.000
7.46000 467.000
7.47500 442.000
7.49000 449.000
7.50500 445.000
7.52000 497.000
7.53500 469.000
7.55000 458.000
7.56500 470.000
7.58000 446.000
7.59500 432.000
7.61000 444.000
7.62500 469.000
7.64000 443.000
7.65500 489.000
7.67000 457.000
7.68500 479.000
7.70000 463.000
7.71500 468.000
7.73000 426.000
7.74500 466.000
7.76000 450.000
7.77500 457.000
7.79000 482.000
7.80500 433.000
7.82000 430.000
7.83500 426.000
7.85000 444.000
7.86500 449.000
7.88000 464.000
7.89500 453.000
7.91000 443.000
7.92500 436.000
7.94000 432.000
7.95500 463.000
7.97000 448.000
7.98500 431.000
8.00000 466.000
8.01500 453.000
8.03000 440.000
8.04500 462.000
8.06000 438.000
8.07500 444.000
8.09000 443.000
8.10500 461.000
8.12000 483.000
8.13500 467.000
8.15000 456.000
8.16500 462.000
8.18000 454.000
8.19500 452.000
8.21000 457.000
8.22500 427.000
8.24000 447.000
8.25500 483.000
8.27000 434.000
8.28500 413.000
8.30000 430.000
8.31500 440.000
8.33000 454.000
8.34500 457.000
8.36000 415.000
8.37500 414.000
8.39000 431.000
8.40500 428.000
8.42000 449.000
8.43500 430.000
8.45000 424.000
8.46500 432.000
8.48000 419.000
8.49500 437.000
8.51000 431.000
8.52500 432.000
8.54000 431.000
8.55500 417.000
8.57000 437.000
8.58500 441.000
8.60000 415.000
8.61500 382.000
8.63000 399.000
8.64500 429.000
8.66000 405.000
8.67500 433.000
8.69000 395.000
8.70500 387.000
8.72000 452.000
8.73500 424.000
8.75000 421.000
8.76500 416.000
8.78000 424.000
8.79500 432.000
8.81000 416.000
8.82500 415.000
8.84000 413.000
8.85500 431.000
8.87000 425.000
8.88500 422.000
8.90000 444.000
8.91500 431.000
8.93000 413.000
8.94500 435.000
8.96000 431.000
8.97500 427.000
8.99000 404.000
9.00500 417.000
9.02000 427.000
9.03500 440.000
9.05000 424.000
9.06500 430.000
9.08000 426.000
9.09500 422.000
9.11000 402.000
9.12500 415.000
9.14000 406.000
9.15500 389.000
9.17000 379.000
9.18500 432.000
9.20000 420.000
9.21500 393.000
9.23000 400.000
9.24500 410.000
9.26000 416.000
9.27500 411.000
9.29000 427.000
9.30500 460.000
9.32000 454.000
9.33500 418.000
9.35000 422.000
9.36500 389.000
9.38000 399.000
9.39500 386.000
9.41000 401.000
9.42500 432.000
9.44000 422.000
9.45500 390.000
9.47000 409.000
9.48500 420.000
9.50000 404.000
9.51500 425.000
9.53000 444.000
9.54500 377.000
9.56000 413.000
9.57500 428.000
9.59000 418.000
9.60500 413.000
9.62000 434.000
9.63500 426.000
9.65000 373.000
9.66500 355.000
9.68000 404.000
9.69500 456.000
9.71000 405.000
9.72500 410.000
9.74000 421.000
9.75500 430.000
9.77000 444.000
9.78500 404.000
9.80000 401.000
9.81500 392.000
9.83000 405.000
9.84500 399.000
9.86000 414.000
9.87500 388.000
9.89000 388.000
9.90500 415.000
9.92000 404.000
9.93500 389.000
9.95000 385.000
9.96500 409.000
9.98000 410.000
9.99500 412.000
10.01000 408.000
10.02500 405.000
10.04000 405.000
10.05500 405.000
10.07000 402.000
10.08500 396.000
10.10000 402.000
10.11500 389.000
10.13000 388.000
10.14500 417.000
10.16000 406.000
10.17500 415.000
10.19000 420.000
10.20500 427.000
10.22000 396.000
10.23500 379.000
10.25000 372.000
10.26500 416.000
10.28000 395.000
10.29500 400.000
10.31000 408.000
10.32500 413.000
10.34000 403.000
10.35500 399.000
10.37000 395.000
10.38500 393.000
10.40000 384.000
10.41500 424.000
10.43000 391.000
10.44500 405.000
10.46000 376.000
10.47500 384.000
10.49000 384.000
10.50500 395.000
10.52000 405.000
10.53500 410.000
10.55000 381.000
10.56500 423.000
10.58000 391.000
10.59500 379.000
10.61000 401.000
10.62500 392.000
10.64000 396.000
10.65500 392.000
10.67000 411.000
10.68500 395.000
10.70000 388.000
10.71500 371.000
10.73000 387.000
10.74500 414.000
10.76000 365.000
10.77500 389.000
10.79000 419.000
10.80500 391.000
10.82000 399.000
10.83500 414.000
10.85000 390.000
10.86500 387.000
10.88000 412.000
10.89500 389.000
10.91000 374.000
10.92500 414.000
10.94000 406.000
10.95500 388.000
10.97000 383.000
10.98500 401.000
11.00000 396.000
11.01500 427.000
11.03000 404.000
11.04500 383.000
11.06000 366.000
11.07500 383.000
11.09000 393.000
11.10500 378.000
11.12000 399.000
11.13500 411.000
11.15000 360.000
11.16500 397.000
11.18000 409.000
11.19500 394.000
11.21000 375.000
11.22500 386.000
11.24000 389.000
11.25500 366.000
11.27000 377.000
11.28500 377.000
11.30000 401.000
11.31500 376.000
11.33000 396.000
11.34500 367.000
11.36000 386.000
11.37500 377.000
11.39000 365.000
11.40500 372.000
11.42000 362.000
11.43500 425.000
11.45000 415.000
11.46500 409.000
11.48000 403.000
11.49500 408.000
11.51000 370.000
11.52500 364.000
11.54000 381.000
11.55500 402.000
11.57000 409.000
11.58500 384.000
11.60000 373.000
11.61500 375.000
11.63000 354.000
11.64500 350.000
11.66000 398.000
11.67500 420.000
11.69000 397.000
11.70500 368.000
11.72000 397.000
11.73500 374.000
11.75000 374.000
11.76500 364.000
11.78000 375.000
11.79500 383.000
11.81000 361.000
11.82500 366.000
11.84000 416.000
11.85500 387.000
11.87000 389.000
11.88500 384.000
11.90000 392.000
11.91500 383.000
11.93000 388.000
11.94500 388.000
11.96000 433.000
11.97500 387.000
11.99000 391.000
12.00500 383.000
12.02000 404.000
12.03500 393.000
12.05000 383.000
12.06500 401.000
12.08000 418.000
12.09500 417.000
12.11000 398.000
12.12500 371.000
12.14000 394.000
12.15500 378.000
12.17000 418.000
12.18500 382.000
12.20000 375.000
12.21500 374.000
12.23000 385.000
12.24500 369.000
12.26000 360.000
12.27500 389.000
12.29000 363.000
12.30500 379.000
12.32000 394.000
12.33500 375.000
12.35000 371.000
12.36500 396.000
12.38000 392.000
12.39500 361.000
12.41000 364.000
12.42500 393.000
12.44000 408.000
12.45500 386.000
12.47000 384.000
12.48500 372.000
12.50000 360.000
12.51500 381.000
12.53000 403.000
12.54500 384.000
12.56000 371.000
12.57500 359.000
12.59000 373.000
12.60500 376.000
12.62000 382.000
12.63500 410.000
12.65000 418.000
12.66500 365.000
12.68000 368.000
12.69500 372.000
12.71000 396.000
12.72500 381.000
12.74000 401.000
12.75500 382.000
12.77000 388.000
12.78500 363.000
12.80000 379.000
12.81500 390.000
12.83000 371.000
12.84500 376.000
12.86000 369.000
12.87500 370.000
12.89000 393.000
12.90500 405.000
12.92000 397.000
12.93500 373.000
12.95000 336.000
12.96500 365.000
12.98000 385.000
12.99500 381.000
13.01000 344.000
13.02500 374.000
13.04000 378.000
13.05500 396.000
13.07000 365.000
13.08500 404.000
13.10000 385.000
13.11500 372.000
13.13000 393.000
13.14500 367.000
13.16000 392.000
13.17500 370.000
13.19000 370.000
13.20500 363.000
13.22000 369.000
13.23500 358.000
13.25000 378.000
13.26500 358.000
13.28000 407.000
13.29500 357.000
13.31000 388.000
13.32500 390.000
13.34000 393.000
13.35500 396.000
13.37000 365.000
13.38500 381.000
13.40000 400.000
13.41500 371.000
13.43000 358.000
13.44500 372.000
13.46000 385.000
13.47500 384.000
13.49000 376.000
13.50500 374.000
13.52000 355.000
13.53500 379.000
13.55000 377.000
13.56500 378.000
13.58000 374.000
13.59500 348.000
13.61000 370.000
13.62500 371.000
13.64000 370.000
13.65500 369.000
13.67000 365.000
13.68500 358.000
13.70000 357.000
13.71500 361.000
13.73000 355.000
13.74500 355.000
13.76000 381.000
13.77500 387.000
13.79000 376.000
13.80500 359.000
13.82000 379.000
13.83500 408.000
13.85000 380.000
13.86500 357.000
13.88000 375.000
13.89500 382.000
13.91000 372.000
13.92500 366.000
13.94000 383.000
13.95500 400.000
13.97000 397.000
13.98500 395.000
14.00000 376.000
14.01500 384.000
14.03000 375.000
14.04500 355.000
14.06000 395.000
14.07500 341.000
14.09000 380.000
14.10500 363.000
14.12000 382.000
14.13500 354.000
14.15000 356.000
14.16500 363.000
14.18000 407.000
14.19500 400.000
14.21000 375.000
14.22500 369.000
14.24000 347.000
14.25500 373.000
14.27000 358.000
14.28500 366.000
14.30000 359.000
14.31500 348.000
14.33000 382.000
14.34500 372.000
14.36000 342.000
14.37500 357.000
14.39000 350.000
14.40500 365.000
14.42000 367.000
14.43500 376.000
14.45000 365.000
14.46500 344.000
14.48000 357.000
14.49500 370.000
14.51000 366.000
14.52500 350.000
14.54000 355.000
14.55500 356.000
14.57000 381.000
14.58500 365.000
14.60000 372.000
14.61500 385.000
14.63000 369.000
14.64500 365.000
14.66000 359.000
14.67500 363.000
14.69000 350.000
14.70500 386.000
14.72000 359.000
14.73500 391.000
14.75000 372.000
14.76500 359.000
14.78000 364.000
14.79500 395.000
14.81000 376.000
14.82500 376.000
14.84000 409.000
14.85500 394.000
14.87000 376.000
14.88500 368.000
14.90000 382.000
14.91500 372.000
14.93000 382.000
14.94500 360.000
14.96000 368.000
14.97500 362.000
14.99000 383.000
15.00500 375.000
15.02000 361.000
15.03500 379.000
15.05000 381.000
15.06500 375.000
15.08000 385.000
15.09500 365.000
15.11000 365.000
15.12500 374.000
15.14000 371.000
15.15500 375.000
15.17000 352.000
15.18500 360.000
15.20000 380.000
15.21500 370.000
15.23000 373.000
15.24500 340.000
15.26000 351.000
15.27500 363.000
15.29000 352.000
15.30500 374.000
15.32000 364.000
15.33500 381.000
15.35000 386.000
15.36500 380.000
15.38000 376.000
15.39500 343.000
15.41000 353.000
15.42500 355.000
15.44000 361.000
15.45500 362.000
15.47000 360.000
15.48500 358.000
15.50000 362.000
15.51500 362.000
15.53000 375.000
15.54500 370.000
15.56000 368.000
15.57500 374.000
15.59000 371.000
15.60500 374.000
15.62000 377.000
15.63500 356.000
15.65000 404.000
15.66500 364.000
15.68000 351.000
15.69500 369.000
15.71000 346.000
15.72500 392.000
15.74000 360.000
15.75500 371.000
15.77000 363.000
15.78500 385.000
15.80000 365.000
15.81500 349.000
15.83000 370.000
15.84500 357.000
15.86000 349.000
15.87500 355.000
15.89000 357.000
15.90500 361.000
15.92000 385.000
15.93500 351.000
15.95000 349.000
15.96500 381.000
15.98000 377.000
15.99500 402.000
16.01000 367.000
16.02500 390.000
16.04000 350.000
16.05500 351.000
16.07000 384.000
16.08500 372.000
16.10000 346.000
16.11500 379.000
16.13000 390.000
16.14500 389.000
16.16000 390.000
16.17500 362.000
16.19000 394.000
16.20500 387.000
16.22000 390.000
16.23500 382.000
16.25000 353.000
16.26500 326.000
16.28000 374.000
16.29500 361.000
16.31000 371.000
16.32500 341.000
16.34000 355.000
16.35500 379.000
16.37000 371.000
16.38500 390.000
16.40000 353.000
16.41500 382.000
16.43000 378.000
16.44500 354.000
16.46000 341.000
16.47500 369.000
16.49000 370.000
16.50500 344.000
16.52000 353.000
16.53500 365.000
16.55000 388.000
16.56500 410.000
16.58000 378.000
16.59500 371.000
16.61000 367.000
16.62500 354.000
16.64000 357.000
16.65500 377.000
16.67000 389.000
16.68500 361.000
16.70000 368.000
16.71500 368.000
16.73000 384.000
16.74500 386.000
16.76000 352.000
16.77500 396.000
16.79000 367.000
16.80500 353.000
16.82000 368.000
16.83500 381.000
16.85000 351.000
16.86500 367.000
16.88000 374.000
16.89500 363.000
16.91000 377.000
16.92500 353.000
16.94000 374.000
16.95500 348.000
16.97000 376.000
16.98500 368.000
17.00000 381.000
17.01500 397.000
17.03000 387.000
17.04500 369.000
17.06000 354.000
17.07500 349.000
17.09000 386.000
17.10500 389.000
17.12000 398.000
17.13500 368.000
17.15000 398.000
17.16500 397.000
17.18000 385.000
17.19500 360.000
17.21000 351.000
17.22500 347.000
17.24000 356.000
17.25500 359.000
17.27000 358.000
17.28500 347.000
17.30000 369.000
17.31500 378.000
17.33000 387.000
17.34500 367.000
17.36000 382.000
17.37500 380.000
17.39000 362.000
17.40500 363.000
17.42000 353.000
17.43500 377.000
17.45000 371.000
17.46500 346.000
17.48000 357.000
17.49500 378.000
17.51000 388.000
17.52500 378.000
17.54000 374.000
17.55500 377.000
17.57000 355.000
17.58500 391.000
17.60000 354.000
17.61500 355.000
17.63000 348.000
17.64500 329.000
17.66000 321.000
17.67500 357.000
17.69000 387.000
17.70500 398.000
17.72000 367.000
17.73500 376.000
17.75000 375.000
17.76500 407.000
17.78000 381.000
17.79500 368.000
17.81000 373.000
17.82500 377.000
17.84000 338.000
17.85500 379.000
17.87000 367.000
17.88500 354.000
17.90000 356.000
17.91500 367.000
17.93000 390.000
17.94500 372.000
17.96000 396.000
17.97500 369.000
17.99000 364.000
18.00500 390.000
18.02000 392.000
18.03500 397.000
18.05000 371.000
18.06500 355.000
18.08000 367.000
18.09500 389.000
18.11000 389.000
18.12500 367.000
18.14000 361.000
18.15500 373.000
18.17000 369.000
18.18500 380.000
18.20000 388.000
18.21500 366.000
18.23000 383.000
18.24500 384.000
18.26000 353.000
18.27500 374.000
18.29000 363.000
18.30500 363.000
18.32000 361.000
18.33500 384.000
18.35000 367.000
18.36500 357.000
18.38000 380.000
18.39500 383.000
18.41000 378.000
18.42500 388.000
18.44000 347.000
18.45500 384.000
18.47000 371.000
18.48500 357.000
18.50000 384.000
18.51500 413.000
18.53000 379.000
18.54500 380.000
18.56000 382.000
18.57500 350.000
18.59000 386.000
18.60500 381.000
18.62000 384.000
18.63500 387.000
18.65000 363.000
18.66500 396.000
18.68000 387.000
18.69500 401.000
18.71000 386.000
18.72500 380.000
18.74000 410.000
18.75500 404.000
18.77000 374.000
18.78500 387.000
18.80000 406.000
18.81500 386.000
18.83000 401.000
18.84500 390.000
18.86000 363.000
18.87500 386.000
18.89000 393.000
18.90500 380.000
18.92000 387.000
18.93500 420.000
18.95000 407.000
18.96500 384.000
18.98000 365.000
18.99500 416.000
19.01000 402.000
19.02500 392.000
19.04000 418.000
19.05500 406.000
19.07000 423.000
19.08500 356.000
19.10000 389.000
19.11500 392.000
19.13000 388.000
19.14500 420.000
19.16000 394.000
19.17500 405.000
19.19000 407.000
19.20500 400.000
19.22000 393.000
19.23500 389.000
19.25000 400.000
19.26500 375.000
19.28000 394.000
19.29500 368.000
19.31000 414.000
19.32500 409.000
19.34000 419.000
19.35500 403.000
19.37000 387.000
19.38500 407.000
19.40000 398.000
19.41500 390.000
19.43000 409.000
19.44500 395.000
19.46000 412.000
19.47500 415.000
19.49000 403.000
19.50500 402.000
19.52000 409.000
19.53500 392.000
19.55000 393.000
19.56500 395.000
19.58000 389.000
19.59500 413.000
19.61000 407.000
19.62500 413.000
19.64000 403.000
19.65500 390.000
19.67000 416.000
19.68500 393.000
19.70000 381.000
19.71500 359.000
19.73000 405.000
19.74500 380.000
19.76000 413.000
19.77500 408.000
19.79000 386.000
19.80500 402.000
19.82000 426.000
19.83500 397.000
19.85000 390.000
19.86500 417.000
19.88000 407.000
19.89500 389.000
19.91000 388.000
19.92500 392.000
19.94000 391.000
19.95500 384.000
19.97000 415.000
19.98500 383.000
20.00000 425.000
20.01500 406.000
20.03000 389.000
20.04500 404.000
20.06000 396.000
20.07500 394.000
20.09000 413.000
20.10500 375.000
20.12000 405.000
20.13500 451.000
20.15000 404.000
20.16500 405.000
20.18000 397.000
20.19500 416.000
20.21000 431.000
20.22500 429.000
20.24000 423.000
20.25500 413.000
20.27000 401.000
20.28500 398.000
20.30000 394.000
20.31500 410.000
20.33000 426.000
20.34500 401.000
20.36000 409.000
20.37500 434.000
20.39000 388.000
20.40500 394.000
20.42000 417.000
20.43500 395.000
20.45000 406.000
20.46500 406.000
20.48000 452.000
20.49500 442.000
20.51000 436.000
20.52500 400.000
20.54000 395.000
20.55500 413.000
20.57000 403.000
20.58500 387.000
20.60000 437.000
20.61500 427.000
20.63000 410.000
20.64500 415.000
20.66000 406.000
20.67500 422.000
20.69000 440.000
20.70500 424.000
20.72000 427.000
20.73500 427.000
20.75000 407.000
20.76500 390.000
20.78000 402.000
20.79500 426.000
20.81000 408.000
20.82500 430.000
20.84000 428.000
20.85500 450.000
20.87000 408.000
20.88500 420.000
20.90000 433.000
20.91500 422.000
20.93000 398.000
20.94500 433.000
20.96000 425.000
20.97500 422.000
20.99000 426.000
21.00500 411.000
21.02000 422.000
21.03500 422.000
21.05000 431.000
21.06500 424.000
21.08000 395.000
21.09500 424.000
21.11000 416.000
21.12500 442.000
21.14000 420.000
21.15500 416.000
21.17000 431.000
21.18500 459.000
21.20000 452.000
21.21500 452.000
21.23000 378.000
21.24500 389.000
21.26000 421.000
21.27500 403.000
21.29000 411.000
21.30500 410.000
21.32000 400.000
21.33500 399.000
21.35000 420.000
21.36500 439.000
21.38000 435.000
21.39500 425.000
21.41000 410.000
21.42500 409.000
21.44000 424.000
21.45500 424.000
21.47000 401.000
21.48500 394.000
21.50000 412.000
21.51500 439.000
21.53000 440.000
21.54500 423.000
21.56000 425.000
21.57500 416.000
21.59000 417.000
21.60500 445.000
21.62000 435.000
21.63500 445.000
21.65000 462.000
21.66500 462.000
21.68000 440.000
21.69500 441.000
21.71000 451.000
21.72500 480.000
21.74000 426.000
21.75500 436.000
21.77000 450.000
21.78500 420.000
21.80000 404.000
21.81500 428.000
21.83000 418.000
21.84500 428.000
21.86000 444.000
21.87500 428.000
21.89000 400.000
21.90500 426.000
21.92000 463.000
21.93500 459.000
21.95000 454.000
21.96500 436.000
21.98000 436.000
21.99500 448.000
22.01000 433.000
22.02500 410.000
22.04000 429.000
22.05500 438.000
22.07000 438.000
22.08500 460.000
22.10000 433.000
22.11500 420.000
22.13000 437.000
22.14500 428.000
22.16000 446.000
22.17500 410.000
22.19000 451.000
22.20500 445.000
22.22000 411.000
22.23500 440.000
22.25000 460.000
22.26500 445.000
22.28000 417.000
22.29500 419.000
22.31000 446.000
22.32500 439.000
22.34000 444.000
22.35500 471.000
22.37000 439.000
22.38500 465.000
22.40000 478.000
22.41500 452.000
22.43000 439.000
22.44500 460.000
22.46000 472.000
22.47500 446.000
22.49000 433.000
22.50500 467.000
22.52000 425.000
22.53500 454.000
22.55000 434.000
22.56500 451.000
22.58000 441.000
22.59500 424.000
22.61000 401.000
22.62500 404.000
22.64000 453.000
22.65500 457.000
22.67000 434.000
22.68500 438.000
22.70000 464.000
22.71500 482.000
22.73000 437.000
22.74500 408.000
22.76000 413.000
22.77500 450.000
22.79000 446.000
22.80500 443.000
22.82000 441.000
22.83500 455.000
22.85000 487.000
22.86500 459.000
22.88000 438.000
22.89500 450.000
22.91000 433.000
22.92500 443.000
22.94000 452.000
22.95500 480.000
22.97000 433.000
22.98500 437.000
23.00000 455.000
23.01500 464.000
23.03000 462.000
23.04500 459.000
23.06000 458.000
23.07500 456.000
23.09000 452.000
23.10500 453.000
23.12000 418.000
23.13500 445.000
23.15000 467.000
23.16500 463.000
23.18000 436.000
23.19500 441.000
23.21000 447.000
23.22500 461.000
23.24000 451.000
23.25500 422.000
23.27000 452.000
23.28500 466.000
23.30000 472.000
23.31500 453.000
23.33000 451.000
23.34500 470.000
23.36000 431.000
23.37500 427.000
23.39000 457.000
23.40500 443.000
23.42000 446.000
23.43500 443.000
23.45000 454.000
23.46500 459.000
23.48000 450.000
23.49500 453.000
23.51000 448.000
23.52500 488.000
23.54000 443.000
23.55500 439.000
23.57000 480.000
23.58500 467.000
23.60000 472.000
23.61500 436.000
23.63000 436.000
23.64500 441.000
23.66000 415.000
23.67500 463.000
23.69000 469.000
23.70500 467.000
23.72000 464.000
23.73500 416.000
23.75000 458.000
23.76500 470.000
23.78000 450.000
23.79500 440.000
23.81000 439.000
23.82500 430.000
23.84000 446.000
23.85500 469.000
23.87000 456.000
23.88500 453.000
23.90000 482.000
23.91500 451.000
23.93000 462.000
23.94500 456.000
23.96000 483.000
23.97500 457.000
23.99000 448.000
24.00500 476.000
24.02000 453.000
24.03500 442.000
24.05000 460.000
24.06500 440.000
24.08000 430.000
24.09500 447.000
24.11000 446.000
24.12500 456.000
24.14000 445.000
24.15500 475.000
24.17000 444.000
24.18500 431.000
24.20000 442.000
24.21500 443.000
24.23000 447.000
24.24500 481.000
24.26000 447.000
24.27500 444.000
24.29000 437.000
24.30500 434.000
24.32000 452.000
24.33500 468.000
24.35000 452.000
24.36500 448.000
24.38000 452.000
24.39500 454.000
24.41000 456.000
24.42500 445.000
24.44000 413.000
24.45500 431.000
24.47000 441.000
24.48500 462.000
24.50000 462.000
24.51500 486.000
24.53000 464.000
24.54500 465.000
24.56000 483.000
24.57500 457.000
24.59000 441.000
24.60500 437.000
24.62000 456.000
24.63500 480.000
24.65000 482.000
24.66500 442.000
24.68000 429.000
24.69500 467.000
24.71000 442.000
24.72500 439.000
24.74000 451.000
24.75500 465.000
24.77000 491.000
24.78500 500.000
24.80000 483.000
24.81500 473.000
24.83000 423.000
24.84500 440.000
24.86000 418.000
24.87500 418.000
24.89000 449.000
24.90500 443.000
24.92000 438.000
24.93500 421.000
24.95000 429.000
24.96500 437.000
24.98000 444.000
24.99500 467.000
25.01000 454.000
25.02500 447.000
25.04000 446.000
25.05500 425.000
25.07000 466.000
25.08500 461.000
25.10000 443.000
25.11500 445.000
25.13000 469.000
25.14500 446.000
25.16000 471.000
25.17500 474.000
25.19000 472.000
25.20500 465.000
25.22000 452.000
25.23500 441.000
25.25000 426.000
25.26500 451.000
25.28000 461.000
25.29500 466.000
25.31000 472.000
25.32500 458.000
25.34000 468.000
25.35500 446.000
25.37000 442.000
25.38500 482.000
25.40000 462.000
25.41500 430.000
25.43000 422.000
25.44500 461.000
25.46000 455.000
25.47500 476.000
25.49000 499.000
25.50500 466.000
25.52000 468.000
25.53500 450.000
25.55000 449.000
25.56500 418.000
25.58000 435.000
25.59500 448.000
25.61000 433.000
25.62500 431.000
25.64000 433.000
25.65500 426.000
25.67000 440.000
25.68500 441.000
25.70000 445.000
25.71500 451.000
25.73000 419.000
25.74500 410.000
25.76000 438.000
25.77500 420.000
25.79000 427.000
25.80500 449.000
25.82000 471.000
25.83500 433.000
25.85000 450.000
25.86500 440.000
25.88000 459.000
25.89500 416.000
25.91000 434.000
25.92500 427.000
25.94000 444.000
25.95500 458.000
25.97000 472.000
25.98500 447.000
26.00000 452.000
26.01500 437.000
26.03000 422.000
26.04500 407.000
26.06000 427.000
26.07500 436.000
26.09000 464.000
26.10500 449.000
26.12000 441.000
26.13500 453.000
26.15000 467.000
26.16500 439.000
26.18000 433.000
26.19500 471.000
26.21000 439.000
26.22500 438.000
26.24000 436.000
26.25500 435.000
26.27000 432.000
26.28500 446.000
26.30000 434.000
26.31500 426.000
26.33000 415.000
26.34500 426.000
26.36000 442.000
26.37500 437.000
26.39000 435.000
26.40500 422.000
26.42000 416.000
26.43500 428.000
26.45000 431.000
26.46500 429.000
26.48000 412.000
26.49500 438.000
26.51000 448.000
26.52500 424.000
26.54000 446.000
26.55500 427.000
26.57000 439.000
26.58500 457.000
26.60000 458.000
26.61500 414.000
26.63000 431.000
26.64500 413.000
26.66000 426.000
26.67500 406.000
26.69000 451.000
26.70500 452.000
26.72000 426.000
26.73500 421.000
26.75000 427.000
26.76500 435.000
26.78000 431.000
26.79500 425.000
26.81000 438.000
26.82500 455.000
26.84000 425.000
26.85500 442.000
26.87000 418.000
26.88500 399.000
26.90000 420.000
26.91500 414.000
26.93000 450.000
26.94500 437.000
26.96000 405.000
26.97500 446.000
26.99000 419.000
27.00500 400.000
27.02000 438.000
27.03500 437.000
27.05000 406.000
27.06500 406.000
27.08000 412.000
27.09500 444.000
27.11000 468.000
27.12500 421.000
27.14000 348.000
27.15500 402.000
27.17000 414.000
27.18500 414.000
27.20000 416.000
27.21500 431.000
27.23000 417.000
27.24500 397.000
27.26000 406.000
27.27500 399.000
27.29000 404.000
27.30500 404.000
27.32000 423.000
27.33500 418.000
27.35000 389.000
27.36500 423.000
27.38000 408.000
27.39500 418.000
27.41000 410.000
27.42500 400.000
27.44000 415.000
27.45500 413.000
27.47000 403.000
27.48500 401.000
27.50000 410.000
27.51500 426.000
27.53000 389.000
27.54500 403.000
27.56000 396.000
27.57500 412.000
27.59000 377.000
27.60500 355.000
27.62000 389.000
27.63500 403.000
27.65000 398.000
27.66500 408.000
27.68000 395.000
27.69500 400.000
27.71000 380.000
27.72500 376.000
27.74000 381.000
27.75500 385.000
27.77000 375.000
27.78500 379.000
27.80000 377.000
27.81500 377.000
27.83000 383.000
27.84500 369.000
27.86000 394.000
27.87500 415.000
27.89000 391.000
27.90500 384.000
27.92000 378.000
27.93500 419.000
27.95000 409.000
27.96500 431.000
27.98000 405.000
27.99500 415.000
28.01000 396.000
28.02500 407.000
28.04000 393.000
28.05500 375.000
28.07000 413.000
28.08500 384.000
28.10000 374.000
28.11500 402.000
28.13000 384.000
28.14500 397.000
28.16000 370.000
28.17500 402.000
28.19000 385.000
28.20500 383.000
28.22000 361.000
28.23500 403.000
28.25000 358.000
28.26500 387.000
28.28000 390.000
28.29500 358.000
28.31000 377.000
28.32500 402.000
28.34000 370.000
28.35500 365.000
28.37000 408.000
28.38500 385.000
28.40000 370.000
28.41500 355.000
28.43000 359.000
28.44500 374.000
28.46000 391.000
28.47500 382.000
28.49000 355.000
28.50500 359.000
28.52000 351.000
28.53500 382.000
28.55000 374.000
28.56500 382.000
28.58000 376.000
28.59500 388.000
28.61000 399.000
28.62500 385.000
28.64000 360.000
28.65500 385.000
28.67000 381.000
28.68500 379.000
28.70000 379.000
28.71500 396.000
28.73000 368.000
28.74500 367.000
28.76000 352.000
28.77500 373.000
28.79000 375.000
28.80500 400.000
28.82000 381.000
28.83500 389.000
28.85000 370.000
28.86500 329.000
28.88000 359.000
28.89500 380.000
28.91000 347.000
28.92500 384.000
28.94000 378.000
28.95500 372.000
28.97000 358.000
28.98500 378.000
29.00000 356.000
29.01500 373.000
29.03000 358.000
29.04500 369.000
29.06000 341.000
29.07500 378.000
29.09000 371.000
29.10500 327.000
29.12000 357.000
29.13500 373.000
29.15000 374.000
29.16500 391.000
29.18000 343.000
29.19500 332.000
29.21000 353.000
29.22500 357.000
29.24000 353.000
29.25500 356.000
29.27000 386.000
29.28500 332.000
29.30000 350.000
29.31500 332.000
29.33000 326.000
29.34500 367.000
29.36000 358.000
29.37500 350.000
29.39000 350.000
29.40500 355.000
29.42000 352.000
29.43500 335.000
29.45000 339.000
29.46500 334.000
29.48000 323.000
29.49500 330.000
29.51000 353.000
29.52500 360.000
29.54000 358.000
29.55500 350.000
29.57000 352.000
29.58500 328.000
29.60000 334.000
29.61500 322.000
29.63000 342.000
29.64500 344.000
29.66000 338.000
29.67500 347.000
29.69000 369.000
29.70500 365.000
29.72000 338.000
29.73500 338.000
29.75000 362.000
29.76500 337.000
29.78000 333.000
29.79500 338.000
29.81000 348.000
29.82500 336.000
29.84000 335.000
29.85500 338.000
29.87000 341.000
29.88500 351.000
29.90000 352.000
29.91500 321.000
29.93000 336.000
29.94500 342.000
29.96000 347.000
29.97500 353.000
29.99000 336.000
30.00500 352.000
30.02000 341.000
30.03500 345.000
30.05000 347.000
30.06500 361.000
30.08000 328.000
30.09500 350.000
30.11000 331.000
30.12500 309.000
30.14000 324.000
30.15500 340.000
30.17000 332.000
30.18500 334.000
30.20000 340.000
30.21500 340.000
30.23000 338.000
30.24500 339.000
30.26000 324.000
30.27500 332.000
30.29000 331.000
30.30500 349.000
30.32000 339.000
30.33500 350.000
30.35000 343.000
30.36500 390.000
30.38000 350.000
30.39500 331.000
30.41000 353.000
30.42500 329.000
30.44000 319.000
30.45500 350.000
30.47000 313.000
30.48500 327.000
30.50000 323.000
30.51500 316.000
30.53000 335.000
30.54500 332.000
30.56000 333.000
30.57500 314.000
30.59000 337.000
30.60500 332.000
30.62000 302.000
30.63500 332.000
30.65000 322.000
30.66500 327.000
30.68000 340.000
30.69500 325.000
30.71000 312.000
30.72500 307.000
30.74000 334.000
30.75500 330.000
30.77000 331.000
30.78500 332.000
30.80000 307.000
30.81500 329.000
30.83000 346.000
30.84500 315.000
30.86000 305.000
30.87500 307.000
30.89000 317.000
30.90500 308.000
30.92000 330.000
30.93500 328.000
30.95000 300.000
30.96500 297.000
30.98000 318.000
30.99500 303.000
31.01000 323.000
31.02500 338.000
31.04000 328.000
31.05500 282.000
31.07000 296.000
31.08500 307.000
31.10000 310.000
31.11500 330.000
31.13000 297.000
31.14500 295.000
31.16000 292.000
31.17500 311.000
31.19000 306.000
31.20500 297.000
31.22000 297.000
31.23500 320.000
31.25000 311.000
31.26500 311.000
31.28000 292.000
31.29500 303.000
31.31000 330.000
31.32500 326.000
31.34000 309.000
31.35500 311.000
31.37000 311.000
31.38500 319.000
31.40000 334.000
31.41500 323.000
31.43000 309.000
31.44500 287.000
31.46000 288.000
31.47500 274.000
31.49000 294.000
31.50500 298.000
31.52000 290.000
31.53500 322.000
31.55000 314.000
31.56500 304.000
31.58000 304.000
31.59500 304.000
31.61000 309.000
31.62500 328.000
31.64000 343.000
31.65500 315.000
31.67000 320.000
31.68500 317.000
31.70000 340.000
31.71500 330.000
31.73000 338.000
31.74500 341.000
31.76000 297.000
31.77500 300.000
31.79000 283.000
31.80500 330.000
31.82000 283.000
31.83500 283.000
31.85000 315.000
31.86500 298.000
31.88000 296.000
31.89500 294.000
31.91000 285.000
31.92500 285.000
31.94000 290.000
31.95500 311.000
31.97000 297.000
31.98500 292.000
32.00000 319.000
32.01500 297.000
32.03000 274.000
32.04500 287.000
32.06000 321.000
32.07500 319.000
32.09000 301.000
32.10500 320.000
32.12000 292.000
32.13500 303.000
32.15000 333.000
32.16500 320.000
32.18000 325.000
32.19500 296.000
32.21000 298.000
32.22500 266.000
32.24000 272.000
32.25500 282.000
32.27000 292.000
32.28500 278.000
32.30000 276.000
32.31500 279.000
32.33000 276.000
32.34500 282.000
32.36000 295.000
32.37500 294.000
32.39000 290.000
32.40500 267.000
32.42000 288.000
32.43500 307.000
32.45000 272.000
32.46500 282.000
32.48000 288.000
32.49500 279.000
32.51000 275.000
32.52500 290.000
32.54000 271.000
32.55500 276.000
32.57000 279.000
32.58500 280.000
32.60000 261.000
32.61500 275.000
32.63000 303.000
32.64500 291.000
32.66000 280.000
32.67500 254.000
32.69000 265.000
32.70500 275.000
32.72000 307.000
32.73500 275.000
32.75000 272.000
32.76500 282.000
32.78000 289.000
32.79500 283.000
32.81000 281.000
32.82500 267.000
32.84000 268.000
32.85500 282.000
32.87000 265.000
32.88500 269.000
32.90000 264.000
32.91500 254.000
32.93000 254.000
32.94500 268.000
32.96000 272.000
32.97500 290.000
32.99000 260.000
33.00500 260.000
33.02000 274.000
33.03500 276.000
33.05000 270.000
33.06500 262.000
33.08000 276.000
33.09500 286.000
33.11000 252.000
33.12500 278.000
33.14000 257.000
33.15500 264.000
33.17000 260.000
33.18500 269.000
33.20000 255.000
33.21500 259.000
33.23000 261.000
33.24500 263.000
33.26000 272.000
33.27500 275.000
33.29000 276.000
33.30500 271.000
33.32000 290.000
33.33500 270.000
33.35000 266.000
33.36500 265.000
33.38000 297.000
33.39500 276.000
33.41000 259.000
33.42500 266.000
33.44000 271.000
33.45500 265.000
33.47000 278.000
33.48500 270.000
33.50000 281.000
33.51500 268.000
33.53000 258.000
33.54500 270.000
33.56000 261.000
33.57500 261.000
33.59000 242.000
33.60500 273.000
33.62000 276.000
33.63500 293.000
33.65000 273.000
33.66500 270.000
33.68000 276.000
33.69500 245.000
33.71000 256.000
33.72500 257.000
33.74000 268.000
33.75500 255.000
33.77000 268.000
33.78500 249.000
33.80000 242.000
33.81500 272.000
33.83000 276.000
33.84500 251.000
33.86000 262.000
33.87500 260.000
33.89000 276.000
33.90500 269.000
33.92000 235.000
33.93500 243.000
33.95000 234.000
33.96500 240.000
33.98000 237.000
33.99500 245.000
34.01000 263.000
34.02500 252.000
34.04000 242.000
34.05500 246.000
34.07000 232.000
34.08500 231.000
34.10000 215.000
34.11500 215.000
34.13000 235.000
34.14500 232.000
34.16000 265.000
34.17500 248.000
34.19000 249.000
34.20500 254.000
34.22000 237.000
34.23500 235.000
34.25000 232.000
34.26500 240.000
34.28000 217.000
34.29500 214.000
34.31000 239.000
34.32500 245.000
34.34000 235.000
34.35500 267.000
34.37000 246.000
34.38500 236.000
34.40000 235.000
34.41500 233.000
34.43000 250.000
34.44500 234.000
34.46000 227.000
34.47500 228.000
34.49000 220.000
34.50500 236.000
34.52000 251.000
34.53500 251.000
34.55000 256.000
34.56500 256.000
34.58000 235.000
34.59500 230.000
34.61000 241.000
34.62500 248.000
34.64000 237.000
34.65500 230.000
34.67000 238.000
34.68500 214.000
34.70000 201.000
34.71500 253.000
34.73000 262.000
34.74500 236.000
34.76000 239.000
34.77500 259.000
34.79000 238.000
34.80500 216.000
34.82000 241.000
34.83500 227.000
34.85000 229.000
34.86500 216.000
34.88000 223.000
34.89500 224.000
34.91000 237.000
34.92500 247.000
34.94000 216.000
34.95500 230.000
34.97000 239.000
34.98500 239.000
35.00000 213.000
35.01500 209.000
35.03000 229.000
35.04500 235.000
35.06000 249.000
35.07500 238.000
35.09000 235.000
35.10500 235.000
35.12000 229.000
35.13500 222.000
35.15000 245.000
35.16500 227.000
35.18000 246.000
35.19500 223.000
35.21000 236.000
35.22500 229.000
35.24000 240.000
35.25500 249.000
35.27000 243.000
35.28500 224.000
35.30000 236.000
35.31500 214.000
35.33000 212.000
35.34500 218.000
35.36000 201.000
35.37500 224.000
35.39000 233.000
35.40500 212.000
35.42000 202.000
35.43500 267.000
35.45000 227.000
35.46500 226.000
35.48000 242.000
35.49500 259.000
35.51000 231.000
35.52500 234.000
35.54000 241.000
35.55500 236.000
35.57000 227.000
35.58500 243.000
35.60000 221.000
35.61500 239.000
35.63000 225.000
35.64500 219.000
35.66000 242.000
35.67500 213.000
35.69000 243.000
35.70500 217.000
35.72000 223.000
35.73500 236.000
35.75000 214.000
35.76500 236.000
35.78000 213.000
35.79500 219.000
35.81000 214.000
35.82500 234.000
35.84000 232.000
35.85500 232.000
35.87000 235.000
35.88500 216.000
35.90000 238.000
35.91500 221.000
35.93000 221.000
35.94500 205.000
35.96000 227.000
35.97500 242.000
35.99000 220.000
36.00500 208.000
36.02000 231.000
36.03500 223.000
36.05000 213.000
36.06500 226.000
36.08000 209.000
36.09500 204.000
36.11000 194.000
36.12500 219.000
36.14000 229.000
36.15500 207.000
36.17000 196.000
36.18500 227.000
36.20000 224.000
36.21500 218.000
36.23000 202.000
36.24500 221.000
36.26000 244.000
36.27500 222.000
36.29000 220.000
36.30500 220.000
36.32000 208.000
36.33500 196.000
36.35000 210.000
36.36500 208.000
36.38000 211.000
36.39500 234.000
36.41000 215.000
36.42500 218.000
36.44000 200.000
36.45500 223.000
36.47000 217.000
36.48500 224.000
36.50000 225.000
36.51500 207.000
36.53000 223.000
36.54500 203.000
36.56000 212.000
36.57500 189.000
36.59000 227.000
36.60500 209.000
36.62000 214.000
36.63500 219.000
36.65000 204.000
36.66500 222.000
36.68000 215.000
36.69500 208.000
36.71000 199.000
36.72500 203.000
36.74000 208.000
36.75500 221.000
36.77000 200.000
36.78500 226.000
36.80000 203.000
36.81500 227.000
36.83000 221.000
36.84500 199.000
36.86000 213.000
36.87500 213.000
36.89000 224.000
36.90500 212.000
36.92000 197.000
36.93500 206.000
36.95000 211.000
36.96500 216.000
36.98000 223.000
36.99500 237.000
37.01000 230.000
37.02500 210.000
37.04000 191.000
37.05500 218.000
37.07000 210.000
37.08500 228.000
37.10000 205.000
37.11500 214.000
37.13000 201.000
37.14500 194.000
37.16000 175.000
37.17500 188.000
37.19000 207.000
37.20500 227.000
37.22000 220.000
37.23500 202.000
37.25000 208.000
37.26500 209.000
37.28000 209.000
37.29500 217.000
37.31000 187.000
37.32500 209.000
37.34000 211.000
37.35500 229.000
37.37000 187.000
37.38500 202.000
37.40000 199.000
37.41500 197.000
37.43000 208.000
37.44500 209.000
37.46000 202.000
37.47500 195.000
37.49000 192.000
37.50500 184.000
37.52000 212.000
37.53500 225.000
37.55000 194.000
37.56500 207.000
37.58000 211.000
37.59500 205.000
37.61000 209.000
37.62500 214.000
37.64000 202.000
37.65500 189.000
37.67000 190.000
37.68500 182.000
37.70000 203.000
37.71500 191.000
37.73000 205.000
37.74500 192.000
37.76000 200.000
37.77500 202.000
37.79000 175.000
37.80500 213.000
37.82000 208.000
37.83500 206.000
37.85000 194.000
37.86500 184.000
37.88000 205.000
37.89500 196.000
37.91000 212.000
37.92500 205.000
37.94000 214.000
37.95500 218.000
37.97000 205.000
37.98500 222.000
38.00000 205.000
38.01500 207.000
38.03000 194.000
38.04500 221.000
38.06000 212.000
38.07500 200.000
38.09000 216.000
38.10500 200.000
38.12000 207.000
38.13500 206.000
38.15000 179.000
38.16500 204.000
38.18000 217.000
38.19500 184.000
38.21000 187.000
38.22500 214.000
38.24000 213.000
38.25500 177.000
38.27000 207.000
38.28500 216.000
38.30000 202.000
38.31500 215.000
38.33000 190.000
38.34500 191.000
38.36000 189.000
38.37500 191.000
38.39000 210.000
38.40500 208.000
38.42000 214.000
38.43500 203.000
38.45000 182.000
38.46500 187.000
38.48000 186.000
38.49500 204.000
38.51000 206.000
38.52500 209.000
38.54000 204.000
38.55500 187.000
38.57000 201.000
38.58500 195.000
38.60000 197.000
38.61500 176.000
38.63000 204.000
38.64500 198.000
38.66000 223.000
38.67500 189.000
38.69000 189.000
38.70500 212.000
38.72000 206.000
38.73500 199.000
38.75000 207.000
38.76500 199.000
38.78000 197.000
38.79500 203.000
38.81000 199.000
38.82500 206.000
38.84000 188.000
38.85500 225.000
38.87000 221.000
38.88500 212.000
38.90000 220.000
38.91500 204.000
38.93000 224.000
38.94500 210.000
38.96000 189.000
38.97500 195.000
38.99000 212.000
39.00500 220.000
39.02000 205.000
39.03500 185.000
39.05000 196.000
39.06500 210.000
39.08000 201.000
39.09500 219.000
39.11000 184.000
39.12500 171.000
39.14000 189.000
39.15500 193.000
39.17000 220.000
39.18500 212.000
39.20000 185.000
39.21500 204.000
39.23000 184.000
39.24500 217.000
39.26000 199.000
39.27500 191.000
39.29000 222.000
39.30500 219.000
39.32000 205.000
39.33500 204.000
39.35000 209.000
39.36500 206.000
39.38000 197.000
39.39500 182.000
39.41000 199.000
39.42500 189.000
39.44000 203.000
39.45500 201.000
39.47000 202.000
39.48500 204.000
39.50000 195.000
39.51500 197.000
39.53000 185.000
39.54500 186.000
39.56000 209.000
39.57500 201.000
39.59000 200.000
39.60500 194.000
39.62000 217.000
39.63500 207.000
39.65000 201.000
39.66500 202.000
39.68000 205.000
39.69500 194.000
39.71000 195.000
39.72500 194.000
39.74000 197.000
39.75500 196.000
39.77000 198.000
39.78500 201.000
39.80000 193.000
39.81500 191.000
39.83000 196.000
39.84500 205.000
39.86000 209.000
39.87500 194.000
39.89000 190.000
39.90500 203.000
39.92000 192.000
39.93500 200.000
39.95000 184.000
39.96500 192.000
39.98000 200.000
39.99500 198.000
40.01000 209.000
40.02500 189.000
40.04000 172.000
40.05500 180.000
40.07000 212.000
40.08500 199.000
40.10000 205.000
40.11500 204.000
40.13000 200.000
40.14500 192.000
40.16000 216.000
40.17500 219.000
40.19000 201.000
40.20500 197.000
40.22000 209.000
40.23500 204.000
40.25000 193.000
40.26500 190.000
40.28000 182.000
40.29500 201.000
40.31000 193.000
40.32500 190.000
40.34000 214.000
40.35500 189.000
40.37000 190.000
40.38500 198.000
40.40000 213.000
40.41500 191.000
40.43000 195.000
40.44500 181.000
40.46000 178.000
40.47500 186.000
40.49000 175.000
40.50500 175.000
40.52000 207.000
40.53500 224.000
40.55000 202.000
40.56500 198.000
40.58000 184.000
40.59500 205.000
40.61000 194.000
40.62500 195.000
40.64000 206.000
40.65500 215.000
40.67000 205.000
40.68500 212.000
40.70000 212.000
40.71500 197.000
40.73000 195.000
40.74500 199.000
40.76000 191.000
40.77500 187.000
40.79000 176.000
40.80500 198.000
40.82000 207.000
40.83500 185.000
40.85000 199.000
40.86500 196.000
40.88000 219.000
40.89500 195.000
40.91000 203.000
40.92500 205.000
40.94000 189.000
40.95500 195.000
40.97000 209.000
40.98500 202.000
41.00000 199.000
41.01500 171.000
41.03000 194.000
41.04500 194.000
41.06000 186.000
41.07500 183.000
41.09000 206.000
41.10500 187.000
41.12000 170.000
41.13500 187.000
41.15000 187.000
41.16500 208.000
41.18000 201.000
41.19500 188.000
41.21000 182.000
41.22500 197.000
41.24000 191.000
41.25500 176.000
41.27000 188.000
41.28500 190.000
41.30000 185.000
41.31500 203.000
41.33000 196.000
41.34500 186.000
41.36000 182.000
41.37500 193.000
41.39000 191.000
41.40500 199.000
41.42000 189.000
41.43500 211.000
41.45000 189.000
41.46500 195.000
41.48000 191.000
41.49500 215.000
41.51000 204.000
41.52500 195.000
41.54000 199.000
41.55500 168.000
41.57000 196.000
41.58500 195.000
41.60000 190.000
41.61500 196.000
41.63000 204.000
41.64500 201.000
41.66000 189.000
41.67500 198.000
41.69000 193.000
41.70500 211.000
41.72000 204.000
41.73500 199.000
41.75000 188.000
41.76500 192.000
41.78000 211.000
41.79500 209.000
41.81000 186.000
41.82500 202.000
41.84000 204.000
41.85500 211.000
41.87000 187.000
41.88500 186.000
41.90000 192.000
41.91500 203.000
41.93000 190.000
41.94500 185.000
41.96000 213.000
41.97500 208.000
41.99000 191.000
42.00500 186.000
42.02000 196.000
42.03500 182.000
42.05000 179.000
42.06500 171.000
42.08000 186.000
42.09500 214.000
42.11000 206.000
42.12500 202.000
42.14000 186.000
42.15500 181.000
42.17000 197.000
42.18500 189.000
42.20000 165.000
42.21500 180.000
42.23000 203.000
42.24500 176.000
42.26000 169.000
42.27500 180.000
42.29000 193.000
42.30500 199.000
42.32000 185.000
42.33500 173.000
42.35000 181.000
42.36500 174.000
42.38000 182.000
42.39500 185.000
42.41000 188.000
42.42500 188.000
42.44000 208.000
42.45500 206.000
42.47000 189.000
42.48500 202.000
42.50000 192.000
42.51500 210.000
42.53000 213.000
42.54500 203.000
42.56000 204.000
42.57500 190.000
42.59000 213.000
42.60500 194.000
42.62000 194.000
42.63500 180.000
42.65000 182.000
42.66500 203.000
42.68000 192.000
42.69500 211.000
42.71000 198.000
42.72500 208.000
42.74000 188.000
42.75500 190.000
42.77000 208.000
42.78500 198.000
42.80000 195.000
42.81500 172.000
42.83000 201.000
42.84500 207.000
42.86000 185.000
42.87500 187.000
42.89000 205.000
42.90500 199.000
42.92000 186.000
42.93500 183.000
42.95000 192.000
42.96500 211.000
42.98000 204.000
42.99500 180.000
43.01000 197.000
43.02500 184.000
43.04000 192.000
43.05500 189.000
43.07000 182.000
43.08500 168.000
43.10000 193.000
43.11500 218.000
43.13000 185.000
43.14500 190.000
43.16000 191.000
43.17500 191.000
43.19000 203.000
43.20500 174.000
43.22000 184.000
43.23500 187.000
43.25000 187.000
43.26500 202.000
43.28000 178.000
43.29500 204.000
43.31000 185.000
43.32500 195.000
43.34000 197.000
43.35500 199.000
43.37000 190.000
43.38500 197.000
43.40000 185.000
43.41500 193.000
43.43000 176.000
43.44500 190.000
43.46000 192.000
43.47500 187.000
43.49000 186.000
43.50500 195.000
43.52000 207.000
43.53500 200.000
43.55000 188.000
43.56500 177.000
43.58000 165.000
43.59500 175.000
43.61000 188.000
43.62500 208.000
43.64000 194.000
43.65500 188.000
43.67000 201.000
43.68500 190.000
43.70000 199.000
43.71500 182.000
43.73000 182.000
43.74500 187.000
43.76000 188.000
43.77500 191.000
43.79000 203.000
43.80500 183.000
43.82000 185.000
43.83500 178.000
43.85000 195.000
43.86500 171.000
43.88000 159.000
43.89500 171.000
43.91000 174.000
43.92500 161.000
43.94000 189.000
43.95500 195.000
43.97000 200.000
43.98500 195.000
44.00000 181.000
44.01500 181.000
44.03000 201.000
44.04500 187.000
44.06000 188.000
44.07500 190.000
44.09000 189.000
44.10500 194.000
44.12000 176.000
44.13500 180.000
44.15000 182.000
44.16500 188.000
44.18000 188.000
44.19500 201.000
44.21000 190.000
44.22500 178.000
44.24000 170.000
44.25500 191.000
44.27000 204.000
44.28500 191.000
44.30000 179.000
44.31500 169.000
44.33000 171.000
44.34500 172.000
44.36000 185.000
44.37500 165.000
44.39000 187.000
44.40500 218.000
44.42000 199.000
44.43500 183.000
44.45000 214.000
44.46500 172.000
44.48000 189.000
44.49500 217.000
44.51000 201.000
44.52500 200.000
44.54000 178.000
44.55500 166.000
44.57000 171.000
44.58500 192.000
44.60000 189.000
44.61500 182.000
44.63000 185.000
44.64500 195.000
44.66000 193.000
44.67500 196.000
44.69000 178.000
44.70500 183.000
44.72000 183.000
44.73500 180.000
44.75000 181.000
44.76500 181.000
44.78000 194.000
44.79500 177.000
44.81000 171.000
44.82500 180.000
44.84000 177.000
44.85500 182.000
44.87000 172.000
44.88500 181.000
44.90000 198.000
44.91500 183.000
44.93000 184.000
44.94500 177.000
44.96000 191.000
44.97500 183.000
44.99000 186.000
45.00500 174.000
45.02000 195.000
45.03500 172.000
45.05000 172.000
45.06500 173.000
45.08000 180.000
45.09500 181.000
45.11000 170.000
45.12500 177.000
45.14000 175.000
45.15500 169.000
45.17000 174.000
45.18500 166.000
45.20000 189.000
45.21500 198.000
45.23000 182.000
45.24500 176.000
45.26000 181.000
45.27500 169.000
45.29000 161.000
45.30500 165.000
45.32000 157.000
45.33500 158.000
45.35000 168.000
45.36500 167.000
45.38000 179.000
45.39500 167.000
45.41000 178.000
45.42500 184.000
45.44000 202.000
45.45500 172.000
45.47000 159.000
45.48500 189.000
45.50000 171.000
45.51500 180.000
45.53000 176.000
45.54500 183.000
45.56000 174.000
45.57500 177.000
45.59000 183.000
45.60500 177.000
45.62000 174.000
45.63500 178.000
45.65000 179.000
45.66500 180.000
45.68000 166.000
45.69500 200.000
45.71000 179.000
45.72500 188.000
45.74000 168.000
45.75500 173.000
45.77000 178.000
45.78500 190.000
45.80000 181.000
45.81500 185.000
45.83000 176.000
45.84500 161.000
45.86000 160.000
45.87500 170.000
45.89000 178.000
45.90500 175.000
45.92000 168.000
45.93500 167.000
45.95000 164.000
45.96500 168.000
45.98000 164.000
45.99500 180.000
46.01000 199.000
46.02500 176.000
46.04000 163.000
46.05500 173.000
46.07000 160.000
46.08500 172.000
46.10000 180.000
46.11500 161.000
46.13000 190.000
46.14500 173.000
46.16000 153.000
46.17500 171.000
46.19000 187.000
46.20500 181.000
46.22000 174.000
46.23500 169.000
46.25000 158.000
46.26500 185.000
46.28000 163.000
46.29500 156.000
46.31000 158.000
46.32500 176.000
46.34000 179.000
46.35500 167.000
46.37000 173.000
46.38500 175.000
46.40000 175.000
46.41500 182.000
46.43000 172.000
46.44500 169.000
46.46000 149.000
46.47500 157.000
46.49000 165.000
46.50500 184.000
46.52000 171.000
46.53500 180.000
46.55000 168.000
46.56500 163.000
46.58000 156.000
46.59500 164.000
46.61000 161.000
46.62500 179.000
46.64000 172.000
46.65500 153.000
46.67000 154.000
46.68500 169.000
46.70000 170.000
46.71500 172.000
46.73000 176.000
46.74500 166.000
46.76000 169.000
46.77500 166.000
46.79000 166.000
46.80500 146.000
46.82000 163.000
46.83500 167.000
46.85000 173.000
46.86500 196.000
46.88000 188.000
46.89500 181.000
46.91000 175.000
46.92500 162.000
46.94000 164.000
46.95500 177.000
46.97000 175.000
46.98500 180.000
47.00000 176.000
47.01500 154.000
47.03000 152.000
47.04500 179.000
47.06000 175.000
47.07500 162.000
47.09000 179.000
47.10500 156.000
47.12000 165.000
47.13500 166.000
47.15000 155.000
47.16500 171.000
47.18000 157.000
47.19500 167.000
47.21000 188.000
47.22500 172.000
47.24000 162.000
47.25500 144.000
47.27000 167.000
47.28500 160.000
47.30000 172.000
47.31500 144.000
47.33000 155.000
47.34500 167.000
47.36000 180.000
47.37500 166.000
47.39000 155.000
47.40500 164.000
47.42000 156.000
47.43500 170.000
47.45000 185.000
47.46500 169.000
47.48000 155.000
47.49500 161.000
47.51000 151.000
47.52500 168.000
47.54000 140.000
47.55500 151.000
47.57000 140.000
47.58500 165.000
47.60000 164.000
47.61500 170.000
47.63000 174.000
47.64500 160.000
47.66000 161.000
47.67500 152.000
47.69000 167.000
47.70500 161.000
47.72000 156.000
47.73500 172.000
47.75000 152.000
47.76500 146.000
47.78000 166.000
47.79500 175.000
47.81000 158.000
47.82500 155.000
47.84000 176.000
47.85500 157.000
47.87000 169.000
47.88500 157.000
47.90000 164.000
47.91500 152.000
47.93000 145.000
47.94500 143.000
47.96000 147.000
47.97500 165.000
47.99000 165.000
48.00500 181.000
48.02000 167.000
48.03500 154.000
48.05000 144.000
48.06500 151.000
48.08000 159.000
48.09500 163.000
48.11000 146.000
48.12500 151.000
48.14000 154.000
48.15500 169.000
48.17000 155.000
48.18500 157.000
48.20000 160.000
48.21500 150.000
48.23000 137.000
48.24500 147.000
48.26000 133.000
48.27500 153.000
48.29000 152.000
48.30500 150.000
48.32000 153.000
48.33500 154.000
48.35000 159.000
48.36500 146.000
48.38000 162.000
48.39500 145.000
48.41000 152.000
48.42500 153.000
48.44000 141.000
48.45500 154.000
48.47000 142.000
48.48500 154.000
48.50000 156.000
48.51500 130.000
48.53000 135.000
48.54500 140.000
48.56000 161.000
48.57500 165.000
48.59000 153.000
48.60500 145.000
48.62000 142.000
48.63500 154.000
48.65000 152.000
48.66500 154.000
48.68000 165.000
48.69500 146.000
48.71000 156.000
48.72500 144.000
48.74000 168.000
48.75500 148.000
48.77000 160.000
48.78500 171.000
48.80000 183.000
48.81500 152.000
48.83000 174.000
48.84500 176.000
48.86000 164.000
48.87500 171.000
48.89000 165.000
48.90500 164.000
48.92000 144.000
48.93500 159.000
48.95000 163.000
48.96500 146.000
48.98000 130.000
48.99500 143.000
49.01000 131.000
49.02500 144.000
49.04000 138.000
49.05500 152.000
49.07000 148.000
49.08500 142.000
49.10000 147.000
49.11500 150.000
49.13000 148.000
49.14500 167.000
49.16000 160.000
49.17500 147.000
49.19000 152.000
49.20500 161.000
49.22000 148.000
49.23500 136.000
49.25000 152.000
49.26500 140.000
49.28000 143.000
49.29500 146.000
49.31000 169.000
49.32500 161.000
49.34000 149.000
49.35500 171.000
49.37000 154.000
49.38500 146.000
49.40000 136.000
49.41500 142.000
49.43000 147.000
49.44500 142.000
49.46000 153.000
49.47500 147.000
49.49000 160.000
49.50500 144.000
49.52000 152.000
49.53500 159.000
49.55000 149.000
49.56500 151.000
49.58000 152.000
49.59500 156.000
49.61000 123.000
49.62500 160.000
49.64000 144.000
49.65500 151.000
49.67000 127.000
49.68500 129.000
49.70000 130.000
49.71500 157.000
49.73000 147.000
49.74500 136.000
49.76000 139.000
49.77500 158.000
49.79000 162.000
49.80500 156.000
49.82000 152.000
49.83500 146.000
49.85000 145.000
49.86500 155.000
49.88000 156.000
49.89500 153.000
49.91000 140.000
49.92500 145.000
49.94000 155.000
49.95500 153.000
49.97000 154.000
49.98500 144.000
50.00000 145.000
50.01500 140.000
50.03000 149.000
50.04500 136.000
50.06000 143.000
50.07500 162.000
50.09000 151.000
50.10500 141.000
50.12000 135.000
50.13500 144.000
50.15000 146.000
50.16500 134.000
50.18000 156.000
50.19500 148.000
50.21000 154.000
50.22500 154.000
50.24000 149.000
50.25500 135.000
50.27000 139.000
50.28500 150.000
50.30000 150.000
50.31500 147.000
50.33000 135.000
50.34500 144.000
50.36000 140.000
50.37500 134.000
50.39000 137.000
50.40500 149.000
50.42000 153.000
50.43500 134.000
50.45000 130.000
50.46500 128.000
50.48000 130.000
50.49500 154.000
50.51000 135.000
50.52500 130.000
50.54000 126.000
50.55500 130.000
50.57000 136.000
50.58500 126.000
50.60000 156.000
50.61500 135.000
50.63000 126.000
50.64500 138.000
50.66000 148.000
50.67500 144.000
50.69000 141.000
50.70500 135.000
50.72000 157.000
50.73500 142.000
50.75000 142.000
50.76500 135.000
50.78000 128.000
50.79500 157.000
50.81000 153.000
50.82500 157.000
50.84000 142.000
50.85500 132.000
50.87000 155.000
50.88500 148.000
50.90000 137.000
50.91500 125.000
50.93000 146.000
50.94500 158.000
50.96000 155.000
50.97500 143.000
50.99000 148.000
51.00500 131.000
51.02000 139.000
51.03500 141.000
51.05000 136.000
51.06500 147.000
51.08000 150.000
51.09500 134.000
51.11000 145.000
51.12500 143.000
51.14000 133.000
51.15500 131.000
51.17000 133.000
51.18500 144.000
51.20000 143.000
51.21500 141.000
51.23000 123.000
51.24500 112.000
51.26000 129.000
51.27500 152.000
51.29000 163.000
51.30500 150.000
51.32000 129.000
51.33500 152.000
51.35000 140.000
51.36500 133.000
51.38000 143.000
51.39500 157.000
51.41000 153.000
51.42500 144.000
51.44000 139.000
51.45500 138.000
51.47000 129.000
51.48500 131.000
51.50000 163.000
51.51500 138.000
51.53000 136.000
51.54500 138.000
51.56000 145.000
51.57500 142.000
51.59000 151.000
51.60500 125.000
51.62000 119.000
51.63500 133.000
51.65000 129.000
51.66500 129.000
51.68000 142.000
51.69500 149.000
51.71000 141.000
51.72500 128.000
51.74000 131.000
51.75500 143.000
51.77000 147.000
51.78500 145.000
51.80000 131.000
51.81500 136.000
51.83000 120.000
51.84500 135.000
51.86000 140.000
51.87500 134.000
51.89000 137.000
51.90500 147.000
51.92000 155.000
51.93500 148.000
51.95000 154.000
51.96500 136.000
51.98000 141.000
51.99500 130.000
52.01000 124.000
52.02500 128.000
52.04000 141.000
52.05500 141.000
52.07000 154.000
52.08500 136.000
52.10000 129.000
52.11500 135.000
52.13000 145.000
52.14500 123.000
52.16000 146.000
52.17500 128.000
52.19000 121.000
52.20500 130.000
52.22000 144.000
52.23500 148.000
52.25000 155.000
52.26500 144.000
52.28000 147.000
52.29500 141.000
52.31000 120.000
52.32500 121.000
52.34000 131.000
52.35500 123.000
52.37000 118.000
52.38500 130.000
52.40000 130.000
52.41500 129.000
52.43000 131.000
52.44500 140.000
52.46000 143.000
52.47500 151.000
52.49000 134.000
52.50500 135.000
52.52000 144.000
52.53500 134.000
52.55000 118.000
52.56500 131.000
52.58000 128.000
52.59500 120.000
52.61000 136.000
52.62500 127.000
52.64000 140.000
52.65500 131.000
52.67000 130.000
52.68500 130.000
52.70000 133.000
52.71500 133.000
52.73000 125.000
52.74500 128.000
52.76000 136.000
52.77500 121.000
52.79000 126.000
52.80500 156.000
52.82000 153.000
52.83500 142.000
52.85000 144.000
52.86500 138.000
52.88000 131.000
52.89500 124.000
52.91000 135.000
52.92500 137.000
52.94000 131.000
52.95500 131.000
52.97000 120.000
52.98500 120.000
53.00000 126.000
53.01500 123.000
53.03000 124.000
53.04500 141.000
53.06000 131.000
53.07500 127.000
53.09000 129.000
53.10500 121.000
53.12000 124.000
53.13500 147.000
53.15000 142.000
53.16500 130.000
53.18000 126.000
53.19500 132.000
53.21000 133.000
53.22500 134.000
53.24000 130.000
53.25500 135.000
53.27000 126.000
53.28500 114.000
53.30000 131.000
53.31500 120.000
53.33000 110.000
53.34500 138.000
53.36000 134.000
53.37500 145.000
53.39000 114.000
53.40500 129.000
53.42000 141.000
53.43500 151.000
53.45000 120.000
53.46500 139.000
53.48000 140.000
53.49500 139.000
53.51000 134.000
53.52500 142.000
53.54000 130.000
53.55500 132.000
53.57000 141.000
53.58500 125.000
53.60000 110.000
53.61500 133.000
53.63000 127.000
53.64500 134.000
53.66000 148.000
53.67500 149.000
53.69000 146.000
53.70500 120.000
53.72000 119.000
53.73500 130.000
53.75000 121.000
53.76500 125.000
53.78000 130.000
53.79500 118.000
53.81000 123.000
53.82500 123.000
53.84000 141.000
53.85500 127.000
53.87000 146.000
53.88500 138.000
53.90000 118.000
53.91500 140.000
53.93000 140.000
53.94500 116.000
53.96000 139.000
53.97500 134.000
53.99000 126.000
54.00500 132.000
54.02000 140.000
54.03500 147.000
54.05000 120.000
54.06500 143.000
54.08000 141.000
54.09500 145.000
54.11000 133.000
54.12500 112.000
54.14000 141.000
54.15500 128.000
54.17000 135.000
54.18500 137.000
54.20000 144.000
54.21500 121.000
54.23000 132.000
54.24500 133.000
54.26000 123.000
54.27500 111.000
54.29000 134.000
54.30500 130.000
54.32000 121.000
54.33500 117.000
54.35000 132.000
54.36500 140.000
54.38000 128.000
54.39500 139.000
54.41000 125.000
54.42500 120.000
54.44000 120.000
54.45500 120.000
54.47000 133.000
54.48500 129.000
54.50000 134.000
54.51500 128.000
54.53000 138.000
54.54500 127.000
54.56000 133.000
54.57500 123.000
54.59000 141.000
54.60500 120.000
54.62000 113.000
54.63500 127.000
54.65000 124.000
54.66500 120.000
54.68000 128.000
54.69500 125.000
54.71000 119.000
54.72500 131.000
54.74000 123.000
54.75500 136.000
54.77000 144.000
54.78500 123.000
54.80000 122.000
54.81500 128.000
54.83000 120.000
54.84500 129.000
54.86000 125.000
54.87500 123.000
54.89000 125.000
54.90500 110.000
54.92000 117.000
54.93500 135.000
54.95000 122.000
54.96500 116.000
54.98000 116.000
54.99500 114.000
55.01000 125.000
55.02500 137.000
55.04000 126.000
55.05500 134.000
55.07000 138.000
55.08500 126.000
55.10000 133.000
55.11500 137.000
55.13000 133.000
55.14500 135.000
55.16000 137.000
55.17500 125.000
55.19000 131.000
55.20500 121.000
55.22000 130.000
55.23500 131.000
55.25000 133.000
55.26500 139.000
55.28000 114.000
55.29500 125.000
55.31000 122.000
55.32500 129.000
55.34000 114.000
55.35500 127.000
55.37000 132.000
55.38500 134.000
55.40000 139.000
55.41500 131.000
55.43000 112.000
55.44500 115.000
55.46000 129.000
55.47500 126.000
55.49000 120.000
55.50500 120.000
55.52000 131.000
55.53500 129.000
55.55000 123.000
55.56500 140.000
55.58000 129.000
55.59500 115.000
55.61000 131.000
55.62500 108.000
55.64000 104.000
55.65500 114.000
55.67000 116.000
55.68500 118.000
55.70000 121.000
55.71500 125.000
55.73000 131.000
55.74500 139.000
55.76000 121.000
55.77500 123.000
55.79000 131.000
55.80500 128.000
55.82000 133.000
55.83500 119.000
55.85000 127.000
55.86500 99.000
55.88000 125.000
55.89500 122.000
55.91000 124.000
55.92500 114.000
55.94000 125.000
55.95500 120.000
55.97000 113.000
55.98500 127.000
56.00000 125.000
56.01500 134.000
56.03000 124.000
56.04500 124.000
56.06000 103.000
56.07500 116.000
56.09000 128.000
56.10500 132.000
56.12000 129.000
56.13500 135.000
56.15000 144.000
56.16500 117.000
56.18000 130.000
56.19500 115.000
56.21000 111.000
56.22500 136.000
56.24000 129.000
56.25500 137.000
56.27000 120.000
56.28500 134.000
56.30000 135.000
56.31500 140.000
56.33000 132.000
56.34500 132.000
56.36000 108.000
56.37500 114.000
56.39000 119.000
56.40500 131.000
56.42000 141.000
56.43500 132.000
56.45000 141.000
56.46500 121.000
56.48000 129.000
56.49500 133.000
56.51000 125.000
56.52500 127.000
56.54000 125.000
56.55500 132.000
56.57000 116.000
56.58500 119.000
56.60000 118.000
56.61500 142.000
56.63000 134.000
56.64500 114.000
56.66000 114.000
56.67500 107.000
56.69000 128.000
56.70500 122.000
56.72000 124.000
56.73500 122.000
56.75000 121.000
56.76500 126.000
56.78000 114.000
56.79500 112.000
56.81000 116.000
56.82500 135.000
56.84000 131.000
56.85500 119.000
56.87000 118.000
56.88500 121.000
56.90000 138.000
56.91500 113.000
56.93000 105.000
56.94500 121.000
56.96000 119.000
56.97500 127.000
56.99000 124.000
57.00500 130.000
57.02000 119.000
57.03500 118.000
57.05000 109.000
57.06500 111.000
57.08000 126.000
57.09500 127.000
57.11000 127.000
57.12500 132.000
57.14000 129.000
57.15500 128.000
57.17000 130.000
57.18500 112.000
57.20000 107.000
57.21500 121.000
57.23000 134.000
57.24500 128.000
57.26000 106.000
57.27500 126.000
57.29000 131.000
57.30500 133.000
57.32000 115.000
57.33500 109.000
57.35000 110.000
57.36500 119.000
57.38000 122.000
57.39500 131.000
57.41000 121.000
57.42500 107.000
57.44000 114.000
57.45500 135.000
57.47000 123.000
57.48500 117.000
57.50000 118.000
57.51500 121.000
57.53000 127.000
57.54500 129.000
57.56000 133.000
57.57500 135.000
57.59000 110.000
57.60500 127.000
57.62000 117.000
57.63500 127.000
57.65000 131.000
57.66500 117.000
57.68000 117.000
57.69500 110.000
57.71000 108.000
57.72500 112.000
57.74000 103.000
57.75500 107.000
57.77000 117.000
57.78500 124.000
57.80000 128.000
57.81500 108.000
57.83000 124.000
57.84500 126.000
57.86000 112.000
57.87500 115.000
57.89000 116.000
57.90500 119.000
57.92000 114.000
57.93500 101.000
57.95000 114.000
57.96500 132.000
57.98000 130.000
57.99500 129.000
58.01000 120.000
58.02500 126.000
58.04000 115.000
58.05500 108.000
58.07000 130.000
58.08500 126.000
58.10000 120.000
58.11500 123.000
58.13000 132.000
58.14500 127.000
58.16000 120.000
58.17500 126.000
58.19000 118.000
58.20500 133.000
58.22000 124.000
58.23500 108.000
58.25000 103.000
58.26500 120.000
58.28000 122.000
58.29500 120.000
58.31000 129.000
58.32500 134.000
58.34000 106.000
58.35500 108.000
58.37000 110.000
58.38500 101.000
58.40000 103.000
58.41500 113.000
58.43000 118.000
58.44500 111.000
58.46000 116.000
58.47500 120.000
58.49000 103.000
58.50500 104.000
58.52000 111.000
58.53500 128.000
58.55000 120.000
58.56500 121.000
58.58000 121.000
58.59500 130.000
58.61000 100.000
58.62500 108.000
58.64000 107.000
58.65500 116.000
58.67000 107.000
58.68500 99.000
58.70000 103.000
58.71500 121.000
58.73000 131.000
58.74500 135.000
58.76000 110.000
58.77500 113.000
58.79000 117.000
58.80500 121.000
58.82000 118.000
58.83500 113.000
58.85000 115.000
58.86500 126.000
58.88000 117.000
58.89500 118.000
58.91000 118.000
58.92500 117.000
58.94000 115.000
58.95500 115.000
58.97000 111.000
58.98500 128.000
59.00000 126.000
59.01500 117.000
59.03000 132.000
59.04500 117.000
59.06000 118.000
59.07500 116.000
59.09000 113.000
59.10500 122.000
59.12000 117.000
59.13500 112.000
59.15000 106.000
59.16500 123.000
59.18000 107.000
59.19500 99.000
59.21000 114.000
59.22500 114.000
59.24000 117.000
59.25500 111.000
59.27000 98.000
59.28500 107.000
59.30000 138.000
59.31500 123.000
59.33000 106.000
59.34500 104.000
59.36000 110.000
59.37500 117.000
59.39000 113.000
59.40500 112.000
59.42000 110.000
59.43500 118.000
59.45000 104.000
59.46500 102.000
59.48000 111.000
59.49500 118.000
59.51000 118.000
59.52500 117.000
59.54000 128.000
59.55500 117.000
59.57000 137.000
59.58500 123.000
59.60000 115.000
59.61500 122.000
59.63000 128.000
59.64500 125.000
59.66000 121.000
59.67500 130.000
59.69000 122.000
59.70500 115.000
59.72000 119.000
59.73500 116.000
59.75000 110.000
59.76500 110.000
59.78000 116.000
59.79500 120.000
59.81000 107.000
59.82500 110.000
59.84000 116.000
59.85500 103.000
59.87000 108.000
59.88500 111.000
59.90000 115.000
59.91500 125.000
59.93000 123.000
59.94500 105.000
59.96000 126.000
59.97500 115.000
59.99000 122.000
60.00500 122.000
60.02000 131.000
60.03500 107.000
60.05000 103.000
60.06500 116.000
60.08000 121.000
60.09500 113.000
60.11000 112.000
60.12500 107.000
60.14000 122.000
60.15500 120.000
60.17000 119.000
60.18500 104.000
60.20000 142.000
60.21500 131.000
60.23000 113.000
60.24500 116.000
60.26000 107.000
60.27500 123.000
60.29000 121.000
60.30500 115.000
60.32000 96.000
60.33500 107.000
60.35000 108.000
60.36500 101.000
60.38000 109.000
60.39500 115.000
60.41000 114.000
60.42500 114.000
60.44000 112.000
60.45500 121.000
60.47000 117.000
60.48500 116.000
60.50000 103.000
60.51500 109.000
60.53000 124.000
60.54500 111.000
60.56000 114.000
60.57500 108.000
60.59000 105.000
60.60500 102.000
60.62000 116.000
60.63500 116.000
60.65000 127.000
60.66500 116.000
60.68000 106.000
60.69500 106.000
60.71000 112.000
60.72500 130.000
60.74000 118.000
60.75500 120.000
60.77000 114.000
60.78500 120.000
60.80000 107.000
60.81500 114.000
60.83000 119.000
60.84500 110.000
60.86000 92.000
60.87500 119.000
60.89000 123.000
60.90500 120.000
60.92000 101.000
60.93500 98.000
60.95000 106.000
60.96500 105.000
60.98000 115.000
60.99500 105.000
61.01000 110.000
61.02500 106.000
61.04000 112.000
61.05500 125.000
61.07000 109.000
61.08500 112.000
61.10000 124.000
61.11500 129.000
61.13000 112.000
61.14500 109.000
61.16000 104.000
61.17500 113.000
61.19000 126.000
61.20500 104.000
61.22000 99.000
61.23500 119.000
61.25000 104.000
61.26500 96.000
61.28000 111.000
61.29500 124.000
61.31000 98.000
61.32500 101.000
61.34000 117.000
61.35500 116.000
61.37000 110.000
61.38500 125.000
61.40000 117.000
61.41500 135.000
61.43000 128.000
61.44500 103.000
61.46000 111.000
61.47500 114.000
61.49000 114.000
61.50500 109.000
61.52000 103.000
61.53500 106.000
61.55000 115.000
61.56500 96.000
61.58000 109.000
61.59500 127.000
61.61000 109.000
61.62500 115.000
61.64000 118.000
61.65500 117.000
61.67000 114.000
61.68500 124.000
61.70000 104.000
61.71500 104.000
61.73000 103.000
61.74500 105.000
61.76000 107.000
61.77500 99.000
61.79000 98.000
61.80500 101.000
61.82000 103.000
61.83500 110.000
61.85000 99.000
61.86500 119.000
61.88000 108.000
61.89500 114.000
61.91000 108.000
61.92500 121.000
61.94000 126.000
61.95500 114.000
61.97000 113.000
61.98500 117.000
