2.00000 4.000
2.01500 5.000
2.03000 4.000
2.04500 2.000
2.06000 2.000
2.07500 4.000
2.09000 2.000
2.10500 3.000
2.12000 3.000
2.13500 6.000
2.15000 4.000
2.16500 2.000
2.18000 3.000
2.19500 6.000
2.21000 9.000
2.22500 5.000
2.24000 4.000
2.25500 4.000
2.27000 6.000
2.28500 5.000
2.30000 4.000
2.31500 6.000
2.33000 7.000
2.34500 8.000
2.36000 4.000
2.37500 4.000
2.39000 4.000
2.40500 5.000
2.42000 6.000
2.43500 6.000
2.45000 6.000
2.46500 4.000
2.48000 2.000
2.49500 6.000
2.51000 5.000
2.52500 4.000
2.54000 5.000
2.55500 4.000
2.57000 3.000
2.58500 3.000
2.60000 6.000
2.61500 1.000
2.63000 1.000
2.64500 4.000
2.66000 7.000
2.67500 5.000
2.69000 5.000
2.70500 2.000
2.72000 5.000
2.73500 5.000
2.75000 3.000
2.76500 4.000
2.78000 5.000
2.79500 3.000
2.81000 4.000
2.82500 4.000
2.84000 3.000
2.85500 6.000
2.87000 3.000
2.88500 4.000
2.90000 7.000
2.91500 6.000
2.93000 6.000
2.94500 6.000
2.96000 7.000
2.97500 8.000
2.99000 10.000
3.00500 5.000
3.02000 4.000
3.03500 4.000
3.05000 4.000
3.06500 3.000
3.08000 7.000
3.09500 6.000
3.11000 7.000
3.12500 7.000
3.14000 7.000
3.15500 7.000
3.17000 16.000
3.18500 20.000
3.20000 33.000
3.21500 38.000
3.23000 61.000
3.24500 99.000
3.26000 153.000
3.27500 212.000
3.29000 274.000
3.30500 366.000
3.32000 450.000
3.33500 478.000
3.35000 531.000
3.36500 537.000
3.38000 525.000
3.39500 501.000
3.41000 515.000
3.42500 506.000
3.44000 519.000
3.45500 492.000
3.47000 514.000
3.48500 476.000
3.50000 449.000
3.51500 468.000
3.53000 455.000
3.54500 477.000
3.56000 478.000
3.57500 489.000
3.59000 508.000
3.60500 474.000
3.62000 487.000
3.63500 483.000
3.65000 474.000
3.66500 459.000
3.68000 484.000
3.69500 481.000
3.71000 469.000
3.72500 469.000
3.74000 471.000
3.75500 474.000
3.77000 436.000
3.78500 425.000
3.80000 409.000
3.81500 436.000
3.83000 435.000
3.84500 453.000
3.86000 443.000
3.87500 431.000
3.89000 440.000
3.90500 444.000
3.92000 432.000
3.93500 462.000
3.95000 437.000
3.96500 412.000
3.98000 424.000
3.99500 433.000
4.01000 445.000
4.02500 433.000
4.04000 427.000
4.05500 401.000
4.07000 420.000
4.08500 425.000
4.10000 408.000
4.11500 431.000
4.13000 401.000
4.14500 402.000
4.16000 411.000
4.17500 406.000
4.19000 410.000
4.20500 404.000
4.22000 400.000
4.23500 408.000
4.25000 411.000
4.26500 464.000
4.28000 416.000
4.29500 389.000
4.31000 396.000
4.32500 411.000
4.34000 410.000
4.35500 395.000
4.37000 390.000
4.38500 406.000
4.40000 422.000
4.41500 392.000
4.43000 390.000
4.44500 369.000
4.46000 399.000
4.47500 398.000
4.49000 438.000
4.50500 430.000
4.52000 384.000
4.53500 416.000
4.55000 393.000
4.56500 394.000
4.58000 420.000
4.59500 419.000
4.61000 404.000
4.62500 425.000
4.64000 413.000
4.65500 394.000
4.67000 437.000
4.68500 400.000
4.70000 409.000
4.71500 423.000
4.73000 412.000
4.74500 405.000
4.76000 409.000
4.77500 383.000
4.79000 417.000
4.80500 399.000
4.82000 408.000
4.83500 467.000
4.85000 449.000
4.86500 390.000
4.88000 385.000
4.89500 389.000
4.91000 422.000
4.92500 420.000
4.94000 402.000
4.95500 416.000
4.97000 417.000
4.98500 404.000
5.00000 421.000
5.01500 422.000
5.03000 436.000
5.04500 415.000
5.06000 418.000
5.07500 401.000
5.09000 410.000
5.10500 383.000
5.12000 396.000
5.13500 433.000
5.15000 429.000
5.16500 451.000
5.18000 447.000
5.19500 400.000
5.21000 408.000
5.22500 416.000
5.24000 433.000
5.25500 465.000
5.27000 431.000
5.28500 420.000
5.30000 425.000
5.31500 459.000
5.33000 443.000
5.34500 456.000
5.36000 455.000
5.37500 440.000
5.39000 494.000
5.40500 431.000
5.42000 425.000
5.43500 493.000
5.45000 482.000
5.46500 466.000
5.48000 450.000
5.49500 495.000
5.51000 500.000
5.52500 478.000
5.54000 434.000
5.55500 491.000
5.57000 495.000
5.58500 526.000
5.60000 519.000
5.61500 519.000
5.63000 503.000
5.64500 486.000
5.66000 522.000
5.67500 544.000
5.69000 542.000
5.70500 546.000
5.72000 562.000
5.73500 586.000
5.75000 567.000
5.76500 623.000
5.78000 609.000
5.79500 608.000
5.81000 656.000
5.82500 681.000
5.84000 684.000
5.85500 728.000
5.87000 702.000
5.88500 736.000
5.90000 814.000
5.91500 839.000
5.93000 853.000
5.94500 822.000
5.96000 873.000
5.97500 924.000
5.99000 969.000
6.00500 973.000
6.02000 1030.000
6.03500 1054.000
6.05000 1074.000
6.06500 1180.000
6.08000 1155.000
6.09500 1198.000
6.11000 1278.000
6.12500 1254.000
6.14000 1297.000
6.15500 1368.000
6.17000 1398.000
6.18500 1376.000
6.20000 1403.000
6.21500 1474.000
6.23000 1455.000
6.24500 1484.000
6.26000 1387.000
6.27500 1387.000
6.29000 1317.000
6.30500 1349.000
6.32000 1244.000
6.33500 1208.000
6.35000 1116.000
6.36500 1104.000
6.38000 1055.000
6.39500 1005.000
6.41000 962.000
6.42500 895.000
6.44000 836.000
6.45500 820.000
6.47000 750.000
6.48500 739.000
6.50000 696.000
6.51500 638.000
6.53000 617.000
6.54500 621.000
6.56000 624.000
6.57500 579.000
6.59000 537.000
6.60500 565.000
6.62000 569.000
6.63500 566.000
6.65000 549.000
6.66500 524.000
6.68000 526.000
6.69500 515.000
6.71000 497.000
6.72500 503.000
6.74000 483.000
6.75500 521.000
6.77000 501.000
6.78500 495.000
6.80000 480.000
6.81500 504.000
6.83000 444.000
6.84500 486.000
6.86000 517.000
6.87500 475.000
6.89000 468.000
6.90500 470.000
6.92000 468.000
6.93500 492.000
6.95000 475.000
6.96500 465.000
6.98000 448.000
6.99500 446.000
7.01000 429.000
7.02500 473.000
7.04000 469.000
7.05500 474.000
7.07000 457.000
7.08500 473.000
7.10000 451.000
7.11500 446.000
7.13000 432.000
7.14500 438.000
7.16000 452.000
7.17500 479.000
7.19000 494.000
7.20500 469.000
7.22000 457.000
7.23500 445.000
7.25000 435.000
7.26500 433.000
7.28000 434.000
7.29500 470.000
7.31000 436.000
7.32500 447.000
7.34000 449.000
7.35500 446.000
7.37000 441.000
7.38500 452.000
7.40000 468.000
7.41500 429.000
7.43000 435.000
7.44500 452.000
7.46000 482.000
7.47500 468.000
7.49000 464.000
7.50500 452.000
7.52000 441.000
7.53500 458.000
7.55000 424.000
7.56500 440.000
7.58000 455.000
7.59500 470.000
7.61000 456.000
7.62500 449.000
7.64000 468.000
7.65500 491.000
7.67000 460.000
7.68500 480.000
7.70000 434.000
7.71500 478.000
7.73000 477.000
7.74500 467.000
7.76000 457.000
7.77500 442.000
7.79000 457.000
7.80500 446.000
7.82000 474.000
7.83500 496.000
7.85000 477.000
7.86500 475.000
7.88000 462.000
7.89500 491.000
7.91000 482.000
7.92500 476.000
7.94000 510.000
7.95500 497.000
7.97000 483.000
7.98500 490.000
8.00000 478.000
8.01500 497.000
8.03000 485.000
8.04500 486.000
8.06000 479.000
8.07500 510.000
8.09000 488.000
8.10500 496.000
8.12000 522.000
8.13500 514.000
8.15000 533.000
8.16500 533.000
8.18000 517.000
8.19500 513.000
8.21000 521.000
8.22500 528.000
8.24000 527.000
8.25500 550.000
8.27000 573.000
8.28500 543.000
8.30000 565.000
8.31500 619.000
8.33000 583.000
8.34500 573.000
8.36000 560.000
8.37500 584.000
8.39000 606.000
8.40500 599.000
8.42000 611.000
8.43500 654.000
8.45000 623.000
8.46500 619.000
8.48000 642.000
8.49500 621.000
8.51000 661.000
8.52500 680.000
8.54000 701.000
8.55500 691.000
8.57000 739.000
8.58500 733.000
8.60000 746.000
8.61500 761.000
8.63000 757.000
8.64500 733.000
8.66000 766.000
8.67500 786.000
8.69000 723.000
8.70500 763.000
8.72000 776.000
8.73500 739.000
8.75000 772.000
8.76500 771.000
8.78000 784.000
8.79500 758.000
8.81000 724.000
8.82500 749.000
8.84000 752.000
8.85500 720.000
8.87000 734.000
8.88500 741.000
8.90000 750.000
8.91500 712.000
8.93000 728.000
8.94500 662.000
8.96000 673.000
8.97500 663.000
8.99000 619.000
9.00500 623.000
9.02000 633.000
9.03500 616.000
9.05000 576.000
9.06500 577.000
9.08000 573.000
9.09500 555.000
9.11000 588.000
9.12500 560.000
9.14000 554.000
9.15500 558.000
9.17000 606.000
9.18500 549.000
9.20000 558.000
9.21500 551.000
9.23000 538.000
9.24500 538.000
9.26000 567.000
9.27500 582.000
9.29000 559.000
9.30500 548.000
9.32000 544.000
9.33500 584.000
9.35000 541.000
9.36500 536.000
9.38000 551.000
9.39500 531.000
9.41000 505.000
9.42500 511.000
9.44000 570.000
9.45500 579.000
9.47000 551.000
9.48500 550.000
9.50000 598.000
9.51500 598.000
9.53000 595.000
9.54500 612.000
9.56000 630.000
9.57500 634.000
9.59000 601.000
9.60500 608.000
9.62000 645.000
9.63500 645.000
9.65000 632.000
9.66500 674.000
9.68000 744.000
9.69500 734.000
9.71000 714.000
9.72500 701.000
9.74000 739.000
9.75500 777.000
9.77000 772.000
9.78500 793.000
9.80000 809.000
9.81500 850.000
9.83000 802.000
9.84500 863.000
9.86000 891.000
9.87500 858.000
9.89000 863.000
9.90500 879.000
9.92000 891.000
9.93500 888.000
9.95000 908.000
9.96500 998.000
9.98000 1038.000
9.99500 1014.000
10.01000 1009.000
10.02500 1022.000
10.04000 1058.000
10.05500 1079.000
10.07000 1076.000
10.08500 1059.000
10.10000 1030.000
10.11500 1114.000
10.13000 1126.000
10.14500 1117.000
10.16000 1135.000
10.17500 1170.000
10.19000 1143.000
10.20500 1153.000
10.22000 1145.000
10.23500 1165.000
10.25000 1181.000
10.26500 1181.000
10.28000 1181.000
10.29500 1214.000
10.31000 1190.000
10.32500 1165.000
10.34000 1198.000
10.35500 1183.000
10.37000 1117.000
10.38500 1152.000
10.40000 1131.000
10.41500 1125.000
10.43000 1170.000
10.44500 1161.000
10.46000 1187.000
10.47500 1048.000
10.49000 1022.000
10.50500 1021.000
10.52000 1027.000
10.53500 1013.000
10.55000 966.000
10.56500 938.000
10.58000 940.000
10.59500 926.000
10.61000 883.000
10.62500 869.000
10.64000 859.000
10.65500 869.000
10.67000 824.000
10.68500 823.000
10.70000 800.000
10.71500 789.000
10.73000 793.000
10.74500 732.000
10.76000 802.000
10.77500 746.000
10.79000 701.000
10.80500 682.000
10.82000 737.000
10.83500 690.000
10.85000 741.000
10.86500 731.000
10.88000 744.000
10.89500 733.000
10.91000 682.000
10.92500 669.000
10.94000 694.000
10.95500 739.000
10.97000 737.000
10.98500 742.000
11.00000 725.000
11.01500 710.000
11.03000 716.000
11.04500 697.000
11.06000 663.000
11.07500 632.000
11.09000 576.000
11.10500 593.000
11.12000 566.000
11.13500 565.000
11.15000 542.000
11.16500 549.000
11.18000 567.000
11.19500 536.000
11.21000 559.000
11.22500 529.000
11.24000 538.000
11.25500 551.000
11.27000 514.000
11.28500 510.000
11.30000 523.000
11.31500 527.000
11.33000 511.000
11.34500 485.000
11.36000 520.000
11.37500 515.000
11.39000 485.000
11.40500 517.000
11.42000 480.000
11.43500 513.000
11.45000 539.000
11.46500 529.000
11.48000 527.000
11.49500 517.000
11.51000 527.000
11.52500 524.000
11.54000 507.000
11.55500 508.000
11.57000 492.000
11.58500 531.000
11.60000 522.000
11.61500 513.000
11.63000 493.000
11.64500 479.000
11.66000 494.000
11.67500 468.000
11.69000 478.000
11.70500 500.000
11.72000 498.000
11.73500 486.000
11.75000 496.000
11.76500 492.000
11.78000 477.000
11.79500 488.000
11.81000 499.000
11.82500 507.000
11.84000 496.000
11.85500 500.000
11.87000 529.000
11.88500 515.000
11.90000 518.000
11.91500 512.000
11.93000 503.000
11.94500 479.000
11.96000 477.000
11.97500 491.000
11.99000 500.000
12.00500 496.000
12.02000 479.000
12.03500 515.000
12.05000 481.000
12.06500 504.000
12.08000 507.000
12.09500 506.000
12.11000 534.000
12.12500 522.000
12.14000 493.000
12.15500 531.000
12.17000 501.000
12.18500 508.000
12.20000 499.000
12.21500 505.000
12.23000 507.000
12.24500 512.000
12.26000 535.000
12.27500 548.000
12.29000 477.000
12.30500 481.000
12.32000 521.000
12.33500 544.000
12.35000 523.000
12.36500 532.000
12.38000 509.000
12.39500 519.000
12.41000 512.000
12.42500 472.000
12.44000 518.000
12.45500 534.000
12.47000 560.000
12.48500 569.000
12.50000 518.000
12.51500 568.000
12.53000 533.000
12.54500 586.000
12.56000 589.000
12.57500 525.000
12.59000 562.000
12.60500 548.000
12.62000 521.000
12.63500 526.000
12.65000 542.000
12.66500 505.000
12.68000 533.000
12.69500 537.000
12.71000 558.000
12.72500 530.000
12.74000 518.000
12.75500 526.000
12.77000 528.000
12.78500 535.000
12.80000 518.000
12.81500 512.000
12.83000 517.000
12.84500 528.000
12.86000 532.000
12.87500 528.000
12.89000 560.000
12.90500 518.000
12.92000 515.000
12.93500 524.000
12.95000 487.000
12.96500 518.000
12.98000 535.000
12.99500 532.000
13.01000 526.000
13.02500 530.000
13.04000 501.000
13.05500 512.000
13.07000 515.000
13.08500 517.000
13.10000 492.000
13.11500 486.000
13.13000 482.000
13.14500 516.000
13.16000 499.000
13.17500 499.000
13.19000 488.000
13.20500 493.000
13.22000 482.000
13.23500 489.000
13.25000 493.000
13.26500 465.000
13.28000 464.000
13.29500 488.000
13.31000 489.000
13.32500 499.000
13.34000 473.000
13.35500 483.000
13.37000 507.000
13.38500 502.000
13.40000 519.000
13.41500 520.000
13.43000 495.000
13.44500 474.000
13.46000 471.000
13.47500 489.000
13.49000 509.000
13.50500 498.000
13.52000 488.000
13.53500 478.000
13.55000 481.000
13.56500 509.000
13.58000 504.000
13.59500 517.000
13.61000 513.000
13.62500 512.000
13.64000 513.000
13.65500 477.000
13.67000 497.000
13.68500 505.000
13.70000 497.000
13.71500 478.000
13.73000 498.000
13.74500 514.000
13.76000 530.000
13.77500 514.000
13.79000 488.000
13.80500 504.000
13.82000 485.000
13.83500 492.000
13.85000 456.000
13.86500 507.000
13.88000 517.000
13.89500 504.000
13.91000 490.000
13.92500 484.000
13.94000 504.000
13.95500 505.000
13.97000 505.000
13.98500 500.000
14.00000 534.000
14.01500 515.000
14.03000 477.000
14.04500 498.000
14.06000 487.000
14.07500 482.000
14.09000 460.000
14.10500 492.000
14.12000 513.000
14.13500 496.000
14.15000 516.000
14.16500 525.000
14.18000 494.000
14.19500 501.000
14.21000 480.000
14.22500 509.000
14.24000 489.000
14.25500 455.000
14.27000 486.000
14.28500 528.000
14.30000 493.000
14.31500 519.000
14.33000 495.000
14.34500 495.000
14.36000 492.000
14.37500 493.000
14.39000 514.000
14.40500 481.000
14.42000 460.000
14.43500 467.000
14.45000 484.000
14.46500 479.000
14.48000 497.000
14.49500 500.000
14.51000 480.000
14.52500 492.000
14.54000 488.000
14.55500 506.000
14.57000 555.000
14.58500 535.000
14.60000 483.000
14.61500 506.000
14.63000 517.000
14.64500 481.000
14.66000 495.000
14.67500 521.000
14.69000 514.000
14.70500 498.000
14.72000 499.000
14.73500 503.000
14.75000 560.000
14.76500 514.000
14.78000 498.000
14.79500 529.000
14.81000 489.000
14.82500 514.000
14.84000 489.000
14.85500 545.000
14.87000 514.000
14.88500 498.000
14.90000 546.000
14.91500 525.000
14.93000 539.000
14.94500 547.000
14.96000 530.000
14.97500 510.000
14.99000 507.000
15.00500 524.000
15.02000 538.000
15.03500 517.000
15.05000 514.000
15.06500 536.000
15.08000 516.000
15.09500 519.000
15.11000 512.000
15.12500 468.000
15.14000 502.000
15.15500 495.000
15.17000 505.000
15.18500 512.000
15.20000 491.000
15.21500 500.000
15.23000 509.000
15.24500 483.000
15.26000 498.000
15.27500 517.000
15.29000 498.000
15.30500 499.000
15.32000 506.000
15.33500 495.000
15.35000 536.000
15.36500 522.000
15.38000 500.000
15.39500 501.000
15.41000 524.000
15.42500 529.000
15.44000 501.000
15.45500 476.000
15.47000 522.000
15.48500 531.000
15.50000 516.000
15.51500 523.000
15.53000 507.000
15.54500 537.000
15.56000 563.000
15.57500 541.000
15.59000 507.000
15.60500 498.000
15.62000 509.000
15.63500 514.000
15.65000 507.000
15.66500 504.000
15.68000 492.000
15.69500 511.000
15.71000 526.000
15.72500 554.000
15.74000 512.000
15.75500 509.000
15.77000 488.000
15.78500 517.000
15.80000 519.000
15.81500 481.000
15.83000 514.000
15.84500 505.000
15.86000 512.000
15.87500 496.000
15.89000 501.000
15.90500 516.000
15.92000 506.000
15.93500 520.000
15.95000 489.000
15.96500 502.000
15.98000 505.000
15.99500 514.000
16.01000 499.000
16.02500 515.000
16.04000 513.000
16.05500 497.000
16.07000 530.000
16.08500 573.000
16.10000 549.000
16.11500 525.000
16.13000 514.000
16.14500 541.000
16.16000 517.000
16.17500 556.000
16.19000 516.000
16.20500 534.000
16.22000 561.000
16.23500 551.000
16.25000 530.000
16.26500 534.000
16.28000 567.000
16.29500 530.000
16.31000 520.000
16.32500 542.000
16.34000 537.000
16.35500 542.000
16.37000 531.000
16.38500 540.000
16.40000 550.000
16.41500 539.000
16.43000 547.000
16.44500 536.000
16.46000 552.000
16.47500 546.000
16.49000 503.000
16.50500 540.000
16.52000 543.000
16.53500 540.000
16.55000 519.000
16.56500 486.000
16.58000 544.000
16.59500 552.000
16.61000 538.000
16.62500 536.000
16.64000 574.000
16.65500 570.000
16.67000 542.000
16.68500 554.000
16.70000 549.000
16.71500 525.000
16.73000 525.000
16.74500 541.000
16.76000 551.000
16.77500 526.000
16.79000 532.000
16.80500 545.000
16.82000 527.000
16.83500 595.000
16.85000 539.000
16.86500 523.000
16.88000 540.000
16.89500 574.000
16.91000 584.000
16.92500 519.000
16.94000 521.000
16.95500 569.000
16.97000 577.000
16.98500 548.000
17.00000 560.000
17.01500 564.000
17.03000 557.000
17.04500 555.000
17.06000 571.000
17.07500 524.000
17.09000 535.000
17.10500 528.000
17.12000 556.000
17.13500 551.000
17.15000 590.000
17.16500 542.000
17.18000 574.000
17.19500 537.000
17.21000 563.000
17.22500 593.000
17.24000 603.000
17.25500 606.000
17.27000 567.000
17.28500 569.000
17.30000 612.000
17.31500 611.000
17.33000 597.000
17.34500 563.000
17.36000 550.000
17.37500 593.000
17.39000 612.000
17.40500 571.000
17.42000 612.000
17.43500 565.000
17.45000 552.000
17.46500 586.000
17.48000 626.000
17.49500 633.000
17.51000 587.000
17.52500 596.000
17.54000 603.000
17.55500 637.000
17.57000 633.000
17.58500 640.000
17.60000 596.000
17.61500 588.000
17.63000 614.000
17.64500 645.000
17.66000 622.000
17.67500 601.000
17.69000 646.000
17.70500 636.000
17.72000 618.000
17.73500 617.000
17.75000 622.000
17.76500 634.000
17.78000 602.000
17.79500 615.000
17.81000 639.000
17.82500 611.000
17.84000 669.000
17.85500 639.000
17.87000 667.000
17.88500 659.000
17.90000 653.000
17.91500 647.000
17.93000 634.000
17.94500 680.000
17.96000 654.000
17.97500 686.000
17.99000 634.000
18.00500 656.000
18.02000 650.000
18.03500 670.000
18.05000 673.000
18.06500 657.000
18.08000 661.000
18.09500 676.000
18.11000 695.000
18.12500 661.000
18.14000 696.000
18.15500 741.000
18.17000 682.000
18.18500 727.000
18.20000 714.000
18.21500 725.000
18.23000 721.000
18.24500 739.000
18.26000 739.000
18.27500 760.000
18.29000 736.000
18.30500 696.000
18.32000 743.000
18.33500 704.000
18.35000 730.000
18.36500 769.000
18.38000 769.000
18.39500 794.000
18.41000 758.000
18.42500 751.000
18.44000 795.000
18.45500 811.000
18.47000 847.000
18.48500 836.000
18.50000 822.000
18.51500 869.000
18.53000 906.000
18.54500 907.000
18.56000 924.000
18.57500 928.000
18.59000 921.000
18.60500 890.000
18.62000 958.000
18.63500 952.000
18.65000 979.000
18.66500 1030.000
18.68000 1046.000
18.69500 1002.000
18.71000 1062.000
18.72500 1073.000
18.74000 1117.000
18.75500 1132.000
18.77000 1099.000
18.78500 1107.000
18.80000 1140.000
18.81500 1115.000
18.83000 1096.000
18.84500 1130.000
18.86000 1083.000
18.87500 1079.000
18.89000 1154.000
18.90500 1127.000
18.92000 1048.000
18.93500 1104.000
18.95000 1118.000
18.96500 1078.000
18.98000 1116.000
18.99500 1103.000
19.01000 1050.000
19.02500 1062.000
19.04000 1031.000
19.05500 1014.000
19.07000 1023.000
19.08500 1011.000
19.10000 974.000
19.11500 922.000
19.13000 944.000
19.14500 928.000
19.16000 936.000
19.17500 943.000
19.19000 944.000
19.20500 890.000
19.22000 945.000
19.23500 936.000
19.25000 919.000
19.26500 921.000
19.28000 868.000
19.29500 832.000
19.31000 821.000
19.32500 806.000
19.34000 831.000
19.35500 781.000
19.37000 779.000
19.38500 759.000
19.40000 739.000
19.41500 727.000
19.43000 769.000
19.44500 758.000
19.46000 746.000
19.47500 754.000
19.49000 682.000
19.50500 682.000
19.52000 750.000
19.53500 730.000
19.55000 700.000
19.56500 673.000
19.58000 639.000
19.59500 666.000
19.61000 709.000
19.62500 700.000
19.64000 636.000
19.65500 649.000
19.67000 608.000
19.68500 634.000
19.70000 633.000
19.71500 629.000
19.73000 633.000
19.74500 613.000
19.76000 611.000
19.77500 615.000
19.79000 629.000
19.80500 612.000
19.82000 608.000
19.83500 602.000
19.85000 600.000
19.86500 577.000
19.88000 558.000
19.89500 585.000
19.91000 599.000
19.92500 575.000
19.94000 567.000
19.95500 600.000
19.97000 597.000
19.98500 579.000
20.00000 562.000
20.01500 587.000
20.03000 598.000
20.04500 594.000
20.06000 569.000
20.07500 584.000
20.09000 633.000
20.10500 586.000
20.12000 598.000
20.13500 526.000
20.15000 573.000
20.16500 590.000
20.18000 636.000
20.19500 590.000
20.21000 598.000
20.22500 564.000
20.24000 600.000
20.25500 621.000
20.27000 580.000
20.28500 553.000
20.30000 543.000
20.31500 579.000
20.33000 594.000
20.34500 602.000
20.36000 592.000
20.37500 567.000
20.39000 580.000
20.40500 607.000
20.42000 589.000
20.43500 577.000
20.45000 564.000
20.46500 577.000
20.48000 581.000
20.49500 576.000
20.51000 593.000
20.52500 573.000
20.54000 555.000
20.55500 549.000
20.57000 557.000
20.58500 562.000
20.60000 580.000
20.61500 570.000
20.63000 557.000
20.64500 567.000
20.66000 556.000
20.67500 567.000
20.69000 541.000
20.70500 557.000
20.72000 593.000
20.73500 551.000
20.75000 574.000
20.76500 555.000
20.78000 599.000
20.79500 601.000
20.81000 615.000
20.82500 555.000
20.84000 550.000
20.85500 564.000
20.87000 597.000
20.88500 581.000
20.90000 552.000
20.91500 572.000
20.93000 578.000
20.94500 551.000
20.96000 564.000
20.97500 576.000
20.99000 572.000
21.00500 567.000
21.02000 573.000
21.03500 602.000
21.05000 619.000
21.06500 547.000
21.08000 571.000
21.09500 612.000
21.11000 596.000
21.12500 590.000
21.14000 561.000
21.15500 578.000
21.17000 577.000
21.18500 550.000
21.20000 554.000
21.21500 546.000
21.23000 536.000
21.24500 564.000
21.26000 570.000
21.27500 563.000
21.29000 546.000
21.30500 566.000
21.32000 596.000
21.33500 573.000
21.35000 592.000
21.36500 566.000
21.38000 542.000
21.39500 560.000
21.41000 600.000
21.42500 545.000
21.44000 555.000
21.45500 567.000
21.47000 560.000
21.48500 567.000
21.50000 584.000
21.51500 581.000
21.53000 563.000
21.54500 578.000
21.56000 563.000
21.57500 607.000
21.59000 591.000
21.60500 574.000
21.62000 558.000
21.63500 572.000
21.65000 560.000
21.66500 601.000
21.68000 580.000
21.69500 601.000
21.71000 586.000
21.72500 583.000
21.74000 558.000
21.75500 565.000
21.77000 570.000
21.78500 585.000
21.80000 548.000
21.81500 512.000
21.83000 562.000
21.84500 569.000
21.86000 565.000
21.87500 558.000
21.89000 595.000
21.90500 578.000
21.92000 581.000
21.93500 546.000
21.95000 556.000
21.96500 563.000
21.98000 587.000
21.99500 591.000
22.01000 561.000
22.02500 547.000
22.04000 561.000
22.05500 597.000
22.07000 594.000
22.08500 562.000
22.10000 567.000
22.11500 590.000
22.13000 589.000
22.14500 582.000
22.16000 581.000
22.17500 573.000
22.19000 589.000
22.20500 577.000
22.22000 572.000
22.23500 579.000
22.25000 576.000
22.26500 581.000
22.28000 602.000
22.29500 582.000
22.31000 548.000
22.32500 578.000
22.34000 575.000
22.35500 582.000
22.37000 592.000
22.38500 593.000
22.40000 598.000
22.41500 547.000
22.43000 581.000
22.44500 568.000
22.46000 590.000
22.47500 582.000
22.49000 576.000
22.50500 584.000
22.52000 582.000
22.53500 589.000
22.55000 580.000
22.56500 562.000
22.58000 548.000
22.59500 585.000
22.61000 598.000
22.62500 544.000
22.64000 583.000
22.65500 580.000
22.67000 606.000
22.68500 613.000
22.70000 556.000
22.71500 547.000
22.73000 560.000
22.74500 563.000
22.76000 612.000
22.77500 609.000
22.79000 558.000
22.80500 613.000
22.82000 614.000
22.83500 608.000
22.85000 591.000
22.86500 612.000
22.88000 589.000
22.89500 543.000
22.91000 595.000
22.92500 595.000
22.94000 591.000
22.95500 546.000
22.97000 556.000
22.98500 600.000
23.00000 572.000
23.01500 557.000
23.03000 576.000
23.04500 575.000
23.06000 563.000
23.07500 584.000
23.09000 623.000
23.10500 586.000
23.12000 572.000
23.13500 635.000
23.15000 631.000
23.16500 614.000
23.18000 619.000
23.19500 607.000
23.21000 606.000
23.22500 617.000
23.24000 614.000
23.25500 592.000
23.27000 573.000
23.28500 570.000
23.30000 568.000
23.31500 628.000
23.33000 609.000
23.34500 596.000
23.36000 636.000
23.37500 623.000
23.39000 579.000
23.40500 599.000
23.42000 609.000
23.43500 594.000
23.45000 609.000
23.46500 644.000
23.48000 600.000
23.49500 643.000
23.51000 638.000
23.52500 600.000
23.54000 585.000
23.55500 599.000
23.57000 616.000
23.58500 603.000
23.60000 603.000
23.61500 606.000
23.63000 624.000
23.64500 620.000
23.66000 598.000
23.67500 573.000
23.69000 617.000
23.70500 584.000
23.72000 644.000
23.73500 645.000
23.75000 636.000
23.76500 583.000
23.78000 572.000
23.79500 608.000
23.81000 593.000
23.82500 617.000
23.84000 626.000
23.85500 644.000
23.87000 650.000
23.88500 637.000
23.90000 636.000
23.91500 609.000
23.93000 633.000
23.94500 609.000
23.96000 608.000
23.97500 642.000
23.99000 653.000
24.00500 615.000
24.02000 596.000
24.03500 645.000
24.05000 604.000
24.06500 633.000
24.08000 643.000
24.09500 669.000
24.11000 637.000
24.12500 605.000
24.14000 634.000
24.15500 611.000
24.17000 624.000
24.18500 624.000
24.20000 635.000
24.21500 655.000
24.23000 617.000
24.24500 634.000
24.26000 619.000
24.27500 641.000
24.29000 680.000
24.30500 686.000
24.32000 677.000
24.33500 662.000
24.35000 646.000
24.36500 632.000
24.38000 687.000
24.39500 682.000
24.41000 683.000
24.42500 648.000
24.44000 725.000
24.45500 733.000
24.47000 760.000
24.48500 780.000
24.50000 758.000
24.51500 751.000
24.53000 727.000
24.54500 782.000
24.56000 802.000
24.57500 772.000
24.59000 786.000
24.60500 749.000
24.62000 786.000
24.63500 760.000
24.65000 775.000
24.66500 843.000
24.68000 823.000
24.69500 829.000
24.71000 806.000
24.72500 804.000
24.74000 841.000
24.75500 872.000
24.77000 840.000
24.78500 877.000
24.80000 902.000
24.81500 908.000
24.83000 879.000
24.84500 904.000
24.86000 904.000
24.87500 903.000
24.89000 926.000
24.90500 977.000
24.92000 977.000
24.93500 973.000
24.95000 961.000
24.96500 1024.000
24.98000 1016.000
24.99500 1014.000
25.01000 1058.000
25.02500 1025.000
25.04000 1034.000
25.05500 1066.000
25.07000 1090.000
25.08500 1104.000
25.10000 1114.000
25.11500 1112.000
25.13000 1126.000
25.14500 1148.000
25.16000 1113.000
25.17500 1070.000
25.19000 1174.000
25.20500 1127.000
25.22000 1146.000
25.23500 1154.000
25.25000 1132.000
25.26500 1178.000
25.28000 1166.000
25.29500 1188.000
25.31000 1148.000
25.32500 1128.000
25.34000 1144.000
25.35500 1135.000
25.37000 1159.000
25.38500 1145.000
25.40000 1153.000
25.41500 1134.000
25.43000 1137.000
25.44500 1197.000
25.46000 1177.000
25.47500 1237.000
25.49000 1218.000
25.50500 1152.000
25.52000 1221.000
25.53500 1202.000
25.55000 1261.000
25.56500 1208.000
25.58000 1175.000
25.59500 1222.000
25.61000 1216.000
25.62500 1240.000
25.64000 1158.000
25.65500 1209.000
25.67000 1221.000
25.68500 1180.000
25.70000 1213.000
25.71500 1207.000
25.73000 1198.000
25.74500 1193.000
25.76000 1173.000
25.77500 1194.000
25.79000 1158.000
25.80500 1218.000
25.82000 1145.000
25.83500 1163.000
25.85000 1195.000
25.86500 1159.000
25.88000 1137.000
25.89500 1176.000
25.91000 1184.000
25.92500 1271.000
25.94000 1208.000
25.95500 1196.000
25.97000 1173.000
25.98500 1172.000
26.00000 1098.000
26.01500 1184.000
26.03000 1165.000
26.04500 1226.000
26.06000 1220.000
26.07500 1153.000
26.09000 1180.000
26.10500 1139.000
26.12000 1154.000
26.13500 1080.000
26.15000 1104.000
26.16500 1150.000
26.18000 1190.000
26.19500 1134.000
26.21000 1111.000
26.22500 1124.000
26.24000 1101.000
26.25500 1109.000
26.27000 1055.000
26.28500 1110.000
26.30000 1082.000
26.31500 1062.000
26.33000 1083.000
26.34500 1112.000
26.36000 1077.000
26.37500 1074.000
26.39000 1105.000
26.40500 1114.000
26.42000 1101.000
26.43500 1058.000
26.45000 1000.000
26.46500 1031.000
26.48000 1030.000
26.49500 1090.000
26.51000 1083.000
26.52500 1118.000
26.54000 1109.000
26.55500 1111.000
26.57000 1095.000
26.58500 1140.000
26.60000 1151.000
26.61500 1125.000
26.63000 1115.000
26.64500 1104.000
26.66000 1114.000
26.67500 1123.000
26.69000 1120.000
26.70500 1036.000
26.72000 1030.000
26.73500 1051.000
26.75000 1043.000
26.76500 1005.000
26.78000 1019.000
26.79500 1051.000
26.81000 1027.000
26.82500 1090.000
26.84000 1086.000
26.85500 1110.000
26.87000 1109.000
26.88500 1104.000
26.90000 1069.000
26.91500 1036.000
26.93000 1040.000
26.94500 1051.000
26.96000 1088.000
26.97500 1049.000
26.99000 1033.000
27.00500 1070.000
27.02000 1082.000
27.03500 1116.000
27.05000 1128.000
27.06500 1071.000
27.08000 1089.000
27.09500 1108.000
27.11000 1103.000
27.12500 1143.000
27.14000 1174.000
27.15500 1156.000
27.17000 1197.000
27.18500 1164.000
27.20000 1153.000
27.21500 1213.000
27.23000 1224.000
27.24500 1239.000
27.26000 1248.000
27.27500 1187.000
27.29000 1190.000
27.30500 1292.000
27.32000 1286.000
27.33500 1273.000
27.35000 1254.000
27.36500 1265.000
27.38000 1290.000
27.39500 1335.000
27.41000 1382.000
27.42500 1325.000
27.44000 1383.000
27.45500 1400.000
27.47000 1408.000
27.48500 1467.000
27.50000 1437.000
27.51500 1428.000
27.53000 1515.000
27.54500 1556.000
27.56000 1613.000
27.57500 1606.000
27.59000 1671.000
27.60500 1688.000
27.62000 1659.000
27.63500 1728.000
27.65000 1680.000
27.66500 1736.000
27.68000 1785.000
27.69500 1828.000
27.71000 1880.000
27.72500 1856.000
27.74000 1886.000
27.75500 1816.000
27.77000 1895.000
27.78500 1927.000
27.80000 1879.000
27.81500 1956.000
27.83000 1961.000
27.84500 1972.000
27.86000 1944.000
27.87500 1931.000
27.89000 1974.000
27.90500 2029.000
27.92000 1965.000
27.93500 1982.000
27.95000 1938.000
27.96500 1993.000
27.98000 2026.000
27.99500 2032.000
28.01000 2051.000
28.02500 2009.000
28.04000 2057.000
28.05500 2018.000
28.07000 2015.000
28.08500 2079.000
28.10000 2061.000
28.11500 2038.000
28.13000 1984.000
28.14500 1899.000
28.16000 1875.000
28.17500 1771.000
28.19000 1673.000
28.20500 1670.000
28.22000 1683.000
28.23500 1600.000
28.25000 1484.000
28.26500 1557.000
28.28000 1530.000
28.29500 1467.000
28.31000 1435.000
28.32500 1417.000
28.34000 1354.000
28.35500 1387.000
28.37000 1349.000
28.38500 1330.000
28.40000 1268.000
28.41500 1231.000
28.43000 1231.000
28.44500 1178.000
28.46000 1222.000
28.47500 1215.000
28.49000 1160.000
28.50500 1159.000
28.52000 1139.000
28.53500 1088.000
28.55000 1048.000
28.56500 1046.000
28.58000 1038.000
28.59500 1018.000
28.61000 1073.000
28.62500 1086.000
28.64000 961.000
28.65500 977.000
28.67000 968.000
28.68500 951.000
28.70000 943.000
28.71500 962.000
28.73000 935.000
28.74500 914.000
28.76000 898.000
28.77500 901.000
28.79000 901.000
28.80500 855.000
28.82000 874.000
28.83500 873.000
28.85000 886.000
28.86500 845.000
28.88000 890.000
28.89500 829.000
28.91000 851.000
28.92500 843.000
28.94000 798.000
28.95500 794.000
28.97000 798.000
28.98500 731.000
29.00000 742.000
29.01500 801.000
29.03000 793.000
29.04500 803.000
29.06000 770.000
29.07500 762.000
29.09000 815.000
29.10500 738.000
29.12000 737.000
29.13500 734.000
29.15000 711.000
29.16500 719.000
29.18000 734.000
29.19500 717.000
29.21000 752.000
29.22500 702.000
29.24000 737.000
29.25500 725.000
29.27000 696.000
29.28500 693.000
29.30000 704.000
29.31500 698.000
29.33000 691.000
29.34500 703.000
29.36000 709.000
29.37500 699.000
29.39000 722.000
29.40500 699.000
29.42000 684.000
29.43500 676.000
29.45000 706.000
29.46500 683.000
29.48000 731.000
29.49500 730.000
29.51000 702.000
29.52500 691.000
29.54000 669.000
29.55500 678.000
29.57000 699.000
29.58500 720.000
29.60000 730.000
29.61500 679.000
29.63000 695.000
29.64500 672.000
29.66000 651.000
29.67500 671.000
29.69000 673.000
29.70500 672.000
29.72000 669.000
29.73500 671.000
29.75000 672.000
29.76500 625.000
29.78000 674.000
29.79500 663.000
29.81000 606.000
29.82500 631.000
29.84000 666.000
29.85500 649.000
29.87000 640.000
29.88500 627.000
29.90000 678.000
29.91500 626.000
29.93000 609.000
29.94500 614.000
29.96000 595.000
29.97500 607.000
29.99000 650.000
30.00500 647.000
30.02000 621.000
30.03500 671.000
30.05000 626.000
30.06500 627.000
30.08000 606.000
30.09500 642.000
30.11000 637.000
30.12500 619.000
30.14000 647.000
30.15500 630.000
30.17000 625.000
30.18500 636.000
30.20000 628.000
30.21500 628.000
30.23000 665.000
30.24500 634.000
30.26000 620.000
30.27500 594.000
30.29000 599.000
30.30500 603.000
30.32000 601.000
30.33500 594.000
30.35000 626.000
30.36500 658.000
30.38000 614.000
30.39500 623.000
30.41000 607.000
30.42500 635.000
30.44000 633.000
30.45500 640.000
30.47000 658.000
30.48500 600.000
30.50000 623.000
30.51500 640.000
30.53000 622.000
30.54500 600.000
30.56000 596.000
30.57500 588.000
30.59000 593.000
30.60500 584.000
30.62000 573.000
30.63500 577.000
30.65000 538.000
30.66500 576.000
30.68000 568.000
30.69500 575.000
30.71000 578.000
30.72500 621.000
30.74000 595.000
30.75500 582.000
30.77000 565.000
30.78500 568.000
30.80000 571.000
30.81500 590.000
30.83000 543.000
30.84500 562.000
30.86000 535.000
30.87500 525.000
30.89000 527.000
30.90500 537.000
30.92000 558.000
30.93500 571.000
30.95000 547.000
30.96500 540.000
30.98000 576.000
30.99500 552.000
31.01000 545.000
31.02500 532.000
31.04000 561.000
31.05500 537.000
31.07000 572.000
31.08500 547.000
31.10000 570.000
31.11500 506.000
31.13000 521.000
31.14500 520.000
31.16000 520.000
31.17500 501.000
31.19000 524.000
31.20500 517.000
31.22000 513.000
31.23500 529.000
31.25000 528.000
31.26500 498.000
31.28000 497.000
31.29500 501.000
31.31000 516.000
31.32500 500.000
31.34000 528.000
31.35500 522.000
31.37000 496.000
31.38500 538.000
31.40000 516.000
31.41500 506.000
31.43000 523.000
31.44500 537.000
31.46000 504.000
31.47500 535.000
31.49000 522.000
31.50500 506.000
31.52000 534.000
31.53500 527.000
31.55000 499.000
31.56500 513.000
31.58000 512.000
31.59500 541.000
31.61000 510.000
31.62500 509.000
31.64000 504.000
31.65500 510.000
31.67000 516.000
31.68500 492.000
31.70000 505.000
31.71500 555.000
31.73000 548.000
31.74500 564.000
31.76000 518.000
31.77500 526.000
31.79000 498.000
31.80500 499.000
31.82000 520.000
31.83500 524.000
31.85000 506.000
31.86500 504.000
31.88000 504.000
31.89500 536.000
31.91000 529.000
31.92500 500.000
31.94000 536.000
31.95500 554.000
31.97000 523.000
31.98500 520.000
32.00000 530.000
32.01500 533.000
32.03000 525.000
32.04500 532.000
32.06000 512.000
32.07500 516.000
32.09000 483.000
32.10500 487.000
32.12000 498.000
32.13500 516.000
32.15000 521.000
32.16500 534.000
32.18000 514.000
32.19500 496.000
32.21000 480.000
32.22500 522.000
32.24000 542.000
32.25500 533.000
32.27000 540.000
32.28500 529.000
32.30000 517.000
32.31500 505.000
32.33000 456.000
32.34500 497.000
32.36000 469.000
32.37500 490.000
32.39000 506.000
32.40500 529.000
32.42000 521.000
32.43500 485.000
32.45000 461.000
32.46500 477.000
32.48000 468.000
32.49500 486.000
32.51000 532.000
32.52500 533.000
32.54000 492.000
32.55500 485.000
32.57000 492.000
32.58500 499.000
32.60000 537.000
32.61500 485.000
32.63000 493.000
32.64500 525.000
32.66000 556.000
32.67500 512.000
32.69000 519.000
32.70500 484.000
32.72000 489.000
32.73500 484.000
32.75000 476.000
32.76500 468.000
32.78000 484.000
32.79500 490.000
32.81000 478.000
32.82500 473.000
32.84000 505.000
32.85500 505.000
32.87000 507.000
32.88500 519.000
32.90000 482.000
32.91500 445.000
32.93000 459.000
32.94500 478.000
32.96000 488.000
32.97500 479.000
32.99000 469.000
33.00500 452.000
33.02000 491.000
33.03500 527.000
33.05000 480.000
33.06500 477.000
33.08000 486.000
33.09500 469.000
33.11000 500.000
33.12500 475.000
33.14000 460.000
33.15500 479.000
33.17000 445.000
33.18500 472.000
33.20000 454.000
33.21500 477.000
33.23000 472.000
33.24500 486.000
33.26000 480.000
33.27500 451.000
33.29000 421.000
33.30500 431.000
33.32000 441.000
33.33500 449.000
33.35000 440.000
33.36500 458.000
33.38000 453.000
33.39500 481.000
33.41000 429.000
33.42500 436.000
33.44000 450.000
33.45500 439.000
33.47000 434.000
33.48500 435.000
33.50000 402.000
33.51500 432.000
33.53000 430.000
33.54500 484.000
33.56000 455.000
33.57500 461.000
33.59000 455.000
33.60500 446.000
33.62000 455.000
33.63500 476.000
33.65000 445.000
33.66500 427.000
33.68000 446.000
33.69500 450.000
33.71000 456.000
33.72500 443.000
33.74000 450.000
33.75500 464.000
33.77000 511.000
33.78500 445.000
33.80000 417.000
33.81500 425.000
33.83000 417.000
33.84500 457.000
33.86000 432.000
33.87500 422.000
33.89000 436.000
33.90500 427.000
33.92000 430.000
33.93500 454.000
33.95000 437.000
33.96500 442.000
33.98000 435.000
33.99500 431.000
34.01000 440.000
34.02500 419.000
34.04000 404.000
34.05500 415.000
34.07000 423.000
34.08500 431.000
34.10000 411.000
34.11500 408.000
34.13000 403.000
34.14500 413.000
34.16000 434.000
34.17500 428.000
34.19000 423.000
34.20500 426.000
34.22000 408.000
34.23500 447.000
34.25000 413.000
34.26500 397.000
34.28000 400.000
34.29500 420.000
34.31000 426.000
34.32500 368.000
34.34000 411.000
34.35500 410.000
34.37000 398.000
34.38500 417.000
34.40000 411.000
34.41500 404.000
34.43000 390.000
34.44500 411.000
34.46000 426.000
34.47500 397.000
34.49000 416.000
34.50500 425.000
34.52000 403.000
34.53500 412.000
34.55000 401.000
34.56500 383.000
34.58000 403.000
34.59500 406.000
34.61000 398.000
34.62500 410.000
34.64000 388.000
34.65500 409.000
34.67000 402.000
34.68500 389.000
34.70000 356.000
34.71500 398.000
34.73000 381.000
34.74500 402.000
34.76000 390.000
34.77500 380.000
34.79000 399.000
34.80500 413.000
34.82000 429.000
34.83500 428.000
34.85000 400.000
34.86500 388.000
34.88000 423.000
34.89500 406.000
34.91000 400.000
34.92500 379.000
34.94000 405.000
34.95500 370.000
34.97000 375.000
34.98500 395.000
35.00000 395.000
35.01500 388.000
35.03000 393.000
35.04500 397.000
35.06000 400.000
35.07500 401.000
35.09000 404.000
35.10500 394.000
35.12000 406.000
35.13500 358.000
35.15000 417.000
35.16500 415.000
35.18000 417.000
35.19500 413.000
35.21000 401.000
35.22500 427.000
35.24000 408.000
35.25500 387.000
35.27000 380.000
35.28500 411.000
35.30000 399.000
35.31500 400.000
35.33000 430.000
35.34500 416.000
35.36000 444.000
35.37500 412.000
35.39000 439.000
35.40500 446.000
35.42000 435.000
35.43500 445.000
35.45000 411.000
35.46500 393.000
35.48000 398.000
35.49500 435.000
35.51000 443.000
35.52500 455.000
35.54000 421.000
35.55500 394.000
35.57000 473.000
35.58500 444.000
35.60000 441.000
35.61500 426.000
35.63000 438.000
35.64500 442.000
35.66000 455.000
35.67500 466.000
35.69000 455.000
35.70500 463.000
35.72000 447.000
35.73500 444.000
35.75000 469.000
35.76500 472.000
35.78000 421.000
35.79500 438.000
35.81000 451.000
35.82500 470.000
35.84000 470.000
35.85500 461.000
35.87000 439.000
35.88500 474.000
35.90000 453.000
35.91500 449.000
35.93000 475.000
35.94500 416.000
35.96000 455.000
35.97500 446.000
35.99000 456.000
36.00500 445.000
36.02000 455.000
36.03500 485.000
36.05000 440.000
36.06500 430.000
36.08000 417.000
36.09500 427.000
36.11000 426.000
36.12500 401.000
36.14000 403.000
36.15500 422.000
36.17000 437.000
36.18500 424.000
36.20000 443.000
36.21500 422.000
36.23000 408.000
36.24500 433.000
36.26000 448.000
36.27500 472.000
36.29000 447.000
36.30500 433.000
36.32000 409.000
36.33500 431.000
36.35000 418.000
36.36500 448.000
36.38000 432.000
36.39500 435.000
36.41000 428.000
36.42500 414.000
36.44000 435.000
36.45500 434.000
36.47000 437.000
36.48500 459.000
36.50000 443.000
36.51500 417.000
36.53000 402.000
36.54500 391.000
36.56000 414.000
36.57500 417.000
36.59000 428.000
36.60500 418.000
36.62000 398.000
36.63500 433.000
36.65000 433.000
36.66500 429.000
36.68000 436.000
36.69500 424.000
36.71000 434.000
36.72500 433.000
36.74000 443.000
36.75500 409.000
36.77000 396.000
36.78500 439.000
36.80000 420.000
36.81500 409.000
36.83000 393.000
36.84500 445.000
36.86000 429.000
36.87500 416.000
36.89000 448.000
36.90500 440.000
36.92000 456.000
36.93500 435.000
36.95000 411.000
36.96500 417.000
36.98000 423.000
36.99500 467.000
37.01000 457.000
37.02500 407.000
37.04000 411.000
37.05500 445.000
37.07000 393.000
37.08500 424.000
37.10000 426.000
37.11500 411.000
37.13000 422.000
37.14500 386.000
37.16000 411.000
37.17500 404.000
37.19000 414.000
37.20500 390.000
37.22000 428.000
37.23500 423.000
37.25000 412.000
37.26500 405.000
37.28000 407.000
37.29500 404.000
37.31000 405.000
37.32500 381.000
37.34000 402.000
37.35500 423.000
37.37000 397.000
37.38500 423.000
37.40000 432.000
37.41500 389.000
37.43000 400.000
37.44500 404.000
37.46000 411.000
37.47500 421.000
37.49000 407.000
37.50500 400.000
37.52000 394.000
37.53500 401.000
37.55000 420.000
37.56500 394.000
37.58000 394.000
37.59500 402.000
37.61000 433.000
37.62500 453.000
37.64000 403.000
37.65500 417.000
37.67000 415.000
37.68500 411.000
37.70000 378.000
37.71500 396.000
37.73000 377.000
37.74500 390.000
37.76000 414.000
37.77500 377.000
37.79000 415.000
37.80500 411.000
37.82000 372.000
37.83500 397.000
37.85000 392.000
37.86500 434.000
37.88000 372.000
37.89500 372.000
37.91000 389.000
37.92500 410.000
37.94000 421.000
37.95500 386.000
37.97000 371.000
37.98500 361.000
38.00000 383.000
38.01500 401.000
38.03000 372.000
38.04500 391.000
38.06000 373.000
38.07500 388.000
38.09000 370.000
38.10500 371.000
38.12000 380.000
38.13500 368.000
38.15000 368.000
38.16500 362.000
38.18000 400.000
38.19500 385.000
38.21000 388.000
38.22500 388.000
38.24000 386.000
38.25500 361.000
38.27000 358.000
38.28500 401.000
38.30000 380.000
38.31500 370.000
38.33000 359.000
38.34500 377.000
38.36000 377.000
38.37500 361.000
38.39000 361.000
38.40500 360.000
38.42000 369.000
38.43500 376.000
38.45000 357.000
38.46500 399.000
38.48000 377.000
38.49500 401.000
38.51000 381.000
38.52500 379.000
38.54000 375.000
38.55500 350.000
38.57000 376.000
38.58500 382.000
38.60000 383.000
38.61500 387.000
38.63000 398.000
38.64500 379.000
38.66000 387.000
38.67500 369.000
38.69000 383.000
38.70500 393.000
38.72000 388.000
38.73500 380.000
38.75000 368.000
38.76500 363.000
38.78000 376.000
38.79500 392.000
38.81000 375.000
38.82500 427.000
38.84000 404.000
38.85500 383.000
38.87000 368.000
38.88500 361.000
38.90000 386.000
38.91500 372.000
38.93000 398.000
38.94500 386.000
38.96000 410.000
38.97500 382.000
38.99000 400.000
39.00500 347.000
39.02000 357.000
39.03500 379.000
39.05000 356.000
39.06500 367.000
39.08000 386.000
39.09500 377.000
39.11000 376.000
39.12500 382.000
39.14000 367.000
39.15500 378.000
39.17000 343.000
39.18500 368.000
39.20000 369.000
39.21500 367.000
39.23000 359.000
39.24500 347.000
39.26000 363.000
39.27500 363.000
39.29000 383.000
39.30500 336.000
39.32000 348.000
39.33500 377.000
39.35000 367.000
39.36500 364.000
39.38000 367.000
39.39500 373.000
39.41000 342.000
39.42500 357.000
39.44000 364.000
39.45500 329.000
39.47000 331.000
39.48500 323.000
39.50000 345.000
39.51500 362.000
39.53000 344.000
39.54500 358.000
39.56000 365.000
39.57500 373.000
39.59000 369.000
39.60500 340.000
39.62000 341.000
39.63500 329.000
39.65000 343.000
39.66500 351.000
39.68000 370.000
39.69500 348.000
39.71000 315.000
39.72500 304.000
39.74000 355.000
39.75500 340.000
39.77000 334.000
39.78500 353.000
39.80000 317.000
39.81500 319.000
39.83000 318.000
39.84500 326.000
39.86000 308.000
39.87500 315.000
39.89000 331.000
39.90500 338.000
39.92000 341.000
39.93500 343.000
39.95000 329.000
39.96500 320.000
39.98000 319.000
39.99500 330.000
40.01000 326.000
40.02500 319.000
40.04000 324.000
40.05500 318.000
40.07000 337.000
40.08500 335.000
40.10000 318.000
40.11500 289.000
40.13000 297.000
40.14500 301.000
40.16000 286.000
40.17500 292.000
40.19000 311.000
40.20500 302.000
40.22000 316.000
40.23500 323.000
40.25000 317.000
40.26500 321.000
40.28000 305.000
40.29500 329.000
40.31000 302.000
40.32500 285.000
40.34000 322.000
40.35500 286.000
40.37000 291.000
40.38500 295.000
40.40000 304.000
40.41500 294.000
40.43000 298.000
40.44500 311.000
40.46000 312.000
40.47500 322.000
40.49000 310.000
40.50500 325.000
40.52000 315.000
40.53500 305.000
40.55000 288.000
40.56500 330.000
40.58000 311.000
40.59500 309.000
40.61000 293.000
40.62500 304.000
40.64000 321.000
40.65500 305.000
40.67000 301.000
40.68500 324.000
40.70000 321.000
40.71500 321.000
40.73000 299.000
40.74500 299.000
40.76000 304.000
40.77500 305.000
40.79000 324.000
40.80500 314.000
40.82000 332.000
40.83500 298.000
40.85000 324.000
40.86500 308.000
40.88000 292.000
40.89500 314.000
40.91000 299.000
40.92500 325.000
40.94000 333.000
40.95500 308.000
40.97000 309.000
40.98500 299.000
41.00000 311.000
41.01500 321.000
41.03000 323.000
41.04500 321.000
41.06000 310.000
41.07500 283.000
41.09000 293.000
41.10500 297.000
41.12000 307.000
41.13500 314.000
41.15000 307.000
41.16500 285.000
41.18000 307.000
41.19500 305.000
41.21000 290.000
41.22500 291.000
41.24000 289.000
41.25500 294.000
41.27000 295.000
41.28500 307.000
41.30000 319.000
41.31500 305.000
41.33000 301.000
41.34500 313.000
41.36000 306.000
41.37500 334.000
41.39000 311.000
41.40500 295.000
41.42000 291.000
41.43500 294.000
41.45000 292.000
41.46500 297.000
41.48000 312.000
41.49500 301.000
41.51000 308.000
41.52500 265.000
41.54000 282.000
41.55500 285.000
41.57000 305.000
41.58500 300.000
41.60000 276.000
41.61500 283.000
41.63000 293.000
41.64500 292.000
41.66000 316.000
41.67500 302.000
41.69000 278.000
41.70500 288.000
41.72000 304.000
41.73500 316.000
41.75000 314.000
41.76500 285.000
41.78000 286.000
41.79500 291.000
41.81000 289.000
41.82500 299.000
41.84000 322.000
41.85500 318.000
41.87000 309.000
41.88500 290.000
41.90000 298.000
41.91500 312.000
41.93000 297.000
41.94500 313.000
41.96000 292.000
41.97500 302.000
41.99000 313.000
42.00500 306.000
42.02000 302.000
42.03500 289.000
42.05000 314.000
42.06500 319.000
42.08000 288.000
42.09500 301.000
42.11000 295.000
42.12500 288.000
42.14000 309.000
42.15500 299.000
42.17000 300.000
42.18500 283.000
42.20000 283.000
42.21500 308.000
42.23000 323.000
42.24500 291.000
42.26000 288.000
42.27500 318.000
42.29000 310.000
42.30500 298.000
42.32000 298.000
42.33500 306.000
42.35000 287.000
42.36500 285.000
42.38000 279.000
42.39500 299.000
42.41000 317.000
42.42500 297.000
42.44000 305.000
42.45500 315.000
42.47000 294.000
42.48500 319.000
42.50000 304.000
42.51500 317.000
42.53000 283.000
42.54500 262.000
42.56000 286.000
42.57500 271.000
42.59000 286.000
42.60500 281.000
42.62000 277.000
42.63500 292.000
42.65000 322.000
42.66500 312.000
42.68000 319.000
42.69500 298.000
42.71000 308.000
42.72500 323.000
42.74000 278.000
42.75500 286.000
42.77000 291.000
42.78500 315.000
42.80000 317.000
42.81500 293.000
42.83000 294.000
42.84500 299.000
42.86000 315.000
42.87500 298.000
42.89000 312.000
42.90500 314.000
42.92000 295.000
42.93500 295.000
42.95000 316.000
42.96500 287.000
42.98000 280.000
42.99500 300.000
43.01000 297.000
43.02500 273.000
43.04000 283.000
43.05500 306.000
43.07000 271.000
43.08500 266.000
43.10000 285.000
43.11500 262.000
43.13000 319.000
43.14500 302.000
43.16000 284.000
43.17500 292.000
43.19000 310.000
43.20500 312.000
43.22000 295.000
43.23500 282.000
43.25000 289.000
43.26500 278.000
43.28000 283.000
43.29500 275.000
43.31000 282.000
43.32500 285.000
43.34000 294.000
43.35500 280.000
43.37000 274.000
43.38500 273.000
43.40000 303.000
43.41500 266.000
43.43000 292.000
43.44500 295.000
43.46000 293.000
43.47500 273.000
43.49000 265.000
43.50500 277.000
43.52000 272.000
43.53500 258.000
43.55000 284.000
43.56500 271.000
43.58000 265.000
43.59500 276.000
43.61000 281.000
43.62500 260.000
43.64000 259.000
43.65500 275.000
43.67000 280.000
43.68500 274.000
43.70000 275.000
43.71500 284.000
43.73000 289.000
43.74500 278.000
43.76000 265.000
43.77500 263.000
43.79000 270.000
43.80500 276.000
43.82000 248.000
43.83500 248.000
43.85000 253.000
43.86500 273.000
43.88000 287.000
43.89500 271.000
43.91000 276.000
43.92500 257.000
43.94000 265.000
43.95500 285.000
43.97000 282.000
43.98500 269.000
44.00000 264.000
44.01500 263.000
44.03000 272.000
44.04500 273.000
44.06000 272.000
44.07500 268.000
44.09000 278.000
44.10500 260.000
44.12000 259.000
44.13500 277.000
44.15000 301.000
44.16500 298.000
44.18000 278.000
44.19500 283.000
44.21000 286.000
44.22500 283.000
44.24000 289.000
44.25500 279.000
44.27000 263.000
44.28500 277.000
44.30000 302.000
44.31500 275.000
44.33000 260.000
44.34500 272.000
44.36000 282.000
44.37500 259.000
44.39000 245.000
44.40500 266.000
44.42000 265.000
44.43500 269.000
44.45000 251.000
44.46500 265.000
44.48000 284.000
44.49500 276.000
44.51000 283.000
44.52500 293.000
44.54000 265.000
44.55500 272.000
44.57000 285.000
44.58500 276.000
44.60000 246.000
44.61500 260.000
44.63000 277.000
44.64500 274.000
44.66000 291.000
44.67500 273.000
44.69000 268.000
44.70500 276.000
44.72000 266.000
44.73500 255.000
44.75000 246.000
44.76500 285.000
44.78000 292.000
44.79500 310.000
44.81000 271.000
44.82500 290.000
44.84000 282.000
44.85500 294.000
44.87000 289.000
44.88500 298.000
44.90000 281.000
44.91500 283.000
44.93000 302.000
44.94500 289.000
44.96000 267.000
44.97500 302.000
44.99000 277.000
45.00500 281.000
45.02000 275.000
45.03500 289.000
45.05000 284.000
45.06500 306.000
45.08000 320.000
45.09500 289.000
45.11000 290.000
45.12500 297.000
45.14000 292.000
45.15500 293.000
45.17000 293.000
45.18500 286.000
45.20000 281.000
45.21500 285.000
45.23000 284.000
45.24500 277.000
45.26000 257.000
45.27500 279.000
45.29000 287.000
45.30500 286.000
45.32000 281.000
45.33500 306.000
45.35000 284.000
45.36500 291.000
45.38000 283.000
45.39500 285.000
45.41000 287.000
45.42500 296.000
45.44000 305.000
45.45500 293.000
45.47000 281.000
45.48500 273.000
45.50000 264.000
45.51500 289.000
45.53000 291.000
45.54500 286.000
45.56000 276.000
45.57500 285.000
45.59000 299.000
45.60500 302.000
45.62000 265.000
45.63500 288.000
45.65000 321.000
45.66500 266.000
45.68000 275.000
45.69500 291.000
45.71000 283.000
45.72500 290.000
45.74000 298.000
45.75500 300.000
45.77000 279.000
45.78500 295.000
45.80000 313.000
45.81500 300.000
45.83000 263.000
45.84500 276.000
45.86000 289.000
45.87500 276.000
45.89000 277.000
45.90500 275.000
45.92000 269.000
45.93500 285.000
45.95000 259.000
45.96500 263.000
45.98000 281.000
45.99500 264.000
46.01000 269.000
46.02500 275.000
46.04000 303.000
46.05500 288.000
46.07000 273.000
46.08500 267.000
46.10000 276.000
46.11500 290.000
46.13000 266.000
46.14500 276.000
46.16000 300.000
46.17500 284.000
46.19000 258.000
46.20500 275.000
46.22000 269.000
46.23500 277.000
46.25000 257.000
46.26500 273.000
46.28000 260.000
46.29500 291.000
46.31000 278.000
46.32500 259.000
46.34000 284.000
46.35500 278.000
46.37000 261.000
46.38500 277.000
46.40000 284.000
46.41500 273.000
46.43000 281.000
46.44500 274.000
46.46000 265.000
46.47500 266.000
46.49000 286.000
46.50500 278.000
46.52000 274.000
46.53500 256.000
46.55000 262.000
46.56500 263.000
46.58000 288.000
46.59500 267.000
46.61000 266.000
46.62500 258.000
46.64000 249.000
46.65500 254.000
46.67000 236.000
46.68500 262.000
46.70000 264.000
46.71500 287.000
46.73000 273.000
46.74500 268.000
46.76000 238.000
46.77500 274.000
46.79000 251.000
46.80500 247.000
46.82000 250.000
46.83500 251.000
46.85000 253.000
46.86500 262.000
46.88000 254.000
46.89500 264.000
46.91000 257.000
46.92500 249.000
46.94000 258.000
46.95500 273.000
46.97000 275.000
46.98500 268.000
47.00000 264.000
47.01500 289.000
47.03000 246.000
47.04500 287.000
47.06000 273.000
47.07500 262.000
47.09000 294.000
47.10500 288.000
47.12000 291.000
47.13500 258.000
47.15000 254.000
47.16500 255.000
47.18000 292.000
47.19500 269.000
47.21000 291.000
47.22500 279.000
47.24000 256.000
47.25500 277.000
47.27000 277.000
47.28500 247.000
47.30000 255.000
47.31500 279.000
47.33000 255.000
47.34500 265.000
47.36000 250.000
47.37500 261.000
47.39000 258.000
47.40500 271.000
47.42000 288.000
47.43500 264.000
47.45000 264.000
47.46500 250.000
47.48000 255.000
47.49500 272.000
47.51000 267.000
47.52500 291.000
47.54000 286.000
47.55500 281.000
47.57000 252.000
47.58500 262.000
47.60000 285.000
47.61500 265.000
47.63000 256.000
47.64500 280.000
47.66000 292.000
47.67500 274.000
47.69000 286.000
47.70500 266.000
47.72000 265.000
47.73500 294.000
47.75000 289.000
47.76500 276.000
47.78000 262.000
47.79500 265.000
47.81000 285.000
47.82500 278.000
47.84000 280.000
47.85500 278.000
47.87000 259.000
47.88500 264.000
47.90000 291.000
47.91500 294.000
47.93000 303.000
47.94500 278.000
47.96000 288.000
47.97500 277.000
47.99000 268.000
48.00500 289.000
48.02000 275.000
48.03500 249.000
48.05000 254.000
48.06500 268.000
48.08000 276.000
48.09500 273.000
48.11000 258.000
48.12500 258.000
48.14000 284.000
48.15500 275.000
48.17000 276.000
48.18500 252.000
48.20000 251.000
48.21500 253.000
48.23000 271.000
48.24500 274.000
48.26000 292.000
48.27500 300.000
48.29000 271.000
48.30500 284.000
48.32000 271.000
48.33500 267.000
48.35000 241.000
48.36500 255.000
48.38000 243.000
48.39500 269.000
48.41000 251.000
48.42500 253.000
48.44000 271.000
48.45500 279.000
48.47000 263.000
48.48500 253.000
48.50000 251.000
48.51500 289.000
48.53000 278.000
48.54500 285.000
48.56000 266.000
48.57500 288.000
48.59000 259.000
48.60500 264.000
48.62000 255.000
48.63500 284.000
48.65000 275.000
48.66500 270.000
48.68000 263.000
48.69500 251.000
48.71000 233.000
48.72500 250.000
48.74000 282.000
48.75500 262.000
48.77000 287.000
48.78500 282.000
48.80000 277.000
48.81500 270.000
48.83000 238.000
48.84500 271.000
48.86000 251.000
48.87500 278.000
48.89000 270.000
48.90500 254.000
48.92000 269.000
48.93500 262.000
48.95000 261.000
48.96500 256.000
48.98000 252.000
48.99500 264.000
49.01000 247.000
49.02500 266.000
49.04000 269.000
49.05500 268.000
49.07000 278.000
49.08500 263.000
49.10000 270.000
49.11500 270.000
49.13000 260.000
49.14500 261.000
49.16000 279.000
49.17500 275.000
49.19000 268.000
49.20500 279.000
49.22000 256.000
49.23500 247.000
49.25000 254.000
49.26500 263.000
49.28000 239.000
49.29500 266.000
49.31000 267.000
49.32500 262.000
49.34000 280.000
49.35500 259.000
49.37000 248.000
49.38500 267.000
49.40000 284.000
49.41500 272.000
49.43000 248.000
49.44500 243.000
49.46000 254.000
49.47500 268.000
49.49000 255.000
49.50500 267.000
49.52000 261.000
49.53500 242.000
49.55000 247.000
49.56500 244.000
49.58000 235.000
49.59500 244.000
49.61000 269.000
49.62500 268.000
49.64000 250.000
49.65500 262.000
49.67000 226.000
49.68500 237.000
49.70000 263.000
49.71500 248.000
49.73000 248.000
49.74500 242.000
49.76000 219.000
49.77500 243.000
49.79000 258.000
49.80500 254.000
49.82000 254.000
49.83500 266.000
49.85000 258.000
49.86500 260.000
49.88000 246.000
49.89500 253.000
49.91000 260.000
49.92500 261.000
49.94000 244.000
49.95500 255.000
49.97000 261.000
49.98500 266.000
50.00000 254.000
50.01500 251.000
50.03000 233.000
50.04500 253.000
50.06000 252.000
50.07500 273.000
50.09000 277.000
50.10500 248.000
50.12000 239.000
50.13500 277.000
50.15000 282.000
50.16500 261.000
50.18000 251.000
50.19500 244.000
50.21000 247.000
50.22500 269.000
50.24000 235.000
50.25500 255.000
50.27000 221.000
50.28500 248.000
50.30000 235.000
50.31500 237.000
50.33000 243.000
50.34500 271.000
50.36000 257.000
50.37500 264.000
50.39000 257.000
50.40500 244.000
50.42000 241.000
50.43500 256.000
50.45000 272.000
50.46500 230.000
50.48000 248.000
50.49500 278.000
50.51000 252.000
50.52500 250.000
50.54000 240.000
50.55500 241.000
50.57000 253.000
50.58500 260.000
50.60000 225.000
50.61500 255.000
50.63000 266.000
50.64500 233.000
50.66000 270.000
50.67500 240.000
50.69000 236.000
50.70500 247.000
50.72000 243.000
50.73500 256.000
50.75000 240.000
50.76500 259.000
50.78000 248.000
50.79500 253.000
50.81000 237.000
50.82500 219.000
50.84000 237.000
50.85500 246.000
50.87000 236.000
50.88500 239.000
50.90000 249.000
50.91500 230.000
50.93000 238.000
50.94500 241.000
50.96000 241.000
50.97500 232.000
50.99000 251.000
51.00500 253.000
51.02000 258.000
51.03500 247.000
51.05000 238.000
51.06500 241.000
51.08000 249.000
51.09500 244.000
51.11000 230.000
51.12500 244.000
51.14000 242.000
51.15500 228.000
51.17000 227.000
51.18500 251.000
51.20000 247.000
51.21500 267.000
51.23000 256.000
51.24500 232.000
51.26000 237.000
51.27500 239.000
51.29000 245.000
51.30500 269.000
51.32000 274.000
51.33500 257.000
51.35000 244.000
51.36500 243.000
51.38000 234.000
51.39500 263.000
51.41000 252.000
51.42500 237.000
51.44000 253.000
51.45500 243.000
51.47000 246.000
51.48500 263.000
51.50000 234.000
51.51500 238.000
51.53000 228.000
51.54500 250.000
51.56000 240.000
51.57500 237.000
51.59000 237.000
51.60500 241.000
51.62000 227.000
51.63500 249.000
51.65000 296.000
51.66500 248.000
51.68000 247.000
51.69500 260.000
51.71000 243.000
51.72500 260.000
51.74000 223.000
51.75500 209.000
51.77000 215.000
51.78500 245.000
51.80000 278.000
51.81500 256.000
51.83000 244.000
51.84500 258.000
51.86000 241.000
51.87500 242.000
51.89000 241.000
51.90500 231.000
51.92000 242.000
51.93500 240.000
51.95000 242.000
51.96500 251.000
51.98000 256.000
51.99500 247.000
52.01000 237.000
52.02500 240.000
52.04000 249.000
52.05500 250.000
52.07000 238.000
52.08500 243.000
52.10000 229.000
52.11500 250.000
52.13000 269.000
52.14500 253.000
52.16000 254.000
52.17500 256.000
52.19000 246.000
52.20500 235.000
52.22000 226.000
52.23500 267.000
52.25000 245.000
52.26500 240.000
52.28000 220.000
52.29500 253.000
52.31000 271.000
52.32500 246.000
52.34000 248.000
52.35500 233.000
52.37000 242.000
52.38500 250.000
52.40000 263.000
52.41500 257.000
52.43000 218.000
52.44500 221.000
52.46000 224.000
52.47500 244.000
52.49000 253.000
52.50500 259.000
52.52000 242.000
52.53500 240.000
52.55000 229.000
52.56500 225.000
52.58000 245.000
52.59500 242.000
52.61000 232.000
52.62500 260.000
52.64000 221.000
52.65500 243.000
52.67000 261.000
52.68500 243.000
52.70000 226.000
52.71500 218.000
52.73000 244.000
52.74500 227.000
52.76000 262.000
52.77500 251.000
52.79000 258.000
52.80500 265.000
52.82000 235.000
52.83500 245.000
52.85000 232.000
52.86500 261.000
52.88000 241.000
52.89500 231.000
52.91000 232.000
52.92500 243.000
52.94000 256.000
52.95500 238.000
52.97000 259.000
52.98500 267.000
53.00000 266.000
53.01500 244.000
53.03000 272.000
53.04500 234.000
53.06000 253.000
53.07500 243.000
53.09000 246.000
53.10500 227.000
53.12000 234.000
53.13500 213.000
53.15000 245.000
53.16500 277.000
53.18000 259.000
53.19500 231.000
53.21000 238.000
53.22500 270.000
53.24000 266.000
53.25500 243.000
53.27000 240.000
53.28500 238.000
53.30000 256.000
53.31500 252.000
53.33000 243.000
53.34500 237.000
53.36000 256.000
53.37500 288.000
53.39000 260.000
53.40500 252.000
53.42000 247.000
53.43500 235.000
53.45000 251.000
53.46500 280.000
53.48000 281.000
53.49500 290.000
53.51000 280.000
53.52500 274.000
53.54000 258.000
53.55500 260.000
53.57000 270.000
53.58500 249.000
53.60000 275.000
53.61500 263.000
53.63000 252.000
53.64500 252.000
53.66000 265.000
53.67500 281.000
53.69000 273.000
53.70500 276.000
53.72000 258.000
53.73500 281.000
53.75000 267.000
53.76500 250.000
53.78000 251.000
53.79500 293.000
53.81000 264.000
53.82500 269.000
53.84000 280.000
53.85500 256.000
53.87000 255.000
53.88500 265.000
53.90000 275.000
53.91500 274.000
53.93000 269.000
53.94500 280.000
53.96000 273.000
53.97500 264.000
53.99000 281.000
54.00500 283.000
54.02000 266.000
54.03500 270.000
54.05000 255.000
54.06500 242.000
54.08000 247.000
54.09500 257.000
54.11000 238.000
54.12500 245.000
54.14000 260.000
54.15500 277.000
54.17000 289.000
54.18500 263.000
54.20000 262.000
54.21500 281.000
54.23000 266.000
54.24500 253.000
54.26000 268.000
54.27500 268.000
54.29000 264.000
54.30500 266.000
54.32000 260.000
54.33500 264.000
54.35000 244.000
54.36500 258.000
54.38000 264.000
54.39500 250.000
54.41000 254.000
54.42500 246.000
54.44000 257.000
54.45500 285.000
54.47000 253.000
54.48500 262.000
54.50000 265.000
54.51500 250.000
54.53000 236.000
54.54500 248.000
54.56000 258.000
54.57500 270.000
54.59000 246.000
54.60500 256.000
54.62000 252.000
54.63500 249.000
54.65000 284.000
54.66500 251.000
54.68000 263.000
54.69500 254.000
54.71000 260.000
54.72500 271.000
54.74000 268.000
54.75500 262.000
54.77000 264.000
54.78500 273.000
54.80000 264.000
54.81500 260.000
54.83000 262.000
54.84500 280.000
54.86000 248.000
54.87500 263.000
54.89000 263.000
54.90500 261.000
54.92000 237.000
54.93500 273.000
54.95000 291.000
54.96500 261.000
54.98000 261.000
54.99500 281.000
55.01000 266.000
55.02500 247.000
55.04000 263.000
55.05500 262.000
55.07000 239.000
55.08500 269.000
55.10000 258.000
55.11500 278.000
55.13000 275.000
55.14500 262.000
55.16000 268.000
55.17500 271.000
55.19000 273.000
55.20500 275.000
55.22000 253.000
55.23500 278.000
55.25000 279.000
55.26500 312.000
55.28000 288.000
55.29500 241.000
55.31000 237.000
55.32500 266.000
55.34000 274.000
55.35500 275.000
55.37000 243.000
55.38500 237.000
55.40000 252.000
55.41500 254.000
55.43000 248.000
55.44500 265.000
55.46000 264.000
55.47500 274.000
55.49000 247.000
55.50500 245.000
55.52000 251.000
55.53500 258.000
55.55000 265.000
55.56500 265.000
55.58000 246.000
55.59500 242.000
55.61000 264.000
55.62500 261.000
55.64000 261.000
55.65500 296.000
55.67000 256.000
55.68500 258.000
55.70000 274.000
55.71500 274.000
55.73000 263.000
55.74500 263.000
55.76000 245.000
55.77500 243.000
55.79000 247.000
55.80500 264.000
55.82000 260.000
55.83500 259.000
55.85000 285.000
55.86500 267.000
55.88000 259.000
55.89500 275.000
55.91000 243.000
55.92500 242.000
55.94000 241.000
55.95500 277.000
55.97000 256.000
55.98500 270.000
56.00000 238.000
56.01500 254.000
56.03000 251.000
56.04500 262.000
56.06000 256.000
56.07500 265.000
56.09000 251.000
56.10500 248.000
56.12000 240.000
56.13500 242.000
56.15000 238.000
56.16500 252.000
56.18000 252.000
56.19500 240.000
56.21000 241.000
56.22500 237.000
56.24000 247.000
56.25500 225.000
56.27000 237.000
56.28500 220.000
56.30000 246.000
56.31500 252.000
56.33000 265.000
56.34500 269.000
56.36000 235.000
56.37500 237.000
56.39000 247.000
56.40500 222.000
56.42000 254.000
56.43500 278.000
56.45000 271.000
56.46500 243.000
56.48000 225.000
56.49500 238.000
56.51000 238.000
56.52500 234.000
56.54000 243.000
56.55500 254.000
56.57000 235.000
56.58500 259.000
56.60000 267.000
56.61500 233.000
56.63000 244.000
56.64500 229.000
56.66000 229.000
56.67500 261.000
56.69000 260.000
56.70500 275.000
56.72000 254.000
56.73500 251.000
56.75000 257.000
56.76500 242.000
56.78000 242.000
56.79500 250.000
56.81000 232.000
56.82500 234.000
56.84000 259.000
56.85500 250.000
56.87000 244.000
56.88500 234.000
56.90000 240.000
56.91500 248.000
56.93000 227.000
56.94500 246.000
56.96000 228.000
56.97500 242.000
56.99000 258.000
57.00500 235.000
57.02000 253.000
57.03500 252.000
57.05000 219.000
57.06500 231.000
57.08000 250.000
57.09500 246.000
57.11000 249.000
57.12500 246.000
57.14000 217.000
57.15500 227.000
57.17000 225.000
57.18500 220.000
57.20000 234.000
57.21500 235.000
57.23000 258.000
57.24500 259.000
57.26000 247.000
57.27500 242.000
57.29000 242.000
57.30500 252.000
57.32000 250.000
57.33500 254.000
57.35000 263.000
57.36500 257.000
57.38000 247.000
57.39500 231.000
57.41000 260.000
57.42500 273.000
57.44000 246.000
57.45500 234.000
57.47000 259.000
57.48500 238.000
57.50000 229.000
57.51500 243.000
57.53000 261.000
57.54500 241.000
57.56000 259.000
57.57500 259.000
57.59000 248.000
57.60500 232.000
57.62000 258.000
57.63500 257.000
57.65000 258.000
57.66500 237.000
57.68000 284.000
57.69500 246.000
57.71000 223.000
57.72500 244.000
57.74000 257.000
57.75500 258.000
57.77000 235.000
57.78500 245.000
57.80000 251.000
57.81500 235.000
57.83000 253.000
57.84500 267.000
57.86000 270.000
57.87500 251.000
57.89000 262.000
57.90500 264.000
57.92000 260.000
57.93500 255.000
57.95000 258.000
57.96500 271.000
57.98000 261.000
57.99500 270.000
58.01000 252.000
58.02500 231.000
58.04000 246.000
58.05500 236.000
58.07000 262.000
58.08500 244.000
58.10000 270.000
58.11500 263.000
58.13000 239.000
58.14500 228.000
58.16000 264.000
58.17500 265.000
58.19000 250.000
58.20500 242.000
58.22000 255.000
58.23500 248.000
58.25000 230.000
58.26500 221.000
58.28000 218.000
58.29500 239.000
58.31000 268.000
58.32500 239.000
58.34000 251.000
58.35500 237.000
58.37000 251.000
58.38500 244.000
58.40000 229.000
58.41500 232.000
58.43000 247.000
58.44500 265.000
58.46000 244.000
58.47500 231.000
58.49000 267.000
58.50500 233.000
58.52000 241.000
58.53500 237.000
58.55000 239.000
58.56500 234.000
58.58000 224.000
58.59500 238.000
58.61000 226.000
58.62500 252.000
58.64000 240.000
58.65500 224.000
58.67000 210.000
58.68500 221.000
58.70000 227.000
58.71500 232.000
58.73000 236.000
58.74500 214.000
58.76000 210.000
58.77500 224.000
58.79000 224.000
58.80500 215.000
58.82000 222.000
58.83500 226.000
58.85000 223.000
58.86500 218.000
58.88000 209.000
58.89500 215.000
58.91000 213.000
58.92500 231.000
58.94000 237.000
58.95500 231.000
58.97000 234.000
58.98500 216.000
59.00000 205.000
59.01500 235.000
59.03000 207.000
59.04500 210.000
59.06000 222.000
59.07500 204.000
59.09000 210.000
59.10500 223.000
59.12000 231.000
59.13500 252.000
59.15000 213.000
59.16500 224.000
59.18000 223.000
59.19500 227.000
59.21000 205.000
59.22500 212.000
59.24000 208.000
59.25500 208.000
59.27000 204.000
59.28500 216.000
59.30000 219.000
59.31500 239.000
59.33000 212.000
59.34500 225.000
59.36000 216.000
59.37500 218.000
59.39000 241.000
59.40500 218.000
59.42000 212.000
59.43500 202.000
59.45000 207.000
59.46500 213.000
59.48000 215.000
59.49500 211.000
59.51000 218.000
59.52500 206.000
59.54000 222.000
59.55500 221.000
59.57000 183.000
59.58500 198.000
59.60000 199.000
59.61500 205.000
59.63000 222.000
59.64500 220.000
59.66000 212.000
59.67500 211.000
59.69000 218.000
59.70500 198.000
59.72000 197.000
59.73500 215.000
59.75000 208.000
59.76500 194.000
59.78000 200.000
59.79500 225.000
59.81000 228.000
59.82500 214.000
59.84000 218.000
59.85500 219.000
59.87000 205.000
59.88500 222.000
59.90000 204.000
59.91500 212.000
59.93000 214.000
59.94500 199.000
59.96000 195.000
59.97500 210.000
59.99000 209.000
60.00500 212.000
60.02000 218.000
60.03500 222.000
60.05000 212.000
60.06500 189.000
60.08000 207.000
60.09500 191.000
60.11000 193.000
60.12500 224.000
60.14000 222.000
60.15500 211.000
60.17000 234.000
60.18500 224.000
60.20000 227.000
60.21500 215.000
60.23000 193.000
60.24500 206.000
60.26000 207.000
60.27500 184.000
60.29000 194.000
60.30500 195.000
60.32000 204.000
60.33500 201.000
60.35000 235.000
60.36500 220.000
60.38000 202.000
60.39500 194.000
60.41000 196.000
60.42500 215.000
60.44000 214.000
60.45500 210.000
60.47000 214.000
60.48500 203.000
60.50000 210.000
60.51500 207.000
60.53000 190.000
60.54500 206.000
60.56000 206.000
60.57500 189.000
60.59000 208.000
60.60500 200.000
60.62000 209.000
60.63500 195.000
60.65000 191.000
60.66500 216.000
60.68000 219.000
60.69500 211.000
60.71000 211.000
60.72500 201.000
60.74000 196.000
60.75500 201.000
60.77000 207.000
60.78500 209.000
60.80000 209.000
60.81500 190.000
60.83000 202.000
60.84500 216.000
60.86000 217.000
60.87500 219.000
60.89000 215.000
60.90500 195.000
60.92000 183.000
60.93500 196.000
60.95000 203.000
60.96500 204.000
60.98000 201.000
60.99500 212.000
61.01000 218.000
61.02500 211.000
61.04000 199.000
61.05500 187.000
61.07000 202.000
61.08500 197.000
61.10000 211.000
61.11500 193.000
61.13000 199.000
61.14500 200.000
61.16000 215.000
61.17500 204.000
61.19000 200.000
61.20500 182.000
61.22000 194.000
61.23500 212.000
61.25000 202.000
61.26500 201.000
61.28000 202.000
61.29500 209.000
61.31000 191.000
61.32500 195.000
61.34000 204.000
61.35500 224.000
61.37000 216.000
61.38500 200.000
61.40000 204.000
61.41500 195.000
61.43000 205.000
61.44500 209.000
61.46000 211.000
61.47500 211.000
61.49000 186.000
61.50500 197.000
61.52000 207.000
61.53500 210.000
61.55000 192.000
61.56500 203.000
61.58000 180.000
61.59500 215.000
61.61000 206.000
61.62500 210.000
61.64000 202.000
61.65500 205.000
61.67000 202.000
61.68500 183.000
61.70000 182.000
61.71500 202.000
61.73000 210.000
61.74500 177.000
61.76000 198.000
61.77500 221.000
61.79000 193.000
61.80500 187.000
61.82000 204.000
61.83500 190.000
61.85000 192.000
61.86500 180.000
61.88000 177.000
61.89500 204.000
61.91000 212.000
61.92500 199.000
61.94000 184.000
61.95500 181.000
61.97000 192.000
61.98500 200.000
