2.00000 0.000
2.01500 0.000
2.03000 2.000
2.04500 1.000
2.06000 1.000
2.07500 2.000
2.09000 2.000
2.10500 1.000
2.12000 2.000
2.13500 2.000
2.15000 1.000
2.16500 2.000
2.18000 2.000
2.19500 2.000
2.21000 2.000
2.22500 1.000
2.24000 1.000
2.25500 1.000
2.27000 2.000
2.28500 3.000
2.30000 3.000
2.31500 3.000
2.33000 4.000
2.34500 2.000
2.36000 1.000
2.37500 0.000
2.39000 1.000
2.40500 3.000
2.42000 1.000
2.43500 3.000
2.45000 2.000
2.46500 2.000
2.48000 0.000
2.49500 2.000
2.51000 3.000
2.52500 2.000
2.54000 1.000
2.55500 2.000
2.57000 2.000
2.58500 2.000
2.60000 3.000
2.61500 1.000
2.63000 2.000
2.64500 2.000
2.66000 3.000
2.67500 1.000
2.69000 2.000
2.70500 2.000
2.72000 2.000
2.73500 3.000
2.75000 1.000
2.76500 1.000
2.78000 1.000
2.79500 1.000
2.81000 1.000
2.82500 1.000
2.84000 0.000
2.85500 2.000
2.87000 3.000
2.88500 0.000
2.90000 2.000
2.91500 3.000
2.93000 0.000
2.94500 1.000
2.96000 4.000
2.97500 5.000
2.99000 2.000
3.00500 5.000
3.02000 8.000
3.03500 9.000
3.05000 14.000
3.06500 22.000
3.08000 31.000
3.09500 43.000
3.11000 52.000
3.12500 54.000
3.14000 72.000
3.15500 76.000
3.17000 68.000
3.18500 73.000
3.20000 79.000
3.21500 92.000
3.23000 100.000
3.24500 110.000
3.26000 91.000
3.27500 92.000
3.29000 85.000
3.30500 98.000
3.32000 106.000
3.33500 102.000
3.35000 102.000
3.36500 93.000
3.38000 108.000
3.39500 102.000
3.41000 102.000
3.42500 100.000
3.44000 103.000
3.45500 101.000
3.47000 88.000
3.48500 104.000
3.50000 128.000
3.51500 119.000
3.53000 97.000
3.54500 107.000
3.56000 112.000
3.57500 99.000
3.59000 104.000
3.60500 94.000
3.62000 113.000
3.63500 100.000
3.65000 105.000
3.66500 105.000
3.68000 108.000
3.69500 102.000
3.71000 100.000
3.72500 110.000
3.74000 97.000
3.75500 114.000
3.77000 107.000
3.78500 103.000
3.80000 108.000
3.81500 113.000
3.83000 108.000
3.84500 114.000
3.86000 130.000
3.87500 114.000
3.89000 123.000
3.90500 112.000
3.92000 119.000
3.93500 113.000
3.95000 126.000
3.96500 128.000
3.98000 127.000
3.99500 107.000
4.01000 101.000
4.02500 119.000
4.04000 119.000
4.05500 121.000
4.07000 123.000
4.08500 127.000
4.10000 132.000
4.11500 139.000
4.13000 130.000
4.14500 135.000
4.16000 122.000
4.17500 105.000
4.19000 116.000
4.20500 118.000
4.22000 131.000
4.23500 130.000
4.25000 116.000
4.26500 120.000
4.28000 137.000
4.29500 137.000
4.31000 136.000
4.32500 124.000
4.34000 119.000
4.35500 114.000
4.37000 125.000
4.38500 121.000
4.40000 121.000
4.41500 146.000
4.43000 149.000
4.44500 159.000
4.46000 142.000
4.47500 140.000
4.49000 121.000
4.50500 138.000
4.52000 144.000
4.53500 141.000
4.55000 140.000
4.56500 129.000
4.58000 108.000
4.59500 133.000
4.61000 151.000
4.62500 150.000
4.64000 136.000
4.65500 134.000
4.67000 146.000
4.68500 149.000
4.70000 132.000
4.71500 138.000
4.73000 135.000
4.74500 140.000
4.76000 148.000
4.77500 149.000
4.79000 144.000
4.80500 131.000
4.82000 131.000
4.83500 156.000
4.85000 150.000
4.86500 133.000
4.88000 148.000
4.89500 158.000
4.91000 127.000
4.92500 127.000
4.94000 139.000
4.95500 143.000
4.97000 145.000
4.98500 143.000
5.00000 162.000
5.01500 159.000
5.03000 157.000
5.04500 142.000
5.06000 159.000
5.07500 158.000
5.09000 143.000
5.10500 148.000
5.12000 148.000
5.13500 147.000
5.15000 167.000
5.16500 177.000
5.18000 167.000
5.19500 156.000
5.21000 161.000
5.22500 152.000
5.24000 173.000
5.25500 153.000
5.27000 175.000
5.28500 172.000
5.30000 148.000
5.31500 152.000
5.33000 154.000
5.34500 151.000
5.36000 149.000
5.37500 163.000
5.39000 165.000
5.40500 160.000
5.42000 143.000
5.43500 170.000
5.45000 152.000
5.46500 155.000
5.48000 154.000
5.49500 163.000
5.51000 169.000
5.52500 169.000
5.54000 161.000
5.55500 163.000
5.57000 163.000
5.58500 163.000
5.60000 177.000
5.61500 169.000
5.63000 187.000
5.64500 152.000
5.66000 166.000
5.67500 169.000
5.69000 178.000
5.70500 157.000
5.72000 159.000
5.73500 163.000
5.75000 186.000
5.76500 170.000
5.78000 170.000
5.79500 157.000
5.81000 159.000
5.82500 154.000
5.84000 172.000
5.85500 173.000
5.87000 173.000
5.88500 154.000
5.90000 173.000
5.91500 165.000
5.93000 186.000
5.94500 185.000
5.96000 167.000
5.97500 169.000
5.99000 181.000
6.00500 161.000
6.02000 143.000
6.03500 174.000
6.05000 159.000
6.06500 159.000
6.08000 174.000
6.09500 185.000
6.11000 180.000
6.12500 163.000
6.14000 187.000
6.15500 191.000
6.17000 173.000
6.18500 183.000
6.20000 172.000
6.21500 186.000
6.23000 185.000
6.24500 174.000
6.26000 179.000
6.27500 171.000
6.29000 180.000
6.30500 181.000
6.32000 197.000
6.33500 172.000
6.35000 194.000
6.36500 169.000
6.38000 202.000
6.39500 180.000
6.41000 185.000
6.42500 192.000
6.44000 198.000
6.45500 203.000
6.47000 184.000
6.48500 189.000
6.50000 194.000
6.51500 186.000
6.53000 211.000
6.54500 196.000
6.56000 186.000
6.57500 195.000
6.59000 192.000
6.60500 195.000
6.62000 183.000
6.63500 179.000
6.65000 193.000
6.66500 208.000
6.68000 185.000
6.69500 181.000
6.71000 184.000
6.72500 176.000
6.74000 179.000
6.75500 181.000
6.77000 173.000
6.78500 206.000
6.80000 175.000
6.81500 206.000
6.83000 212.000
6.84500 210.000
6.86000 194.000
6.87500 216.000
6.89000 221.000
6.90500 220.000
6.92000 205.000
6.93500 235.000
6.95000 218.000
6.96500 222.000
6.98000 222.000
6.99500 230.000
7.01000 243.000
7.02500 267.000
7.04000 270.000
7.05500 285.000
7.07000 301.000
7.08500 304.000
7.10000 308.000
7.11500 341.000
7.13000 347.000
7.14500 366.000
7.16000 406.000
7.17500 431.000
7.19000 469.000
7.20500 477.000
7.22000 510.000
7.23500 581.000
7.25000 659.000
7.26500 744.000
7.28000 859.000
7.29500 890.000
7.31000 764.000
7.32500 635.000
7.34000 499.000
7.35500 377.000
7.37000 334.000
7.38500 287.000
7.40000 271.000
7.41500 284.000
7.43000 263.000
7.44500 264.000
7.46000 250.000
7.47500 249.000
7.49000 241.000
7.50500 251.000
7.52000 234.000
7.53500 247.000
7.55000 240.000
7.56500 221.000
7.58000 241.000
7.59500 224.000
7.61000 224.000
7.62500 238.000
7.64000 215.000
7.65500 211.000
7.67000 234.000
7.68500 228.000
7.70000 229.000
7.71500 221.000
7.73000 246.000
7.74500 228.000
7.76000 239.000
7.77500 240.000
7.79000 243.000
7.80500 249.000
7.82000 251.000
7.83500 242.000
7.85000 223.000
7.86500 231.000
7.88000 204.000
7.89500 241.000
7.91000 245.000
7.92500 260.000
7.94000 278.000
7.95500 263.000
7.97000 281.000
7.98500 272.000
8.00000 264.000
8.01500 271.000
8.03000 275.000
8.04500 271.000
8.06000 305.000
8.07500 297.000
8.09000 280.000
8.10500 291.000
8.12000 322.000
8.13500 320.000
8.15000 314.000
8.16500 342.000
8.18000 336.000
8.19500 336.000
8.21000 331.000
8.22500 360.000
8.24000 388.000
8.25500 369.000
8.27000 339.000
8.28500 371.000
8.30000 398.000
8.31500 406.000
8.33000 431.000
8.34500 440.000
8.36000 456.000
8.37500 461.000
8.39000 524.000
8.40500 525.000
8.42000 575.000
8.43500 611.000
8.45000 632.000
8.46500 728.000
8.48000 737.000
8.49500 723.000
8.51000 691.000
8.52500 640.000
8.54000 595.000
8.55500 569.000
8.57000 510.000
8.58500 459.000
8.60000 445.000
8.61500 425.000
8.63000 404.000
8.64500 413.000
8.66000 443.000
8.67500 454.000
8.69000 468.000
8.70500 500.000
8.72000 546.000
8.73500 561.000
8.75000 616.000
8.76500 670.000
8.78000 699.000
8.79500 796.000
8.81000 912.000
8.82500 1028.000
8.84000 1047.000
8.85500 1073.000
8.87000 939.000
8.88500 806.000
8.90000 600.000
8.91500 510.000
8.93000 432.000
8.94500 366.000
8.96000 315.000
8.97500 321.000
8.99000 310.000
9.00500 262.000
9.02000 260.000
9.03500 241.000
9.05000 237.000
9.06500 237.000
9.08000 265.000
9.09500 266.000
9.11000 244.000
9.12500 221.000
9.14000 233.000
9.15500 229.000
9.17000 229.000
9.18500 242.000
9.20000 240.000
9.21500 228.000
9.23000 234.000
9.24500 239.000
9.26000 235.000
9.27500 206.000
9.29000 217.000
9.30500 248.000
9.32000 210.000
9.33500 218.000
9.35000 226.000
9.36500 223.000
9.38000 222.000
9.39500 245.000
9.41000 216.000
9.42500 198.000
9.44000 204.000
9.45500 233.000
9.47000 220.000
9.48500 255.000
9.50000 227.000
9.51500 207.000
9.53000 207.000
9.54500 219.000
9.56000 234.000
9.57500 225.000
9.59000 230.000
9.60500 220.000
9.62000 232.000
9.63500 239.000
9.65000 219.000
9.66500 232.000
9.68000 234.000
9.69500 245.000
9.71000 213.000
9.72500 212.000
9.74000 230.000
9.75500 227.000
9.77000 231.000
9.78500 259.000
9.80000 264.000
9.81500 255.000
9.83000 240.000
9.84500 245.000
9.86000 277.000
9.87500 292.000
9.89000 290.000
9.90500 300.000
9.92000 319.000
9.93500 323.000
9.95000 354.000
9.96500 372.000
9.98000 389.000
9.99500 375.000
10.01000 403.000
10.02500 408.000
10.04000 399.000
10.05500 367.000
10.07000 339.000
10.08500 291.000
10.10000 265.000
10.11500 267.000
10.13000 258.000
10.14500 237.000
10.16000 241.000
10.17500 238.000
10.19000 222.000
10.20500 229.000
10.22000 215.000
10.23500 243.000
10.25000 221.000
10.26500 218.000
10.28000 212.000
10.29500 197.000
10.31000 209.000
10.32500 199.000
10.34000 214.000
10.35500 227.000
10.37000 223.000
10.38500 231.000
10.40000 192.000
10.41500 198.000
10.43000 212.000
10.44500 195.000
10.46000 202.000
10.47500 197.000
10.49000 220.000
10.50500 215.000
10.52000 210.000
10.53500 234.000
10.55000 206.000
10.56500 201.000
10.58000 203.000
10.59500 206.000
10.61000 224.000
10.62500 192.000
10.64000 204.000
10.65500 190.000
10.67000 208.000
10.68500 209.000
10.70000 212.000
10.71500 215.000
10.73000 190.000
10.74500 204.000
10.76000 221.000
10.77500 217.000
10.79000 196.000
10.80500 201.000
10.82000 216.000
10.83500 213.000
10.85000 214.000
10.86500 202.000
10.88000 213.000
10.89500 192.000
10.91000 192.000
10.92500 204.000
10.94000 206.000
10.95500 209.000
10.97000 211.000
10.98500 203.000
11.00000 205.000
11.01500 183.000
11.03000 207.000
11.04500 180.000
11.06000 209.000
11.07500 241.000
11.09000 217.000
11.10500 218.000
11.12000 197.000
11.13500 187.000
11.15000 224.000
11.16500 211.000
11.18000 193.000
11.19500 196.000
11.21000 208.000
11.22500 228.000
11.24000 199.000
11.25500 191.000
11.27000 177.000
11.28500 202.000
11.30000 207.000
11.31500 214.000
11.33000 179.000
11.34500 180.000
11.36000 199.000
11.37500 197.000
11.39000 197.000
11.40500 207.000
11.42000 191.000
11.43500 220.000
11.45000 206.000
11.46500 186.000
11.48000 219.000
11.49500 227.000
11.51000 220.000
11.52500 231.000
11.54000 204.000
11.55500 218.000
11.57000 199.000
11.58500 193.000
11.60000 200.000
11.61500 208.000
11.63000 210.000
11.64500 203.000
11.66000 218.000
11.67500 201.000
11.69000 222.000
11.70500 209.000
11.72000 223.000
11.73500 208.000
11.75000 188.000
11.76500 196.000
11.78000 210.000
11.79500 216.000
11.81000 218.000
11.82500 200.000
11.84000 206.000
11.85500 185.000
11.87000 178.000
11.88500 191.000
11.90000 206.000
11.91500 203.000
11.93000 200.000
11.94500 216.000
11.96000 199.000
11.97500 192.000
11.99000 201.000
12.00500 200.000
12.02000 223.000
12.03500 220.000
12.05000 203.000
12.06500 192.000
12.08000 213.000
12.09500 223.000
12.11000 196.000
12.12500 212.000
12.14000 203.000
12.15500 215.000
12.17000 203.000
12.18500 209.000
12.20000 214.000
12.21500 208.000
12.23000 228.000
12.24500 217.000
12.26000 225.000
12.27500 250.000
12.29000 230.000
12.30500 255.000
12.32000 239.000
12.33500 272.000
12.35000 260.000
12.36500 290.000
12.38000 312.000
12.39500 317.000
12.41000 340.000
12.42500 296.000
12.44000 305.000
12.45500 260.000
12.47000 258.000
12.48500 262.000
12.50000 260.000
12.51500 244.000
12.53000 258.000
12.54500 235.000
12.56000 206.000
12.57500 209.000
12.59000 203.000
12.60500 196.000
12.62000 197.000
12.63500 220.000
12.65000 205.000
12.66500 210.000
12.68000 207.000
12.69500 215.000
12.71000 237.000
12.72500 235.000
12.74000 231.000
12.75500 229.000
12.77000 203.000
12.78500 226.000
12.80000 231.000
12.81500 198.000
12.83000 222.000
12.84500 203.000
12.86000 217.000
12.87500 207.000
12.89000 215.000
12.90500 220.000
12.92000 204.000
12.93500 221.000
12.95000 199.000
12.96500 212.000
12.98000 213.000
12.99500 203.000
13.01000 227.000
13.02500 226.000
13.04000 213.000
13.05500 246.000
13.07000 205.000
13.08500 219.000
13.10000 232.000
13.11500 212.000
13.13000 223.000
13.14500 217.000
13.16000 213.000
13.17500 221.000
13.19000 218.000
13.20500 213.000
13.22000 228.000
13.23500 225.000
13.25000 220.000
13.26500 233.000
13.28000 219.000
13.29500 240.000
13.31000 227.000
13.32500 223.000
13.34000 238.000
13.35500 216.000
13.37000 232.000
13.38500 238.000
13.40000 238.000
13.41500 256.000
13.43000 228.000
13.44500 239.000
13.46000 208.000
13.47500 224.000
13.49000 212.000
13.50500 200.000
13.52000 206.000
13.53500 237.000
13.55000 221.000
13.56500 225.000
13.58000 218.000
13.59500 223.000
13.61000 207.000
13.62500 210.000
13.64000 215.000
13.65500 195.000
13.67000 214.000
13.68500 217.000
13.70000 208.000
13.71500 223.000
13.73000 208.000
13.74500 193.000
13.76000 208.000
13.77500 229.000
13.79000 206.000
13.80500 198.000
13.82000 215.000
13.83500 214.000
13.85000 214.000
13.86500 198.000
13.88000 189.000
13.89500 201.000
13.91000 208.000
13.92500 206.000
13.94000 191.000
13.95500 207.000
13.97000 217.000
13.98500 201.000
14.00000 227.000
14.01500 237.000
14.03000 225.000
14.04500 219.000
14.06000 221.000
14.07500 204.000
14.09000 224.000
14.10500 231.000
14.12000 237.000
14.13500 219.000
14.15000 236.000
14.16500 240.000
14.18000 221.000
14.19500 243.000
14.21000 255.000
14.22500 250.000
14.24000 233.000
14.25500 238.000
14.27000 226.000
14.28500 242.000
14.30000 253.000
14.31500 224.000
14.33000 237.000
14.34500 231.000
14.36000 260.000
14.37500 247.000
14.39000 256.000
14.40500 247.000
14.42000 220.000
14.43500 233.000
14.45000 244.000
14.46500 223.000
14.48000 236.000
14.49500 242.000
14.51000 228.000
14.52500 219.000
14.54000 237.000
14.55500 229.000
14.57000 272.000
14.58500 269.000
14.60000 259.000
14.61500 269.000
14.63000 278.000
14.64500 241.000
14.66000 272.000
14.67500 288.000
14.69000 267.000
14.70500 256.000
14.72000 271.000
14.73500 286.000
14.75000 239.000
14.76500 262.000
14.78000 240.000
14.79500 238.000
14.81000 245.000
14.82500 256.000
14.84000 247.000
14.85500 226.000
14.87000 236.000
14.88500 229.000
14.90000 209.000
14.91500 239.000
14.93000 230.000
14.94500 228.000
14.96000 225.000
14.97500 218.000
14.99000 220.000
15.00500 241.000
15.02000 226.000
15.03500 218.000
15.05000 223.000
15.06500 214.000
15.08000 222.000
15.09500 219.000
15.11000 232.000
15.12500 212.000
15.14000 222.000
15.15500 237.000
15.17000 202.000
15.18500 210.000
15.20000 219.000
15.21500 203.000
15.23000 218.000
15.24500 225.000
15.26000 225.000
15.27500 215.000
15.29000 219.000
15.30500 206.000
15.32000 217.000
15.33500 219.000
15.35000 247.000
15.36500 233.000
15.38000 223.000
15.39500 220.000
15.41000 214.000
15.42500 236.000
15.44000 227.000
15.45500 218.000
15.47000 210.000
15.48500 227.000
15.50000 228.000
15.51500 228.000
15.53000 231.000
15.54500 212.000
15.56000 245.000
15.57500 245.000
15.59000 244.000
15.60500 244.000
15.62000 222.000
15.63500 229.000
15.65000 245.000
15.66500 235.000
15.68000 237.000
15.69500 217.000
15.71000 237.000
15.72500 228.000
15.74000 218.000
15.75500 233.000
15.77000 235.000
15.78500 243.000
15.80000 246.000
15.81500 236.000
15.83000 241.000
15.84500 229.000
15.86000 243.000
15.87500 240.000
15.89000 254.000
15.90500 276.000
15.92000 229.000
15.93500 229.000
15.95000 224.000
15.96500 226.000
15.98000 212.000
15.99500 220.000
16.01000 210.000
16.02500 205.000
16.04000 189.000
16.05500 216.000
16.07000 216.000
16.08500 222.000
16.10000 247.000
16.11500 209.000
16.13000 230.000
16.14500 251.000
16.16000 230.000
16.17500 218.000
16.19000 232.000
16.20500 235.000
16.22000 223.000
16.23500 214.000
16.25000 220.000
16.26500 224.000
16.28000 224.000
16.29500 248.000
16.31000 227.000
16.32500 245.000
16.34000 231.000
16.35500 221.000
16.37000 215.000
16.38500 202.000
16.40000 210.000
16.41500 243.000
16.43000 252.000
16.44500 237.000
16.46000 239.000
16.47500 222.000
16.49000 223.000
16.50500 230.000
16.52000 240.000
16.53500 220.000
16.55000 203.000
16.56500 231.000
16.58000 240.000
16.59500 234.000
16.61000 216.000
16.62500 239.000
16.64000 212.000
16.65500 226.000
16.67000 234.000
16.68500 245.000
16.70000 245.000
16.71500 267.000
16.73000 259.000
16.74500 274.000
16.76000 257.000
16.77500 248.000
16.79000 278.000
16.80500 261.000
16.82000 265.000
16.83500 271.000
16.85000 264.000
16.86500 243.000
16.88000 228.000
16.89500 252.000
16.91000 249.000
16.92500 245.000
16.94000 218.000
16.95500 230.000
16.97000 243.000
16.98500 242.000
17.00000 224.000
17.01500 240.000
17.03000 248.000
17.04500 231.000
17.06000 239.000
17.07500 246.000
17.09000 254.000
17.10500 240.000
17.12000 231.000
17.13500 245.000
17.15000 243.000
17.16500 214.000
17.18000 217.000
17.19500 229.000
17.21000 221.000
17.22500 247.000
17.24000 222.000
17.25500 222.000
17.27000 232.000
17.28500 217.000
17.30000 219.000
17.31500 222.000
17.33000 215.000
17.34500 235.000
17.36000 239.000
17.37500 233.000
17.39000 235.000
17.40500 237.000
17.42000 233.000
17.43500 241.000
17.45000 245.000
17.46500 251.000
17.48000 224.000
17.49500 216.000
17.51000 224.000
17.52500 217.000
17.54000 228.000
17.55500 241.000
17.57000 238.000
17.58500 259.000
17.60000 258.000
17.61500 250.000
17.63000 242.000
17.64500 228.000
17.66000 257.000
17.67500 240.000
17.69000 226.000
17.70500 246.000
17.72000 240.000
17.73500 263.000
17.75000 247.000
17.76500 262.000
17.78000 255.000
17.79500 236.000
17.81000 253.000
17.82500 248.000
17.84000 238.000
17.85500 232.000
17.87000 231.000
17.88500 247.000
17.90000 243.000
17.91500 241.000
17.93000 225.000
17.94500 231.000
17.96000 246.000
17.97500 230.000
17.99000 252.000
18.00500 245.000
18.02000 246.000
18.03500 242.000
18.05000 209.000
18.06500 238.000
18.08000 239.000
18.09500 247.000
18.11000 237.000
18.12500 232.000
18.14000 236.000
18.15500 254.000
18.17000 231.000
18.18500 243.000
18.20000 240.000
18.21500 258.000
18.23000 256.000
18.24500 247.000
18.26000 240.000
18.27500 239.000
18.29000 240.000
18.30500 251.000
18.32000 238.000
18.33500 249.000
18.35000 258.000
18.36500 241.000
18.38000 253.000
18.39500 245.000
18.41000 256.000
18.42500 262.000
18.44000 248.000
18.45500 246.000
18.47000 240.000
18.48500 264.000
18.50000 247.000
18.51500 248.000
18.53000 247.000
18.54500 265.000
18.56000 267.000
18.57500 246.000
18.59000 263.000
18.60500 259.000
18.62000 232.000
18.63500 253.000
18.65000 227.000
18.66500 238.000
18.68000 242.000
18.69500 265.000
18.71000 265.000
18.72500 218.000
18.74000 252.000
18.75500 257.000
18.77000 272.000
18.78500 239.000
18.80000 231.000
18.81500 222.000
18.83000 237.000
18.84500 253.000
18.86000 259.000
18.87500 246.000
18.89000 279.000
18.90500 252.000
18.92000 254.000
18.93500 260.000
18.95000 234.000
18.96500 241.000
18.98000 244.000
18.99500 243.000
19.01000 254.000
19.02500 252.000
19.04000 258.000
19.05500 239.000
19.07000 243.000
19.08500 260.000
19.10000 251.000
19.11500 246.000
19.13000 223.000
19.14500 208.000
19.16000 225.000
19.17500 255.000
19.19000 261.000
19.20500 227.000
19.22000 261.000
19.23500 271.000
19.25000 260.000
19.26500 244.000
19.28000 273.000
19.29500 279.000
19.31000 266.000
19.32500 235.000
19.34000 231.000
19.35500 251.000
19.37000 240.000
19.38500 239.000
19.40000 242.000
19.41500 230.000
19.43000 238.000
19.44500 264.000
19.46000 243.000
19.47500 254.000
19.49000 248.000
19.50500 240.000
19.52000 238.000
19.53500 231.000
19.55000 245.000
19.56500 265.000
19.58000 290.000
19.59500 252.000
19.61000 241.000
19.62500 241.000
19.64000 253.000
19.65500 251.000
19.67000 252.000
19.68500 257.000
19.70000 269.000
19.71500 275.000
19.73000 293.000
19.74500 268.000
19.76000 278.000
19.77500 263.000
19.79000 267.000
19.80500 280.000
19.82000 276.000
19.83500 262.000
19.85000 256.000
19.86500 280.000
19.88000 263.000
19.89500 300.000
19.91000 271.000
19.92500 268.000
19.94000 287.000
19.95500 272.000
19.97000 291.000
19.98500 312.000
20.00000 302.000
20.01500 295.000
20.03000 283.000
20.04500 279.000
20.06000 286.000
20.07500 324.000
20.09000 298.000
20.10500 327.000
20.12000 313.000
20.13500 328.000
20.15000 348.000
20.16500 365.000
20.18000 335.000
20.19500 296.000
20.21000 327.000
20.22500 323.000
20.24000 292.000
20.25500 294.000
20.27000 297.000
20.28500 293.000
20.30000 305.000
20.31500 298.000
20.33000 290.000
20.34500 280.000
20.36000 268.000
20.37500 254.000
20.39000 287.000
20.40500 284.000
20.42000 278.000
20.43500 277.000
20.45000 263.000
20.46500 258.000
20.48000 272.000
20.49500 247.000
20.51000 291.000
20.52500 295.000
20.54000 283.000
20.55500 292.000
20.57000 295.000
20.58500 287.000
20.60000 259.000
20.61500 275.000
20.63000 294.000
20.64500 282.000
20.66000 290.000
20.67500 324.000
20.69000 321.000
20.70500 312.000
20.72000 302.000
20.73500 304.000
20.75000 318.000
20.76500 299.000
20.78000 288.000
20.79500 291.000
20.81000 316.000
20.82500 316.000
20.84000 287.000
20.85500 281.000
20.87000 284.000
20.88500 301.000
20.90000 298.000
20.91500 284.000
20.93000 307.000
20.94500 287.000
20.96000 287.000
20.97500 339.000
20.99000 314.000
21.00500 321.000
21.02000 326.000
21.03500 325.000
21.05000 341.000
21.06500 370.000
21.08000 388.000
21.09500 373.000
21.11000 358.000
21.12500 350.000
21.14000 314.000
21.15500 334.000
21.17000 323.000
21.18500 313.000
21.20000 307.000
21.21500 319.000
21.23000 304.000
21.24500 322.000
21.26000 314.000
21.27500 313.000
21.29000 321.000
21.30500 325.000
21.32000 314.000
21.33500 304.000
21.35000 318.000
21.36500 335.000
21.38000 323.000
21.39500 328.000
21.41000 335.000
21.42500 326.000
21.44000 370.000
21.45500 354.000
21.47000 339.000
21.48500 327.000
21.50000 339.000
21.51500 313.000
21.53000 334.000
21.54500 326.000
21.56000 325.000
21.57500 317.000
21.59000 310.000
21.60500 315.000
21.62000 317.000
21.63500 297.000
21.65000 303.000
21.66500 304.000
21.68000 301.000
21.69500 305.000
21.71000 313.000
21.72500 302.000
21.74000 299.000
21.75500 324.000
21.77000 310.000
21.78500 307.000
21.80000 293.000
21.81500 295.000
21.83000 308.000
21.84500 304.000
21.86000 302.000
21.87500 305.000
21.89000 307.000
21.90500 306.000
21.92000 307.000
21.93500 319.000
21.95000 325.000
21.96500 295.000
21.98000 301.000
21.99500 310.000
22.01000 323.000
22.02500 318.000
22.04000 316.000
22.05500 300.000
22.07000 321.000
22.08500 324.000
22.10000 304.000
22.11500 312.000
22.13000 288.000
22.14500 286.000
22.16000 296.000
22.17500 277.000
22.19000 281.000
22.20500 297.000
22.22000 323.000
22.23500 312.000
22.25000 329.000
22.26500 312.000
22.28000 310.000
22.29500 292.000
22.31000 311.000
22.32500 333.000
22.34000 318.000
22.35500 335.000
22.37000 325.000
22.38500 332.000
22.40000 313.000
22.41500 339.000
22.43000 329.000
22.44500 313.000
22.46000 346.000
22.47500 369.000
22.49000 385.000
22.50500 382.000
22.52000 388.000
22.53500 388.000
22.55000 399.000
22.56500 423.000
22.58000 436.000
22.59500 460.000
22.61000 457.000
22.62500 441.000
22.64000 451.000
22.65500 473.000
22.67000 483.000
22.68500 454.000
22.70000 426.000
22.71500 419.000
22.73000 412.000
22.74500 405.000
22.76000 403.000
22.77500 363.000
22.79000 402.000
22.80500 395.000
22.82000 381.000
22.83500 383.000
22.85000 352.000
22.86500 367.000
22.88000 354.000
22.89500 349.000
22.91000 382.000
22.92500 374.000
22.94000 364.000
22.95500 355.000
22.97000 347.000
22.98500 372.000
23.00000 345.000
23.01500 371.000
23.03000 366.000
23.04500 383.000
23.06000 364.000
23.07500 334.000
23.09000 371.000
23.10500 361.000
23.12000 369.000
23.13500 355.000
23.15000 379.000
23.16500 404.000
23.18000 369.000
23.19500 373.000
23.21000 390.000
23.22500 399.000
23.24000 375.000
23.25500 365.000
23.27000 373.000
23.28500 408.000
23.30000 388.000
23.31500 377.000
23.33000 361.000
23.34500 327.000
23.36000 325.000
23.37500 329.000
23.39000 348.000
23.40500 331.000
23.42000 331.000
23.43500 352.000
23.45000 305.000
23.46500 301.000
23.48000 306.000
23.49500 292.000
23.51000 288.000
23.52500 308.000
23.54000 299.000
23.55500 322.000
23.57000 317.000
23.58500 297.000
23.60000 304.000
23.61500 288.000
23.63000 317.000
23.64500 303.000
23.66000 317.000
23.67500 318.000
23.69000 306.000
23.70500 286.000
23.72000 296.000
23.73500 275.000
23.75000 290.000
23.76500 312.000
23.78000 327.000
23.79500 302.000
23.81000 283.000
23.82500 293.000
23.84000 319.000
23.85500 314.000
23.87000 306.000
23.88500 310.000
23.90000 299.000
23.91500 296.000
23.93000 302.000
23.94500 316.000
23.96000 311.000
23.97500 299.000
23.99000 325.000
24.00500 317.000
24.02000 296.000
24.03500 321.000
24.05000 302.000
24.06500 308.000
24.08000 308.000
24.09500 320.000
24.11000 337.000
24.12500 331.000
24.14000 332.000
24.15500 326.000
24.17000 324.000
24.18500 343.000
24.20000 358.000
24.21500 355.000
24.23000 369.000
24.24500 362.000
24.26000 376.000
24.27500 420.000
24.29000 398.000
24.30500 393.000
24.32000 402.000
24.33500 427.000
24.35000 421.000
24.36500 424.000
24.38000 394.000
24.39500 398.000
24.41000 419.000
24.42500 407.000
24.44000 403.000
24.45500 400.000
24.47000 386.000
24.48500 382.000
24.50000 378.000
24.51500 389.000
24.53000 371.000
24.54500 384.000
24.56000 383.000
24.57500 368.000
24.59000 354.000
24.60500 361.000
24.62000 349.000
24.63500 353.000
24.65000 340.000
24.66500 354.000
24.68000 324.000
24.69500 333.000
24.71000 346.000
24.72500 357.000
24.74000 343.000
24.75500 369.000
24.77000 341.000
24.78500 339.000
24.80000 358.000
24.81500 352.000
24.83000 352.000
24.84500 363.000
24.86000 364.000
24.87500 380.000
24.89000 407.000
24.90500 441.000
24.92000 455.000
24.93500 455.000
24.95000 447.000
24.96500 456.000
24.98000 496.000
24.99500 503.000
25.01000 519.000
25.02500 487.000
25.04000 514.000
25.05500 462.000
25.07000 441.000
25.08500 426.000
25.10000 408.000
25.11500 404.000
25.13000 380.000
25.14500 355.000
25.16000 351.000
25.17500 347.000
25.19000 405.000
25.20500 377.000
25.22000 368.000
25.23500 351.000
25.25000 379.000
25.26500 367.000
25.28000 365.000
25.29500 365.000
25.31000 346.000
25.32500 348.000
25.34000 342.000
25.35500 374.000
25.37000 370.000
25.38500 374.000
25.40000 329.000
25.41500 320.000
25.43000 352.000
25.44500 376.000
25.46000 360.000
25.47500 364.000
25.49000 342.000
25.50500 360.000
25.52000 361.000
25.53500 340.000
25.55000 362.000
25.56500 349.000
25.58000 345.000
25.59500 340.000
25.61000 343.000
25.62500 328.000
25.64000 329.000
25.65500 353.000
25.67000 344.000
25.68500 339.000
25.70000 357.000
25.71500 360.000
25.73000 377.000
25.74500 363.000
25.76000 361.000
25.77500 344.000
25.79000 352.000
25.80500 364.000
25.82000 322.000
25.83500 355.000
25.85000 383.000
25.86500 360.000
25.88000 352.000
25.89500 353.000
25.91000 377.000
25.92500 381.000
25.94000 363.000
25.95500 351.000
25.97000 351.000
25.98500 344.000
26.00000 343.000
26.01500 358.000
26.03000 374.000
26.04500 337.000
26.06000 347.000
26.07500 355.000
26.09000 376.000
26.10500 389.000
26.12000 358.000
26.13500 345.000
26.15000 414.000
26.16500 424.000
26.18000 435.000
26.19500 419.000
26.21000 405.000
26.22500 434.000
26.24000 453.000
26.25500 444.000
26.27000 452.000
26.28500 467.000
26.30000 465.000
26.31500 481.000
26.33000 477.000
26.34500 462.000
26.36000 488.000
26.37500 487.000
26.39000 492.000
26.40500 459.000
26.42000 456.000
26.43500 454.000
26.45000 403.000
26.46500 447.000
26.48000 442.000
26.49500 450.000
26.51000 415.000
26.52500 432.000
26.54000 462.000
26.55500 458.000
26.57000 445.000
26.58500 464.000
26.60000 449.000
26.61500 430.000
26.63000 459.000
26.64500 488.000
26.66000 495.000
26.67500 493.000
26.69000 510.000
26.70500 510.000
26.72000 533.000
26.73500 586.000
26.75000 626.000
26.76500 606.000
26.78000 669.000
26.79500 714.000
26.81000 706.000
26.82500 774.000
26.84000 823.000
26.85500 788.000
26.87000 757.000
26.88500 742.000
26.90000 740.000
26.91500 761.000
26.93000 740.000
26.94500 711.000
26.96000 682.000
26.97500 713.000
26.99000 777.000
27.00500 746.000
27.02000 797.000
27.03500 741.000
27.05000 757.000
27.06500 782.000
27.08000 774.000
27.09500 773.000
27.11000 768.000
27.12500 772.000
27.14000 781.000
27.15500 748.000
27.17000 771.000
27.18500 757.000
27.20000 736.000
27.21500 751.000
27.23000 752.000
27.24500 777.000
27.26000 761.000
27.27500 739.000
27.29000 782.000
27.30500 782.000
27.32000 808.000
27.33500 840.000
27.35000 843.000
27.36500 834.000
27.38000 883.000
27.39500 901.000
27.41000 944.000
27.42500 954.000
27.44000 1004.000
27.45500 997.000
27.47000 1017.000
27.48500 1036.000
27.50000 1033.000
27.51500 1085.000
27.53000 1094.000
27.54500 1094.000
27.56000 1097.000
27.57500 1113.000
27.59000 1067.000
27.60500 1121.000
27.62000 1076.000
27.63500 1041.000
27.65000 1068.000
27.66500 1043.000
27.68000 1065.000
27.69500 1044.000
27.71000 1000.000
27.72500 1035.000
27.74000 1006.000
27.75500 978.000
27.77000 992.000
27.78500 1007.000
27.80000 970.000
27.81500 957.000
27.83000 947.000
27.84500 933.000
27.86000 997.000
27.87500 1001.000
27.89000 969.000
27.90500 970.000
27.92000 981.000
27.93500 987.000
27.95000 943.000
27.96500 954.000
27.98000 962.000
27.99500 950.000
28.01000 935.000
28.02500 987.000
28.04000 967.000
28.05500 974.000
28.07000 1008.000
28.08500 998.000
28.10000 1001.000
28.11500 1015.000
28.13000 1015.000
28.14500 1094.000
28.16000 1108.000
28.17500 1123.000
28.19000 1108.000
28.20500 1114.000
28.22000 1068.000
28.23500 1110.000
28.25000 1011.000
28.26500 990.000
28.28000 908.000
28.29500 863.000
28.31000 826.000
28.32500 803.000
28.34000 820.000
28.35500 747.000
28.37000 715.000
28.38500 737.000
28.40000 747.000
28.41500 737.000
28.43000 724.000
28.44500 705.000
28.46000 688.000
28.47500 695.000
28.49000 671.000
28.50500 716.000
28.52000 728.000
28.53500 751.000
28.55000 754.000
28.56500 769.000
28.58000 782.000
28.59500 777.000
28.61000 824.000
28.62500 833.000
28.64000 822.000
28.65500 846.000
28.67000 905.000
28.68500 843.000
28.70000 841.000
28.71500 835.000
28.73000 852.000
28.74500 855.000
28.76000 814.000
28.77500 819.000
28.79000 763.000
28.80500 793.000
28.82000 794.000
28.83500 770.000
28.85000 781.000
28.86500 742.000
28.88000 704.000
28.89500 751.000
28.91000 743.000
28.92500 740.000
28.94000 720.000
28.95500 734.000
28.97000 701.000
28.98500 692.000
29.00000 729.000
29.01500 746.000
29.03000 779.000
29.04500 784.000
29.06000 785.000
29.07500 748.000
29.09000 733.000
29.10500 747.000
29.12000 771.000
29.13500 821.000
29.15000 772.000
29.16500 782.000
29.18000 825.000
29.19500 795.000
29.21000 775.000
29.22500 804.000
29.24000 808.000
29.25500 785.000
29.27000 748.000
29.28500 810.000
29.30000 779.000
29.31500 793.000
29.33000 761.000
29.34500 745.000
29.36000 716.000
29.37500 708.000
29.39000 710.000
29.40500 720.000
29.42000 675.000
29.43500 617.000
29.45000 601.000
29.46500 649.000
29.48000 607.000
29.49500 599.000
29.51000 626.000
29.52500 629.000
29.54000 628.000
29.55500 617.000
29.57000 600.000
29.58500 611.000
29.60000 617.000
29.61500 604.000
29.63000 610.000
29.64500 568.000
29.66000 591.000
29.67500 554.000
29.69000 563.000
29.70500 553.000
29.72000 535.000
29.73500 576.000
29.75000 596.000
29.76500 583.000
29.78000 573.000
29.79500 561.000
29.81000 517.000
29.82500 532.000
29.84000 543.000
29.85500 536.000
29.87000 510.000
29.88500 534.000
29.90000 486.000
29.91500 489.000
29.93000 507.000
29.94500 453.000
29.96000 487.000
29.97500 442.000
29.99000 436.000
30.00500 474.000
30.02000 453.000
30.03500 472.000
30.05000 518.000
30.06500 501.000
30.08000 447.000
30.09500 500.000
30.11000 486.000
30.12500 459.000
30.14000 428.000
30.15500 449.000
30.17000 476.000
30.18500 433.000
30.20000 423.000
30.21500 440.000
30.23000 429.000
30.24500 441.000
30.26000 440.000
30.27500 424.000
30.29000 401.000
30.30500 416.000
30.32000 440.000
30.33500 441.000
30.35000 450.000
30.36500 416.000
30.38000 404.000
30.39500 412.000
30.41000 418.000
30.42500 416.000
30.44000 440.000
30.45500 432.000
30.47000 462.000
30.48500 458.000
30.50000 456.000
30.51500 455.000
30.53000 448.000
30.54500 467.000
30.56000 472.000
30.57500 478.000
30.59000 478.000
30.60500 530.000
30.62000 540.000
30.63500 577.000
30.65000 558.000
30.66500 581.000
30.68000 599.000
30.69500 603.000
30.71000 608.000
30.72500 598.000
30.74000 618.000
30.75500 630.000
30.77000 623.000
30.78500 612.000
30.80000 603.000
30.81500 619.000
30.83000 613.000
30.84500 592.000
30.86000 586.000
30.87500 588.000
30.89000 586.000
30.90500 581.000
30.92000 563.000
30.93500 603.000
30.95000 575.000
30.96500 573.000
30.98000 557.000
30.99500 548.000
31.01000 529.000
31.02500 554.000
31.04000 543.000
31.05500 541.000
31.07000 529.000
31.08500 526.000
31.10000 524.000
31.11500 537.000
31.13000 519.000
31.14500 530.000
31.16000 526.000
31.17500 497.000
31.19000 473.000
31.20500 526.000
31.22000 520.000
31.23500 527.000
31.25000 522.000
31.26500 491.000
31.28000 491.000
31.29500 495.000
31.31000 485.000
31.32500 461.000
31.34000 470.000
31.35500 516.000
31.37000 470.000
31.38500 471.000
31.40000 477.000
31.41500 469.000
31.43000 476.000
31.44500 430.000
31.46000 429.000
31.47500 467.000
31.49000 439.000
31.50500 407.000
31.52000 417.000
31.53500 422.000
31.55000 422.000
31.56500 423.000
31.58000 425.000
31.59500 423.000
31.61000 436.000
31.62500 415.000
31.64000 404.000
31.65500 399.000
31.67000 430.000
31.68500 397.000
31.70000 427.000
31.71500 446.000
31.73000 445.000
31.74500 431.000
31.76000 464.000
31.77500 469.000
31.79000 502.000
31.80500 479.000
31.82000 462.000
31.83500 466.000
31.85000 434.000
31.86500 471.000
31.88000 470.000
31.89500 463.000
31.91000 426.000
31.92500 439.000
31.94000 448.000
31.95500 478.000
31.97000 447.000
31.98500 459.000
32.00000 417.000
32.01500 408.000
32.03000 420.000
32.04500 457.000
32.06000 424.000
32.07500 423.000
32.09000 451.000
32.10500 425.000
32.12000 421.000
32.13500 407.000
32.15000 419.000
32.16500 419.000
32.18000 400.000
32.19500 443.000
32.21000 417.000
32.22500 398.000
32.24000 417.000
32.25500 399.000
32.27000 398.000
32.28500 402.000
32.30000 385.000
32.31500 389.000
32.33000 383.000
32.34500 379.000
32.36000 351.000
32.37500 363.000
32.39000 354.000
32.40500 336.000
32.42000 355.000
32.43500 327.000
32.45000 340.000
32.46500 344.000
32.48000 351.000
32.49500 360.000
32.51000 361.000
32.52500 356.000
32.54000 344.000
32.55500 339.000
32.57000 336.000
32.58500 328.000
32.60000 351.000
32.61500 330.000
32.63000 327.000
32.64500 343.000
32.66000 319.000
32.67500 303.000
32.69000 326.000
32.70500 341.000
32.72000 331.000
32.73500 339.000
32.75000 340.000
32.76500 294.000
32.78000 316.000
32.79500 286.000
32.81000 317.000
32.82500 352.000
32.84000 330.000
32.85500 324.000
32.87000 313.000
32.88500 312.000
32.90000 308.000
32.91500 317.000
32.93000 297.000
32.94500 297.000
32.96000 329.000
32.97500 300.000
32.99000 335.000
33.00500 321.000
33.02000 321.000
33.03500 336.000
33.05000 339.000
33.06500 333.000
33.08000 343.000
33.09500 377.000
33.11000 348.000
33.12500 342.000
33.14000 315.000
33.15500 353.000
33.17000 340.000
33.18500 328.000
33.20000 333.000
33.21500 342.000
33.23000 348.000
33.24500 332.000
33.26000 343.000
33.27500 333.000
33.29000 335.000
33.30500 336.000
33.32000 363.000
33.33500 357.000
33.35000 355.000
33.36500 355.000
33.38000 362.000
33.39500 343.000
33.41000 336.000
33.42500 316.000
33.44000 306.000
33.45500 325.000
33.47000 333.000
33.48500 360.000
33.50000 346.000
33.51500 327.000
33.53000 319.000
33.54500 298.000
33.56000 316.000
33.57500 287.000
33.59000 322.000
33.60500 317.000
33.62000 291.000
33.63500 288.000
33.65000 291.000
33.66500 323.000
33.68000 307.000
33.69500 314.000
33.71000 333.000
33.72500 334.000
33.74000 292.000
33.75500 315.000
33.77000 325.000
33.78500 336.000
33.80000 320.000
33.81500 335.000
33.83000 341.000
33.84500 364.000
33.86000 349.000
33.87500 334.000
33.89000 333.000
33.90500 349.000
33.92000 337.000
33.93500 332.000
33.95000 326.000
33.96500 336.000
33.98000 342.000
33.99500 324.000
34.01000 342.000
34.02500 308.000
34.04000 305.000
34.05500 307.000
34.07000 306.000
34.08500 314.000
34.10000 267.000
34.11500 297.000
34.13000 275.000
34.14500 280.000
34.16000 290.000
34.17500 279.000
34.19000 277.000
34.20500 293.000
34.22000 266.000
34.23500 248.000
34.25000 259.000
34.26500 245.000
34.28000 250.000
34.29500 250.000
34.31000 253.000
34.32500 273.000
34.34000 260.000
34.35500 262.000
34.37000 259.000
34.38500 261.000
34.40000 262.000
34.41500 242.000
34.43000 247.000
34.44500 256.000
34.46000 242.000
34.47500 226.000
34.49000 235.000
34.50500 244.000
34.52000 280.000
34.53500 276.000
34.55000 238.000
34.56500 254.000
34.58000 270.000
34.59500 269.000
34.61000 254.000
34.62500 250.000
34.64000 263.000
34.65500 268.000
34.67000 267.000
34.68500 260.000
34.70000 254.000
34.71500 236.000
34.73000 252.000
34.74500 269.000
34.76000 268.000
34.77500 259.000
34.79000 257.000
34.80500 262.000
34.82000 252.000
34.83500 267.000
34.85000 288.000
34.86500 274.000
34.88000 270.000
34.89500 270.000
34.91000 291.000
34.92500 277.000
34.94000 302.000
34.95500 316.000
34.97000 314.000
34.98500 316.000
35.00000 293.000
35.01500 318.000
35.03000 306.000
35.04500 314.000
35.06000 314.000
35.07500 292.000
35.09000 309.000
35.10500 311.000
35.12000 304.000
35.13500 320.000
35.15000 317.000
35.16500 314.000
35.18000 322.000
35.19500 305.000
35.21000 305.000
35.22500 332.000
35.24000 310.000
35.25500 315.000
35.27000 326.000
35.28500 345.000
35.30000 305.000
35.31500 315.000
35.33000 331.000
35.34500 344.000
35.36000 345.000
35.37500 310.000
35.39000 314.000
35.40500 328.000
35.42000 336.000
35.43500 328.000
35.45000 328.000
35.46500 304.000
35.48000 300.000
35.49500 290.000
35.51000 316.000
35.52500 304.000
35.54000 308.000
35.55500 277.000
35.57000 294.000
35.58500 302.000
35.60000 273.000
35.61500 270.000
35.63000 267.000
35.64500 259.000
35.66000 267.000
35.67500 296.000
35.69000 267.000
35.70500 265.000
35.72000 280.000
35.73500 262.000
35.75000 262.000
35.76500 259.000
35.78000 262.000
35.79500 265.000
35.81000 271.000
35.82500 269.000
35.84000 259.000
35.85500 259.000
35.87000 252.000
35.88500 270.000
35.90000 267.000
35.91500 256.000
35.93000 265.000
35.94500 268.000
35.96000 283.000
35.97500 279.000
35.99000 271.000
36.00500 275.000
36.02000 257.000
36.03500 246.000
36.05000 275.000
36.06500 268.000
36.08000 276.000
36.09500 253.000
36.11000 269.000
36.12500 281.000
36.14000 306.000
36.15500 287.000
36.17000 274.000
36.18500 280.000
36.20000 265.000
36.21500 250.000
36.23000 260.000
36.24500 260.000
36.26000 288.000
36.27500 268.000
36.29000 252.000
36.30500 253.000
36.32000 256.000
36.33500 228.000
36.35000 254.000
36.36500 242.000
36.38000 244.000
36.39500 260.000
36.41000 254.000
36.42500 239.000
36.44000 258.000
36.45500 258.000
36.47000 250.000
36.48500 244.000
36.50000 234.000
36.51500 249.000
36.53000 265.000
36.54500 248.000
36.56000 249.000
36.57500 250.000
36.59000 228.000
36.60500 237.000
36.62000 243.000
36.63500 258.000
36.65000 238.000
36.66500 244.000
36.68000 240.000
36.69500 251.000
36.71000 234.000
36.72500 260.000
36.74000 241.000
36.75500 228.000
36.77000 240.000
36.78500 265.000
36.80000 249.000
36.81500 252.000
36.83000 231.000
36.84500 232.000
36.86000 249.000
36.87500 245.000
36.89000 263.000
36.90500 237.000
36.92000 241.000
36.93500 255.000
36.95000 250.000
36.96500 248.000
36.98000 271.000
36.99500 267.000
37.01000 249.000
37.02500 237.000
37.04000 249.000
37.05500 286.000
37.07000 256.000
37.08500 228.000
37.10000 249.000
37.11500 264.000
37.13000 262.000
37.14500 280.000
37.16000 285.000
37.17500 262.000
37.19000 250.000
37.20500 270.000
37.22000 242.000
37.23500 232.000
37.25000 237.000
37.26500 258.000
37.28000 254.000
37.29500 257.000
37.31000 261.000
37.32500 279.000
37.34000 253.000
37.35500 252.000
37.37000 253.000
37.38500 251.000
37.40000 252.000
37.41500 273.000
37.43000 290.000
37.44500 267.000
37.46000 271.000
37.47500 300.000
37.49000 291.000
37.50500 280.000
37.52000 291.000
37.53500 282.000
37.55000 293.000
37.56500 269.000
37.58000 286.000
37.59500 316.000
37.61000 301.000
37.62500 298.000
37.64000 294.000
37.65500 309.000
37.67000 289.000
37.68500 290.000
37.70000 307.000
37.71500 316.000
37.73000 331.000
37.74500 305.000
37.76000 315.000
37.77500 319.000
37.79000 326.000
37.80500 330.000
37.82000 325.000
37.83500 293.000
37.85000 334.000
37.86500 314.000
37.88000 310.000
37.89500 329.000
37.91000 322.000
37.92500 304.000
37.94000 314.000
37.95500 337.000
37.97000 325.000
37.98500 310.000
38.00000 304.000
38.01500 328.000
38.03000 324.000
38.04500 329.000
38.06000 332.000
38.07500 281.000
38.09000 314.000
38.10500 297.000
38.12000 297.000
38.13500 287.000
38.15000 289.000
38.16500 298.000
38.18000 270.000
38.19500 276.000
38.21000 301.000
38.22500 282.000
38.24000 241.000
38.25500 251.000
38.27000 261.000
38.28500 279.000
38.30000 263.000
38.31500 275.000
38.33000 256.000
38.34500 263.000
38.36000 268.000
38.37500 278.000
38.39000 270.000
38.40500 276.000
38.42000 255.000
38.43500 259.000
38.45000 275.000
38.46500 270.000
38.48000 276.000
38.49500 264.000
38.51000 268.000
38.52500 285.000
38.54000 275.000
38.55500 265.000
38.57000 269.000
38.58500 282.000
38.60000 265.000
38.61500 261.000
38.63000 292.000
38.64500 286.000
38.66000 274.000
38.67500 271.000
38.69000 255.000
38.70500 260.000
38.72000 295.000
38.73500 291.000
38.75000 304.000
38.76500 274.000
38.78000 281.000
38.79500 273.000
38.81000 282.000
38.82500 266.000
38.84000 283.000
38.85500 280.000
38.87000 256.000
38.88500 253.000
38.90000 239.000
38.91500 244.000
38.93000 252.000
38.94500 270.000
38.96000 259.000
38.97500 279.000
38.99000 266.000
39.00500 278.000
39.02000 260.000
39.03500 270.000
39.05000 237.000
39.06500 262.000
39.08000 262.000
39.09500 270.000
39.11000 277.000
39.12500 242.000
39.14000 247.000
39.15500 295.000
39.17000 274.000
39.18500 250.000
39.20000 274.000
39.21500 295.000
39.23000 274.000
39.24500 290.000
39.26000 290.000
39.27500 291.000
39.29000 269.000
39.30500 315.000
39.32000 319.000
39.33500 292.000
39.35000 296.000
39.36500 298.000
39.38000 285.000
39.39500 278.000
39.41000 293.000
39.42500 291.000
39.44000 289.000
39.45500 256.000
39.47000 289.000
39.48500 285.000
39.50000 249.000
39.51500 264.000
39.53000 273.000
39.54500 262.000
39.56000 269.000
39.57500 264.000
39.59000 280.000
39.60500 286.000
39.62000 254.000
39.63500 274.000
39.65000 278.000
39.66500 263.000
39.68000 273.000
39.69500 287.000
39.71000 288.000
39.72500 278.000
39.74000 247.000
39.75500 267.000
39.77000 265.000
39.78500 264.000
39.80000 277.000
39.81500 263.000
39.83000 249.000
39.84500 221.000
39.86000 233.000
39.87500 206.000
39.89000 243.000
39.90500 242.000
39.92000 239.000
39.93500 235.000
39.95000 227.000
39.96500 229.000
39.98000 224.000
39.99500 243.000
40.01000 227.000
40.02500 223.000
40.04000 243.000
40.05500 216.000
40.07000 229.000
40.08500 243.000
40.10000 248.000
40.11500 249.000
40.13000 226.000
40.14500 228.000
40.16000 243.000
40.17500 244.000
40.19000 227.000
40.20500 233.000
40.22000 252.000
40.23500 256.000
40.25000 263.000
40.26500 260.000
40.28000 258.000
40.29500 280.000
40.31000 271.000
40.32500 250.000
40.34000 285.000
40.35500 287.000
40.37000 273.000
40.38500 284.000
40.40000 294.000
40.41500 276.000
40.43000 295.000
40.44500 265.000
40.46000 281.000
40.47500 285.000
40.49000 270.000
40.50500 262.000
40.52000 264.000
40.53500 278.000
40.55000 247.000
40.56500 275.000
40.58000 251.000
40.59500 236.000
40.61000 263.000
40.62500 249.000
40.64000 248.000
40.65500 270.000
40.67000 267.000
40.68500 238.000
40.70000 241.000
40.71500 240.000
40.73000 243.000
40.74500 237.000
40.76000 279.000
40.77500 246.000
40.79000 248.000
40.80500 238.000
40.82000 256.000
40.83500 245.000
40.85000 266.000
40.86500 248.000
40.88000 247.000
40.89500 255.000
40.91000 226.000
40.92500 232.000
40.94000 247.000
40.95500 238.000
40.97000 256.000
40.98500 262.000
41.00000 274.000
41.01500 237.000
41.03000 252.000
41.04500 253.000
41.06000 248.000
41.07500 243.000
41.09000 224.000
41.10500 218.000
41.12000 229.000
41.13500 222.000
41.15000 256.000
41.16500 266.000
41.18000 283.000
41.19500 272.000
41.21000 283.000
41.22500 260.000
41.24000 256.000
41.25500 260.000
41.27000 257.000
41.28500 263.000
41.30000 270.000
41.31500 271.000
41.33000 291.000
41.34500 273.000
41.36000 298.000
41.37500 291.000
41.39000 269.000
41.40500 294.000
41.42000 286.000
41.43500 268.000
41.45000 278.000
41.46500 276.000
41.48000 271.000
41.49500 270.000
41.51000 265.000
41.52500 269.000
41.54000 268.000
41.55500 260.000
41.57000 289.000
41.58500 264.000
41.60000 258.000
41.61500 281.000
41.63000 282.000
41.64500 257.000
41.66000 263.000
41.67500 264.000
41.69000 270.000
41.70500 236.000
41.72000 259.000
41.73500 253.000
41.75000 284.000
41.76500 280.000
41.78000 249.000
41.79500 242.000
41.81000 256.000
41.82500 265.000
41.84000 262.000
41.85500 238.000
41.87000 248.000
41.88500 255.000
41.90000 245.000
41.91500 215.000
41.93000 220.000
41.94500 224.000
41.96000 225.000
41.97500 224.000
41.99000 229.000
42.00500 251.000
42.02000 229.000
42.03500 211.000
42.05000 212.000
42.06500 208.000
42.08000 234.000
42.09500 236.000
42.11000 218.000
42.12500 235.000
42.14000 223.000
42.15500 220.000
42.17000 215.000
42.18500 226.000
42.20000 213.000
42.21500 244.000
42.23000 221.000
42.24500 227.000
42.26000 257.000
42.27500 257.000
42.29000 251.000
42.30500 263.000
42.32000 265.000
42.33500 243.000
42.35000 253.000
42.36500 244.000
42.38000 281.000
42.39500 258.000
42.41000 264.000
42.42500 248.000
42.44000 257.000
42.45500 265.000
42.47000 257.000
42.48500 249.000
42.50000 247.000
42.51500 263.000
42.53000 263.000
42.54500 244.000
42.56000 252.000
42.57500 254.000
42.59000 266.000
42.60500 243.000
42.62000 272.000
42.63500 255.000
42.65000 251.000
42.66500 241.000
42.68000 264.000
42.69500 259.000
42.71000 267.000
42.72500 247.000
42.74000 244.000
42.75500 244.000
42.77000 255.000
42.78500 254.000
42.80000 242.000
42.81500 239.000
42.83000 243.000
42.84500 246.000
42.86000 224.000
42.87500 223.000
42.89000 254.000
42.90500 237.000
42.92000 243.000
42.93500 237.000
42.95000 250.000
42.96500 231.000
42.98000 237.000
42.99500 241.000
43.01000 258.000
43.02500 224.000
43.04000 217.000
43.05500 213.000
43.07000 235.000
43.08500 231.000
43.10000 214.000
43.11500 232.000
43.13000 223.000
43.14500 208.000
43.16000 236.000
43.17500 202.000
43.19000 217.000
43.20500 224.000
43.22000 232.000
43.23500 231.000
43.25000 223.000
43.26500 218.000
43.28000 210.000
43.29500 231.000
43.31000 236.000
43.32500 243.000
43.34000 248.000
43.35500 240.000
43.37000 226.000
43.38500 259.000
43.40000 227.000
43.41500 222.000
43.43000 253.000
43.44500 258.000
43.46000 249.000
43.47500 236.000
43.49000 257.000
43.50500 239.000
43.52000 239.000
43.53500 241.000
43.55000 240.000
43.56500 282.000
43.58000 258.000
43.59500 274.000
43.61000 256.000
43.62500 268.000
43.64000 243.000
43.65500 268.000
43.67000 256.000
43.68500 225.000
43.70000 254.000
43.71500 249.000
43.73000 236.000
43.74500 255.000
43.76000 272.000
43.77500 247.000
43.79000 220.000
43.80500 243.000
43.82000 247.000
43.83500 235.000
43.85000 228.000
43.86500 232.000
43.88000 237.000
43.89500 231.000
43.91000 220.000
43.92500 246.000
43.94000 236.000
43.95500 237.000
43.97000 228.000
43.98500 221.000
44.00000 197.000
44.01500 219.000
44.03000 221.000
44.04500 213.000
44.06000 222.000
44.07500 211.000
44.09000 198.000
44.10500 214.000
44.12000 217.000
44.13500 190.000
44.15000 204.000
44.16500 207.000
44.18000 222.000
44.19500 222.000
44.21000 230.000
44.22500 215.000
44.24000 202.000
44.25500 187.000
44.27000 195.000
44.28500 210.000
44.30000 207.000
44.31500 205.000
44.33000 199.000
44.34500 236.000
44.36000 228.000
44.37500 206.000
44.39000 216.000
44.40500 220.000
44.42000 210.000
44.43500 210.000
44.45000 203.000
44.46500 223.000
44.48000 214.000
44.49500 189.000
44.51000 212.000
44.52500 221.000
44.54000 208.000
44.55500 217.000
44.57000 216.000
44.58500 227.000
44.60000 215.000
44.61500 217.000
44.63000 211.000
44.64500 222.000
44.66000 209.000
44.67500 234.000
44.69000 225.000
44.70500 207.000
44.72000 199.000
44.73500 200.000
44.75000 195.000
44.76500 213.000
44.78000 209.000
44.79500 202.000
44.81000 204.000
44.82500 178.000
44.84000 201.000
44.85500 204.000
44.87000 197.000
44.88500 193.000
44.90000 203.000
44.91500 219.000
44.93000 227.000
44.94500 211.000
44.96000 200.000
44.97500 199.000
44.99000 220.000
45.00500 229.000
45.02000 213.000
45.03500 207.000
45.05000 213.000
45.06500 220.000
45.08000 203.000
45.09500 213.000
45.11000 247.000
45.12500 217.000
45.14000 213.000
45.15500 205.000
45.17000 206.000
45.18500 205.000
45.20000 197.000
45.21500 192.000
45.23000 219.000
45.24500 221.000
45.26000 201.000
45.27500 210.000
45.29000 199.000
45.30500 203.000
45.32000 215.000
45.33500 227.000
45.35000 207.000
45.36500 200.000
45.38000 197.000
45.39500 209.000
45.41000 215.000
45.42500 210.000
45.44000 209.000
45.45500 207.000
45.47000 217.000
45.48500 221.000
45.50000 230.000
45.51500 222.000
45.53000 243.000
45.54500 214.000
45.56000 214.000
45.57500 208.000
45.59000 209.000
45.60500 231.000
45.62000 236.000
45.63500 223.000
45.65000 237.000
45.66500 235.000
45.68000 245.000
45.69500 224.000
45.71000 203.000
45.72500 200.000
45.74000 230.000
45.75500 211.000
45.77000 226.000
45.78500 234.000
45.80000 221.000
45.81500 216.000
45.83000 221.000
45.84500 219.000
45.86000 216.000
45.87500 225.000
45.89000 236.000
45.90500 204.000
45.92000 202.000
45.93500 219.000
45.95000 237.000
45.96500 239.000
45.98000 228.000
45.99500 219.000
46.01000 245.000
46.02500 269.000
46.04000 236.000
46.05500 242.000
46.07000 261.000
46.08500 248.000
46.10000 237.000
46.11500 276.000
46.13000 273.000
46.14500 244.000
46.16000 235.000
46.17500 261.000
46.19000 237.000
46.20500 217.000
46.22000 217.000
46.23500 232.000
46.25000 236.000
46.26500 227.000
46.28000 225.000
46.29500 246.000
46.31000 234.000
46.32500 230.000
46.34000 229.000
46.35500 199.000
46.37000 197.000
46.38500 218.000
46.40000 200.000
46.41500 199.000
46.43000 197.000
46.44500 206.000
46.46000 220.000
46.47500 233.000
46.49000 216.000
46.50500 207.000
46.52000 238.000
46.53500 208.000
46.55000 216.000
46.56500 200.000
46.58000 198.000
46.59500 189.000
46.61000 196.000
46.62500 197.000
46.64000 172.000
46.65500 196.000
46.67000 203.000
46.68500 203.000
46.70000 197.000
46.71500 192.000
46.73000 189.000
46.74500 192.000
46.76000 189.000
46.77500 182.000
46.79000 180.000
46.80500 199.000
46.82000 208.000
46.83500 172.000
46.85000 195.000
46.86500 186.000
46.88000 181.000
46.89500 181.000
46.91000 171.000
46.92500 197.000
46.94000 168.000
46.95500 189.000
46.97000 193.000
46.98500 205.000
47.00000 192.000
47.01500 183.000
47.03000 198.000
47.04500 181.000
47.06000 178.000
47.07500 198.000
47.09000 192.000
47.10500 188.000
47.12000 198.000
47.13500 206.000
47.15000 179.000
47.16500 185.000
47.18000 195.000
47.19500 177.000
47.21000 170.000
47.22500 169.000
47.24000 189.000
47.25500 167.000
47.27000 173.000
47.28500 162.000
47.30000 189.000
47.31500 188.000
47.33000 170.000
47.34500 161.000
47.36000 158.000
47.37500 178.000
47.39000 174.000
47.40500 195.000
47.42000 160.000
47.43500 163.000
47.45000 171.000
47.46500 160.000
47.48000 166.000
47.49500 178.000
47.51000 164.000
47.52500 146.000
47.54000 158.000
47.55500 172.000
47.57000 143.000
47.58500 178.000
47.60000 166.000
47.61500 178.000
47.63000 168.000
47.64500 157.000
47.66000 172.000
47.67500 146.000
47.69000 142.000
47.70500 162.000
47.72000 168.000
47.73500 169.000
47.75000 159.000
47.76500 161.000
47.78000 157.000
47.79500 172.000
47.81000 180.000
47.82500 166.000
47.84000 156.000
47.85500 175.000
47.87000 192.000
47.88500 185.000
47.90000 172.000
47.91500 166.000
47.93000 172.000
47.94500 171.000
47.96000 176.000
47.97500 173.000
47.99000 176.000
48.00500 168.000
48.02000 188.000
48.03500 190.000
48.05000 166.000
48.06500 172.000
48.08000 181.000
48.09500 187.000
48.11000 182.000
48.12500 181.000
48.14000 170.000
48.15500 156.000
48.17000 190.000
48.18500 183.000
48.20000 193.000
48.21500 176.000
48.23000 180.000
48.24500 184.000
48.26000 185.000
48.27500 193.000
48.29000 188.000
48.30500 176.000
48.32000 183.000
48.33500 187.000
48.35000 175.000
48.36500 204.000
48.38000 203.000
48.39500 183.000
48.41000 199.000
48.42500 186.000
48.44000 184.000
48.45500 188.000
48.47000 202.000
48.48500 200.000
48.50000 210.000
48.51500 208.000
48.53000 215.000
48.54500 201.000
48.56000 213.000
48.57500 208.000
48.59000 240.000
48.60500 214.000
48.62000 212.000
48.63500 211.000
48.65000 220.000
48.66500 214.000
48.68000 195.000
48.69500 208.000
48.71000 218.000
48.72500 216.000
48.74000 212.000
48.75500 212.000
48.77000 217.000
48.78500 214.000
48.80000 243.000
48.81500 211.000
48.83000 207.000
48.84500 212.000
48.86000 207.000
48.87500 209.000
48.89000 218.000
48.90500 229.000
48.92000 227.000
48.93500 226.000
48.95000 204.000
48.96500 204.000
48.98000 198.000
48.99500 200.000
49.01000 200.000
49.02500 200.000
49.04000 192.000
49.05500 197.000
49.07000 198.000
49.08500 212.000
49.10000 216.000
49.11500 199.000
49.13000 181.000
49.14500 208.000
49.16000 218.000
49.17500 189.000
49.19000 201.000
49.20500 200.000
49.22000 193.000
49.23500 191.000
49.25000 183.000
49.26500 174.000
49.28000 185.000
49.29500 171.000
49.31000 188.000
49.32500 193.000
49.34000 180.000
49.35500 179.000
49.37000 171.000
49.38500 183.000
49.40000 193.000
49.41500 183.000
49.43000 177.000
49.44500 193.000
49.46000 205.000
49.47500 204.000
49.49000 189.000
49.50500 155.000
49.52000 182.000
49.53500 184.000
49.55000 206.000
49.56500 183.000
49.58000 178.000
49.59500 187.000
49.61000 180.000
49.62500 184.000
49.64000 186.000
49.65500 178.000
49.67000 168.000
49.68500 187.000
49.70000 183.000
49.71500 197.000
49.73000 187.000
49.74500 183.000
49.76000 188.000
49.77500 194.000
49.79000 198.000
49.80500 213.000
49.82000 184.000
49.83500 197.000
49.85000 181.000
49.86500 171.000
49.88000 181.000
49.89500 181.000
49.91000 183.000
49.92500 193.000
49.94000 198.000
49.95500 188.000
49.97000 187.000
49.98500 186.000
50.00000 193.000
50.01500 180.000
50.03000 178.000
50.04500 179.000
50.06000 171.000
50.07500 165.000
50.09000 180.000
50.10500 191.000
50.12000 166.000
50.13500 165.000
50.15000 148.000
50.16500 172.000
50.18000 177.000
50.19500 166.000
50.21000 170.000
50.22500 156.000
50.24000 183.000
50.25500 170.000
50.27000 163.000
50.28500 160.000
50.30000 144.000
50.31500 161.000
50.33000 151.000
50.34500 163.000
50.36000 177.000
50.37500 165.000
50.39000 182.000
50.40500 181.000
50.42000 176.000
50.43500 177.000
50.45000 182.000
50.46500 161.000
50.48000 171.000
50.49500 174.000
50.51000 151.000
50.52500 175.000
50.54000 181.000
50.55500 167.000
50.57000 180.000
50.58500 163.000
50.60000 175.000
50.61500 165.000
50.63000 192.000
50.64500 184.000
50.66000 164.000
50.67500 167.000
50.69000 144.000
50.70500 157.000
50.72000 170.000
50.73500 177.000
50.75000 155.000
50.76500 142.000
50.78000 164.000
50.79500 153.000
50.81000 174.000
50.82500 163.000
50.84000 152.000
50.85500 148.000
50.87000 141.000
50.88500 156.000
50.90000 152.000
50.91500 166.000
50.93000 163.000
50.94500 155.000
50.96000 162.000
50.97500 148.000
50.99000 153.000
51.00500 177.000
51.02000 167.000
51.03500 154.000
51.05000 158.000
51.06500 171.000
51.08000 178.000
51.09500 148.000
51.11000 153.000
51.12500 154.000
51.14000 163.000
51.15500 161.000
51.17000 144.000
51.18500 153.000
51.20000 159.000
51.21500 169.000
51.23000 169.000
51.24500 155.000
51.26000 172.000
51.27500 161.000
51.29000 169.000
51.30500 170.000
51.32000 159.000
51.33500 143.000
51.35000 157.000
51.36500 160.000
51.38000 169.000
51.39500 186.000
51.41000 159.000
51.42500 158.000
51.44000 167.000
51.45500 138.000
51.47000 147.000
51.48500 154.000
51.50000 154.000
51.51500 184.000
51.53000 149.000
51.54500 151.000
51.56000 167.000
51.57500 137.000
51.59000 153.000
51.60500 132.000
51.62000 134.000
51.63500 167.000
51.65000 161.000
51.66500 167.000
51.68000 150.000
51.69500 137.000
51.71000 140.000
51.72500 160.000
51.74000 171.000
51.75500 166.000
51.77000 157.000
51.78500 151.000
51.80000 162.000
51.81500 182.000
51.83000 153.000
51.84500 136.000
51.86000 154.000
51.87500 143.000
51.89000 160.000
51.90500 163.000
51.92000 158.000
51.93500 167.000
51.95000 159.000
51.96500 163.000
51.98000 156.000
51.99500 154.000
52.01000 136.000
52.02500 156.000
52.04000 153.000
52.05500 154.000
52.07000 164.000
52.08500 159.000
52.10000 161.000
52.11500 154.000
52.13000 156.000
52.14500 148.000
52.16000 146.000
52.17500 158.000
52.19000 153.000
52.20500 142.000
52.22000 152.000
52.23500 147.000
52.25000 144.000
52.26500 152.000
52.28000 150.000
52.29500 155.000
52.31000 163.000
52.32500 161.000
52.34000 161.000
52.35500 162.000
52.37000 159.000
52.38500 155.000
52.40000 164.000
52.41500 144.000
52.43000 151.000
52.44500 161.000
52.46000 160.000
52.47500 141.000
52.49000 145.000
52.50500 146.000
52.52000 168.000
52.53500 167.000
52.55000 153.000
52.56500 139.000
52.58000 163.000
52.59500 145.000
52.61000 143.000
52.62500 147.000
52.64000 157.000
52.65500 152.000
52.67000 163.000
52.68500 152.000
52.70000 146.000
52.71500 166.000
52.73000 158.000
52.74500 164.000
52.76000 165.000
52.77500 151.000
52.79000 157.000
52.80500 145.000
52.82000 154.000
52.83500 154.000
52.85000 148.000
52.86500 162.000
52.88000 147.000
52.89500 133.000
52.91000 133.000
52.92500 149.000
52.94000 150.000
52.95500 149.000
52.97000 147.000
52.98500 151.000
53.00000 169.000
53.01500 156.000
53.03000 159.000
53.04500 154.000
53.06000 147.000
53.07500 166.000
53.09000 154.000
53.10500 145.000
53.12000 154.000
53.13500 163.000
53.15000 153.000
53.16500 131.000
53.18000 138.000
53.19500 165.000
53.21000 163.000
53.22500 158.000
53.24000 140.000
53.25500 157.000
53.27000 155.000
53.28500 158.000
53.30000 158.000
53.31500 150.000
53.33000 146.000
53.34500 140.000
53.36000 153.000
53.37500 178.000
53.39000 167.000
53.40500 157.000
53.42000 152.000
53.43500 156.000
53.45000 147.000
53.46500 153.000
53.48000 146.000
53.49500 156.000
53.51000 147.000
53.52500 154.000
53.54000 157.000
53.55500 147.000
53.57000 175.000
53.58500 167.000
53.60000 165.000
53.61500 170.000
53.63000 145.000
53.64500 142.000
53.66000 153.000
53.67500 155.000
53.69000 152.000
53.70500 153.000
53.72000 141.000
53.73500 151.000
53.75000 158.000
53.76500 157.000
53.78000 149.000
53.79500 153.000
53.81000 183.000
53.82500 155.000
53.84000 168.000
53.85500 168.000
53.87000 159.000
53.88500 168.000
53.90000 170.000
53.91500 160.000
53.93000 172.000
53.94500 177.000
53.96000 186.000
53.97500 179.000
53.99000 175.000
54.00500 161.000
54.02000 160.000
54.03500 160.000
54.05000 161.000
54.06500 175.000
54.08000 180.000
54.09500 177.000
54.11000 175.000
54.12500 172.000
54.14000 175.000
54.15500 183.000
54.17000 180.000
54.18500 174.000
54.20000 153.000
54.21500 154.000
54.23000 157.000
54.24500 160.000
54.26000 164.000
54.27500 158.000
54.29000 149.000
54.30500 155.000
54.32000 160.000
54.33500 163.000
54.35000 158.000
54.36500 164.000
54.38000 138.000
54.39500 154.000
54.41000 159.000
54.42500 157.000
54.44000 156.000
54.45500 168.000
54.47000 152.000
54.48500 148.000
54.50000 154.000
54.51500 144.000
54.53000 156.000
54.54500 158.000
54.56000 161.000
54.57500 157.000
54.59000 151.000
54.60500 156.000
54.62000 150.000
54.63500 160.000
54.65000 185.000
54.66500 169.000
54.68000 154.000
54.69500 162.000
54.71000 172.000
54.72500 161.000
54.74000 157.000
54.75500 162.000
54.77000 155.000
54.78500 163.000
54.80000 182.000
54.81500 169.000
54.83000 168.000
54.84500 166.000
54.86000 162.000
54.87500 154.000
54.89000 164.000
54.90500 157.000
54.92000 173.000
54.93500 154.000
54.95000 165.000
54.96500 160.000
54.98000 144.000
54.99500 148.000
55.01000 148.000
55.02500 164.000
55.04000 158.000
55.05500 155.000
55.07000 155.000
55.08500 154.000
55.10000 174.000
55.11500 155.000
55.13000 159.000
55.14500 166.000
55.16000 164.000
55.17500 165.000
55.19000 145.000
55.20500 135.000
55.22000 135.000
55.23500 149.000
55.25000 161.000
55.26500 184.000
55.28000 166.000
55.29500 168.000
55.31000 154.000
55.32500 156.000
55.34000 181.000
55.35500 169.000
55.37000 174.000
55.38500 171.000
55.40000 166.000
55.41500 170.000
55.43000 175.000
55.44500 161.000
55.46000 171.000
55.47500 190.000
55.49000 178.000
55.50500 194.000
55.52000 177.000
55.53500 189.000
55.55000 189.000
55.56500 189.000
55.58000 178.000
55.59500 169.000
55.61000 186.000
55.62500 174.000
55.64000 182.000
55.65500 192.000
55.67000 176.000
55.68500 185.000
55.70000 161.000
55.71500 191.000
55.73000 175.000
55.74500 169.000
55.76000 170.000
55.77500 183.000
55.79000 201.000
55.80500 190.000
55.82000 189.000
55.83500 175.000
55.85000 182.000
55.86500 196.000
55.88000 207.000
55.89500 210.000
55.91000 229.000
55.92500 202.000
55.94000 222.000
55.95500 195.000
55.97000 175.000
55.98500 176.000
56.00000 188.000
56.01500 185.000
56.03000 203.000
56.04500 229.000
56.06000 211.000
56.07500 186.000
56.09000 215.000
56.10500 205.000
56.12000 205.000
56.13500 215.000
56.15000 205.000
56.16500 196.000
56.18000 209.000
56.19500 217.000
56.21000 208.000
56.22500 216.000
56.24000 202.000
56.25500 214.000
56.27000 193.000
56.28500 191.000
56.30000 213.000
56.31500 192.000
56.33000 202.000
56.34500 213.000
56.36000 203.000
56.37500 181.000
56.39000 188.000
56.40500 209.000
56.42000 187.000
56.43500 173.000
56.45000 182.000
56.46500 176.000
56.48000 175.000
56.49500 168.000
56.51000 181.000
56.52500 179.000
56.54000 176.000
56.55500 161.000
56.57000 172.000
56.58500 178.000
56.60000 171.000
56.61500 176.000
56.63000 177.000
56.64500 179.000
56.66000 172.000
56.67500 165.000
56.69000 170.000
56.70500 168.000
56.72000 154.000
56.73500 163.000
56.75000 165.000
56.76500 167.000
56.78000 171.000
56.79500 165.000
56.81000 163.000
56.82500 156.000
56.84000 162.000
56.85500 173.000
56.87000 154.000
56.88500 160.000
56.90000 167.000
56.91500 166.000
56.93000 171.000
56.94500 156.000
56.96000 144.000
56.97500 163.000
56.99000 190.000
57.00500 168.000
57.02000 161.000
57.03500 155.000
57.05000 157.000
57.06500 181.000
57.08000 165.000
57.09500 164.000
57.11000 159.000
57.12500 164.000
57.14000 166.000
57.15500 152.000
57.17000 160.000
57.18500 153.000
57.20000 129.000
57.21500 146.000
57.23000 149.000
57.24500 159.000
57.26000 151.000
57.27500 154.000
57.29000 150.000
57.30500 138.000
57.32000 154.000
57.33500 135.000
57.35000 133.000
57.36500 142.000
57.38000 152.000
57.39500 152.000
57.41000 152.000
57.42500 146.000
57.44000 146.000
57.45500 132.000
57.47000 133.000
57.48500 159.000
57.50000 165.000
57.51500 153.000
57.53000 152.000
57.54500 138.000
57.56000 138.000
57.57500 163.000
57.59000 152.000
57.60500 148.000
57.62000 150.000
57.63500 160.000
57.65000 158.000
57.66500 156.000
57.68000 158.000
57.69500 148.000
57.71000 148.000
57.72500 148.000
57.74000 148.000
57.75500 144.000
57.77000 159.000
57.78500 171.000
57.80000 142.000
57.81500 147.000
57.83000 164.000
57.84500 157.000
57.86000 151.000
57.87500 143.000
57.89000 151.000
57.90500 160.000
57.92000 138.000
57.93500 165.000
57.95000 167.000
57.96500 154.000
57.98000 148.000
57.99500 128.000
58.01000 142.000
58.02500 131.000
58.04000 140.000
58.05500 167.000
58.07000 175.000
58.08500 166.000
58.10000 169.000
58.11500 166.000
58.13000 153.000
58.14500 166.000
58.16000 152.000
58.17500 158.000
58.19000 166.000
58.20500 148.000
58.22000 137.000
58.23500 152.000
58.25000 154.000
58.26500 155.000
58.28000 149.000
58.29500 152.000
58.31000 183.000
58.32500 159.000
58.34000 151.000
58.35500 167.000
58.37000 180.000
58.38500 170.000
58.40000 170.000
58.41500 165.000
58.43000 152.000
58.44500 163.000
58.46000 151.000
58.47500 140.000
58.49000 163.000
58.50500 149.000
58.52000 136.000
58.53500 154.000
58.55000 139.000
58.56500 141.000
58.58000 154.000
58.59500 135.000
58.61000 136.000
58.62500 170.000
58.64000 171.000
58.65500 167.000
58.67000 170.000
58.68500 152.000
58.70000 144.000
58.71500 149.000
58.73000 160.000
58.74500 164.000
58.76000 173.000
58.77500 149.000
58.79000 137.000
58.80500 154.000
58.82000 148.000
58.83500 155.000
58.85000 171.000
58.86500 156.000
58.88000 149.000
58.89500 148.000
58.91000 133.000
58.92500 137.000
58.94000 139.000
58.95500 147.000
58.97000 147.000
58.98500 156.000
59.00000 137.000
59.01500 156.000
59.03000 148.000
59.04500 139.000
59.06000 162.000
59.07500 150.000
59.09000 156.000
59.10500 133.000
59.12000 146.000
59.13500 145.000
59.15000 152.000
59.16500 143.000
59.18000 140.000
59.19500 158.000
59.21000 170.000
59.22500 156.000
59.24000 164.000
59.25500 170.000
59.27000 178.000
59.28500 153.000
59.30000 145.000
59.31500 143.000
59.33000 155.000
59.34500 138.000
59.36000 148.000
59.37500 153.000
59.39000 156.000
59.40500 160.000
59.42000 159.000
59.43500 163.000
59.45000 155.000
59.46500 133.000
59.48000 147.000
59.49500 166.000
59.51000 153.000
59.52500 162.000
59.54000 149.000
59.55500 170.000
59.57000 154.000
59.58500 174.000
59.60000 170.000
59.61500 159.000
59.63000 134.000
59.64500 137.000
59.66000 149.000
59.67500 149.000
59.69000 138.000
59.70500 134.000
59.72000 167.000
59.73500 144.000
59.75000 149.000
59.76500 138.000
59.78000 166.000
59.79500 156.000
59.81000 136.000
59.82500 144.000
59.84000 131.000
59.85500 158.000
59.87000 152.000
59.88500 144.000
59.90000 147.000
59.91500 153.000
59.93000 155.000
59.94500 138.000
59.96000 154.000
59.97500 143.000
59.99000 151.000
60.00500 144.000
60.02000 139.000
60.03500 141.000
60.05000 153.000
60.06500 142.000
60.08000 147.000
60.09500 137.000
60.11000 137.000
60.12500 141.000
60.14000 143.000
60.15500 158.000
60.17000 161.000
60.18500 137.000
60.20000 142.000
60.21500 136.000
60.23000 131.000
60.24500 144.000
60.26000 150.000
60.27500 149.000
60.29000 143.000
60.30500 153.000
60.32000 164.000
60.33500 152.000
60.35000 146.000
60.36500 152.000
60.38000 162.000
60.39500 169.000
60.41000 169.000
60.42500 152.000
60.44000 150.000
60.45500 135.000
60.47000 166.000
60.48500 153.000
60.50000 135.000
60.51500 155.000
60.53000 152.000
60.54500 133.000
60.56000 151.000
60.57500 171.000
60.59000 151.000
60.60500 158.000
60.62000 136.000
60.63500 146.000
60.65000 158.000
60.66500 150.000
60.68000 148.000
60.69500 153.000
60.71000 150.000
60.72500 149.000
60.74000 141.000
60.75500 154.000
60.77000 153.000
60.78500 163.000
60.80000 149.000
60.81500 133.000
60.83000 148.000
60.84500 136.000
60.86000 162.000
60.87500 146.000
60.89000 119.000
60.90500 146.000
60.92000 130.000
60.93500 149.000
60.95000 153.000
60.96500 147.000
60.98000 158.000
60.99500 146.000
61.01000 147.000
61.02500 151.000
61.04000 151.000
61.05500 144.000
61.07000 150.000
61.08500 144.000
61.10000 137.000
61.11500 135.000
61.13000 130.000
61.14500 138.000
61.16000 147.000
61.17500 135.000
61.19000 127.000
61.20500 148.000
61.22000 151.000
61.23500 145.000
61.25000 139.000
61.26500 139.000
61.28000 160.000
61.29500 155.000
61.31000 129.000
61.32500 141.000
61.34000 155.000
61.35500 148.000
61.37000 151.000
61.38500 138.000
61.40000 127.000
61.41500 136.000
61.43000 155.000
61.44500 147.000
61.46000 148.000
61.47500 144.000
61.49000 137.000
61.50500 126.000
61.52000 142.000
61.53500 119.000
61.55000 156.000
61.56500 141.000
61.58000 141.000
61.59500 135.000
61.61000 141.000
61.62500 143.000
61.64000 124.000
61.65500 138.000
61.67000 143.000
61.68500 147.000
61.70000 134.000
61.71500 134.000
61.73000 139.000
61.74500 148.000
61.76000 138.000
61.77500 153.000
61.79000 147.000
61.80500 132.000
61.82000 128.000
61.83500 133.000
61.85000 137.000
61.86500 145.000
61.88000 137.000
61.89500 142.000
61.91000 132.000
61.92500 138.000
61.94000 141.000
61.95500 146.000
61.97000 142.000
61.98500 140.000
