2.00000 2.000
2.01500 3.000
2.03000 2.000
2.04500 2.000
2.06000 3.000
2.07500 5.000
2.09000 5.000
2.10500 2.000
2.12000 4.000
2.13500 2.000
2.15000 2.000
2.16500 1.000
2.18000 2.000
2.19500 0.000
2.21000 2.000
2.22500 2.000
2.24000 3.000
2.25500 3.000
2.27000 3.000
2.28500 1.000
2.30000 1.000
2.31500 2.000
2.33000 1.000
2.34500 1.000
2.36000 4.000
2.37500 5.000
2.39000 5.000
2.40500 4.000
2.42000 3.000
2.43500 3.000
2.45000 2.000
2.46500 3.000
2.48000 2.000
2.49500 2.000
2.51000 1.000
2.52500 2.000
2.54000 2.000
2.55500 3.000
2.57000 3.000
2.58500 0.000
2.60000 2.000
2.61500 1.000
2.63000 3.000
2.64500 4.000
2.66000 6.000
2.67500 5.000
2.69000 4.000
2.70500 7.000
2.72000 7.000
2.73500 7.000
2.75000 9.000
2.76500 10.000
2.78000 14.000
2.79500 22.000
2.81000 19.000
2.82500 23.000
2.84000 27.000
2.85500 32.000
2.87000 39.000
2.88500 55.000
2.90000 66.000
2.91500 83.000
2.93000 83.000
2.94500 93.000
2.96000 116.000
2.97500 120.000
2.99000 133.000
3.00500 144.000
3.02000 118.000
3.03500 126.000
3.05000 143.000
3.06500 127.000
3.08000 129.000
3.09500 150.000
3.11000 131.000
3.12500 132.000
3.14000 133.000
3.15500 152.000
3.17000 151.000
3.18500 138.000
3.20000 136.000
3.21500 144.000
3.23000 157.000
3.24500 147.000
3.26000 140.000
3.27500 126.000
3.29000 141.000
3.30500 160.000
3.32000 161.000
3.33500 160.000
3.35000 159.000
3.36500 157.000
3.38000 158.000
3.39500 164.000
3.41000 156.000
3.42500 169.000
3.44000 172.000
3.45500 163.000
3.47000 140.000
3.48500 159.000
3.50000 165.000
3.51500 161.000
3.53000 157.000
3.54500 158.000
3.56000 154.000
3.57500 166.000
3.59000 157.000
3.60500 151.000
3.62000 176.000
3.63500 152.000
3.65000 152.000
3.66500 157.000
3.68000 165.000
3.69500 156.000
3.71000 175.000
3.72500 171.000
3.74000 183.000
3.75500 189.000
3.77000 181.000
3.78500 168.000
3.80000 188.000
3.81500 191.000
3.83000 202.000
3.84500 185.000
3.86000 176.000
3.87500 175.000
3.89000 179.000
3.90500 177.000
3.92000 179.000
3.93500 207.000
3.95000 191.000
3.96500 182.000
3.98000 189.000
3.99500 193.000
4.01000 181.000
4.02500 208.000
4.04000 216.000
4.05500 183.000
4.07000 181.000
4.08500 185.000
4.10000 201.000
4.11500 186.000
4.13000 192.000
4.14500 207.000
4.16000 200.000
4.17500 188.000
4.19000 214.000
4.20500 203.000
4.22000 214.000
4.23500 196.000
4.25000 209.000
4.26500 200.000
4.28000 211.000
4.29500 204.000
4.31000 205.000
4.32500 199.000
4.34000 194.000
4.35500 207.000
4.37000 206.000
4.38500 215.000
4.40000 221.000
4.41500 203.000
4.43000 221.000
4.44500 217.000
4.46000 230.000
4.47500 217.000
4.49000 202.000
4.50500 203.000
4.52000 206.000
4.53500 203.000
4.55000 208.000
4.56500 215.000
4.58000 199.000
4.59500 185.000
4.61000 191.000
4.62500 198.000
4.64000 195.000
4.65500 227.000
4.67000 232.000
4.68500 209.000
4.70000 213.000
4.71500 234.000
4.73000 207.000
4.74500 226.000
4.76000 213.000
4.77500 221.000
4.79000 233.000
4.80500 204.000
4.82000 221.000
4.83500 213.000
4.85000 230.000
4.86500 227.000
4.88000 219.000
4.89500 222.000
4.91000 237.000
4.92500 223.000
4.94000 240.000
4.95500 233.000
4.97000 223.000
4.98500 226.000
5.00000 235.000
5.01500 240.000
5.03000 232.000
5.04500 225.000
5.06000 234.000
5.07500 236.000
5.09000 231.000
5.10500 257.000
5.12000 234.000
5.13500 238.000
5.15000 234.000
5.16500 227.000
5.18000 216.000
5.19500 234.000
5.21000 251.000
5.22500 243.000
5.24000 234.000
5.25500 234.000
5.27000 232.000
5.28500 253.000
5.30000 226.000
5.31500 225.000
5.33000 242.000
5.34500 232.000
5.36000 244.000
5.37500 224.000
5.39000 235.000
5.40500 213.000
5.42000 220.000
5.43500 225.000
5.45000 252.000
5.46500 256.000
5.48000 250.000
5.49500 260.000
5.51000 252.000
5.52500 274.000
5.54000 264.000
5.55500 242.000
5.57000 228.000
5.58500 222.000
5.60000 234.000
5.61500 221.000
5.63000 248.000
5.64500 250.000
5.66000 212.000
5.67500 231.000
5.69000 248.000
5.70500 220.000
5.72000 226.000
5.73500 246.000
5.75000 231.000
5.76500 235.000
5.78000 228.000
5.79500 243.000
5.81000 221.000
5.82500 217.000
5.84000 221.000
5.85500 250.000
5.87000 237.000
5.88500 241.000
5.90000 224.000
5.91500 254.000
5.93000 266.000
5.94500 278.000
5.96000 263.000
5.97500 276.000
5.99000 265.000
6.00500 264.000
6.02000 251.000
6.03500 245.000
6.05000 228.000
6.06500 249.000
6.08000 254.000
6.09500 273.000
6.11000 257.000
6.12500 249.000
6.14000 259.000
6.15500 271.000
6.17000 286.000
6.18500 241.000
6.20000 237.000
6.21500 240.000
6.23000 249.000
6.24500 252.000
6.26000 267.000
6.27500 266.000
6.29000 254.000
6.30500 261.000
6.32000 258.000
6.33500 255.000
6.35000 258.000
6.36500 241.000
6.38000 251.000
6.39500 257.000
6.41000 250.000
6.42500 257.000
6.44000 257.000
6.45500 248.000
6.47000 259.000
6.48500 268.000
6.50000 259.000
6.51500 261.000
6.53000 282.000
6.54500 286.000
6.56000 254.000
6.57500 291.000
6.59000 278.000
6.60500 269.000
6.62000 244.000
6.63500 262.000
6.65000 280.000
6.66500 262.000
6.68000 252.000
6.69500 273.000
6.71000 267.000
6.72500 259.000
6.74000 273.000
6.75500 275.000
6.77000 249.000
6.78500 272.000
6.80000 274.000
6.81500 257.000
6.83000 273.000
6.84500 261.000
6.86000 253.000
6.87500 276.000
6.89000 259.000
6.90500 259.000
6.92000 260.000
6.93500 261.000
6.95000 280.000
6.96500 260.000
6.98000 257.000
6.99500 252.000
7.01000 275.000
7.02500 271.000
7.04000 281.000
7.05500 283.000
7.07000 273.000
7.08500 266.000
7.10000 279.000
7.11500 269.000
7.13000 259.000
7.14500 277.000
7.16000 295.000
7.17500 263.000
7.19000 256.000
7.20500 261.000
7.22000 282.000
7.23500 264.000
7.25000 250.000
7.26500 273.000
7.28000 281.000
7.29500 270.000
7.31000 263.000
7.32500 262.000
7.34000 274.000
7.35500 273.000
7.37000 265.000
7.38500 263.000
7.40000 292.000
7.41500 285.000
7.43000 291.000
7.44500 254.000
7.46000 290.000
7.47500 275.000
7.49000 286.000
7.50500 279.000
7.52000 265.000
7.53500 260.000
7.55000 283.000
7.56500 252.000
7.58000 274.000
7.59500 279.000
7.61000 295.000
7.62500 294.000
7.64000 258.000
7.65500 284.000
7.67000 280.000
7.68500 276.000
7.70000 269.000
7.71500 274.000
7.73000 256.000
7.74500 266.000
7.76000 267.000
7.77500 314.000
7.79000 285.000
7.80500 277.000
7.82000 318.000
7.83500 282.000
7.85000 286.000
7.86500 263.000
7.88000 285.000
7.89500 296.000
7.91000 306.000
7.92500 289.000
7.94000 281.000
7.95500 286.000
7.97000 277.000
7.98500 287.000
8.00000 297.000
8.01500 267.000
8.03000 272.000
8.04500 288.000
8.06000 275.000
8.07500 268.000
8.09000 269.000
8.10500 296.000
8.12000 286.000
8.13500 285.000
8.15000 295.000
8.16500 276.000
8.18000 291.000
8.19500 300.000
8.21000 276.000
8.22500 282.000
8.24000 267.000
8.25500 288.000
8.27000 288.000
8.28500 297.000
8.30000 290.000
8.31500 270.000
8.33000 295.000
8.34500 309.000
8.36000 294.000
8.37500 254.000
8.39000 280.000
8.40500 279.000
8.42000 282.000
8.43500 285.000
8.45000 289.000
8.46500 292.000
8.48000 291.000
8.49500 300.000
8.51000 326.000
8.52500 312.000
8.54000 281.000
8.55500 273.000
8.57000 306.000
8.58500 308.000
8.60000 302.000
8.61500 327.000
8.63000 337.000
8.64500 360.000
8.66000 361.000
8.67500 373.000
8.69000 386.000
8.70500 409.000
8.72000 433.000
8.73500 436.000
8.75000 459.000
8.76500 498.000
8.78000 548.000
8.79500 629.000
8.81000 678.000
8.82500 765.000
8.84000 845.000
8.85500 976.000
8.87000 1106.000
8.88500 1291.000
8.90000 1576.000
8.91500 1842.000
8.93000 2141.000
8.94500 2727.000
8.96000 3591.000
8.97500 4577.000
8.99000 4870.000
9.00500 3874.000
9.02000 2407.000
9.03500 1286.000
9.05000 735.000
9.06500 535.000
9.08000 435.000
9.09500 398.000
9.11000 409.000
9.12500 364.000
9.14000 347.000
9.15500 330.000
9.17000 350.000
9.18500 323.000
9.20000 348.000
9.21500 341.000
9.23000 310.000
9.24500 294.000
9.26000 313.000
9.27500 325.000
9.29000 337.000
9.30500 309.000
9.32000 325.000
9.33500 295.000
9.35000 336.000
9.36500 326.000
9.38000 353.000
9.39500 364.000
9.41000 348.000
9.42500 315.000
9.44000 327.000
9.45500 367.000
9.47000 373.000
9.48500 394.000
9.50000 375.000
9.51500 383.000
9.53000 309.000
9.54500 320.000
9.56000 315.000
9.57500 289.000
9.59000 308.000
9.60500 308.000
9.62000 312.000
9.63500 302.000
9.65000 300.000
9.66500 296.000
9.68000 281.000
9.69500 312.000
9.71000 288.000
9.72500 302.000
9.74000 303.000
9.75500 286.000
9.77000 309.000
9.78500 306.000
9.80000 277.000
9.81500 293.000
9.83000 284.000
9.84500 312.000
9.86000 304.000
9.87500 322.000
9.89000 317.000
9.90500 298.000
9.92000 269.000
9.93500 288.000
9.95000 295.000
9.96500 288.000
9.98000 317.000
9.99500 318.000
10.01000 304.000
10.02500 313.000
10.04000 328.000
10.05500 310.000
10.07000 304.000
10.08500 332.000
10.10000 348.000
10.11500 338.000
10.13000 326.000
10.14500 362.000
10.16000 372.000
10.17500 410.000
10.19000 430.000
10.20500 423.000
10.22000 469.000
10.23500 554.000
10.25000 607.000
10.26500 684.000
10.28000 748.000
10.29500 792.000
10.31000 712.000
10.32500 557.000
10.34000 451.000
10.35500 372.000
10.37000 328.000
10.38500 340.000
10.40000 301.000
10.41500 286.000
10.43000 313.000
10.44500 307.000
10.46000 287.000
10.47500 292.000
10.49000 305.000
10.50500 307.000
10.52000 340.000
10.53500 301.000
10.55000 297.000
10.56500 311.000
10.58000 282.000
10.59500 268.000
10.61000 281.000
10.62500 302.000
10.64000 296.000
10.65500 287.000
10.67000 296.000
10.68500 296.000
10.70000 298.000
10.71500 310.000
10.73000 301.000
10.74500 303.000
10.76000 308.000
10.77500 286.000
10.79000 298.000
10.80500 302.000
10.82000 282.000
10.83500 297.000
10.85000 301.000
10.86500 289.000
10.88000 294.000
10.89500 285.000
10.91000 301.000
10.92500 316.000
10.94000 291.000
10.95500 322.000
10.97000 295.000
10.98500 297.000
11.00000 298.000
11.01500 312.000
11.03000 307.000
11.04500 276.000
11.06000 270.000
11.07500 308.000
11.09000 282.000
11.10500 293.000
11.12000 299.000
11.13500 301.000
11.15000 302.000
11.16500 306.000
11.18000 295.000
11.19500 300.000
11.21000 314.000
11.22500 305.000
11.24000 292.000
11.25500 290.000
11.27000 277.000
11.28500 297.000
11.30000 300.000
11.31500 289.000
11.33000 289.000
11.34500 280.000
11.36000 283.000
11.37500 327.000
11.39000 326.000
11.40500 299.000
11.42000 321.000
11.43500 294.000
11.45000 301.000
11.46500 318.000
11.48000 319.000
11.49500 297.000
11.51000 315.000
11.52500 309.000
11.54000 293.000
11.55500 308.000
11.57000 318.000
11.58500 317.000
11.60000 303.000
11.61500 293.000
11.63000 304.000
11.64500 289.000
11.66000 294.000
11.67500 298.000
11.69000 302.000
11.70500 307.000
11.72000 343.000
11.73500 304.000
11.75000 314.000
11.76500 297.000
11.78000 275.000
11.79500 296.000
11.81000 335.000
11.82500 307.000
11.84000 305.000
11.85500 291.000
11.87000 275.000
11.88500 321.000
11.90000 307.000
11.91500 308.000
11.93000 321.000
11.94500 314.000
11.96000 323.000
11.97500 321.000
11.99000 299.000
12.00500 310.000
12.02000 308.000
12.03500 316.000
12.05000 313.000
12.06500 308.000
12.08000 326.000
12.09500 340.000
12.11000 337.000
12.12500 323.000
12.14000 305.000
12.15500 313.000
12.17000 298.000
12.18500 324.000
12.20000 333.000
12.21500 347.000
12.23000 356.000
12.24500 364.000
12.26000 370.000
12.27500 394.000
12.29000 390.000
12.30500 409.000
12.32000 445.000
12.33500 489.000
12.35000 509.000
12.36500 559.000
12.38000 602.000
12.39500 636.000
12.41000 628.000
12.42500 598.000
12.44000 590.000
12.45500 622.000
12.47000 647.000
12.48500 715.000
12.50000 817.000
12.51500 965.000
12.53000 1141.000
12.54500 1374.000
12.56000 1717.000
12.57500 2051.000
12.59000 2752.000
12.60500 3492.000
12.62000 4420.000
12.63500 5824.000
12.65000 7310.000
12.66500 8272.000
12.68000 7207.000
12.69500 4753.000
12.71000 2712.000
12.72500 1501.000
12.74000 1001.000
12.75500 677.000
12.77000 534.000
12.78500 485.000
12.80000 455.000
12.81500 433.000
12.83000 403.000
12.84500 363.000
12.86000 357.000
12.87500 341.000
12.89000 345.000
12.90500 322.000
12.92000 332.000
12.93500 349.000
12.95000 329.000
12.96500 310.000
12.98000 312.000
12.99500 340.000
13.01000 331.000
13.02500 311.000
13.04000 303.000
13.05500 306.000
13.07000 309.000
13.08500 327.000
13.10000 330.000
13.11500 303.000
13.13000 307.000
13.14500 330.000
13.16000 319.000
13.17500 288.000
13.19000 302.000
13.20500 312.000
13.22000 330.000
13.23500 318.000
13.25000 316.000
13.26500 323.000
13.28000 305.000
13.29500 314.000
13.31000 284.000
13.32500 288.000
13.34000 300.000
13.35500 297.000
13.37000 292.000
13.38500 318.000
13.40000 311.000
13.41500 297.000
13.43000 300.000
13.44500 311.000
13.46000 328.000
13.47500 302.000
13.49000 285.000
13.50500 302.000
13.52000 317.000
13.53500 297.000
13.55000 267.000
13.56500 272.000
13.58000 302.000
13.59500 296.000
13.61000 303.000
13.62500 261.000
13.64000 283.000
13.65500 297.000
13.67000 300.000
13.68500 318.000
13.70000 309.000
13.71500 291.000
13.73000 268.000
13.74500 286.000
13.76000 321.000
13.77500 292.000
13.79000 282.000
13.80500 297.000
13.82000 303.000
13.83500 280.000
13.85000 294.000
13.86500 281.000
13.88000 296.000
13.89500 304.000
13.91000 288.000
13.92500 293.000
13.94000 307.000
13.95500 313.000
13.97000 294.000
13.98500 286.000
14.00000 278.000
14.01500 295.000
14.03000 312.000
14.04500 310.000
14.06000 269.000
14.07500 282.000
14.09000 272.000
14.10500 294.000
14.12000 297.000
14.13500 297.000
14.15000 303.000
14.16500 303.000
14.18000 306.000
14.19500 340.000
14.21000 291.000
14.22500 288.000
14.24000 255.000
14.25500 269.000
14.27000 290.000
14.28500 293.000
14.30000 287.000
14.31500 291.000
14.33000 321.000
14.34500 291.000
14.36000 297.000
14.37500 277.000
14.39000 293.000
14.40500 311.000
14.42000 308.000
14.43500 297.000
14.45000 298.000
14.46500 293.000
14.48000 307.000
14.49500 333.000
14.51000 320.000
14.52500 316.000
14.54000 295.000
14.55500 303.000
14.57000 333.000
14.58500 339.000
14.60000 335.000
14.61500 365.000
14.63000 379.000
14.64500 404.000
14.66000 426.000
14.67500 534.000
14.69000 586.000
14.70500 637.000
14.72000 786.000
14.73500 922.000
14.75000 1028.000
14.76500 979.000
14.78000 753.000
14.79500 578.000
14.81000 471.000
14.82500 378.000
14.84000 370.000
14.85500 333.000
14.87000 313.000
14.88500 327.000
14.90000 319.000
14.91500 317.000
14.93000 308.000
14.94500 288.000
14.96000 290.000
14.97500 278.000
14.99000 290.000
15.00500 313.000
15.02000 290.000
15.03500 271.000
15.05000 270.000
15.06500 265.000
15.08000 285.000
15.09500 306.000
15.11000 312.000
15.12500 308.000
15.14000 301.000
15.15500 311.000
15.17000 317.000
15.18500 313.000
15.20000 283.000
15.21500 306.000
15.23000 309.000
15.24500 313.000
15.26000 286.000
15.27500 279.000
15.29000 296.000
15.30500 305.000
15.32000 280.000
15.33500 287.000
15.35000 302.000
15.36500 307.000
15.38000 293.000
15.39500 302.000
15.41000 296.000
15.42500 307.000
15.44000 349.000
15.45500 327.000
15.47000 305.000
15.48500 316.000
15.50000 339.000
15.51500 351.000
15.53000 368.000
15.54500 385.000
15.56000 428.000
15.57500 461.000
15.59000 489.000
15.60500 586.000
15.62000 701.000
15.63500 701.000
15.65000 654.000
15.66500 536.000
15.68000 432.000
15.69500 374.000
15.71000 329.000
15.72500 305.000
15.74000 313.000
15.75500 331.000
15.77000 294.000
15.78500 279.000
15.80000 295.000
15.81500 273.000
15.83000 288.000
15.84500 289.000
15.86000 299.000
15.87500 305.000
15.89000 297.000
15.90500 282.000
15.92000 273.000
15.93500 274.000
15.95000 262.000
15.96500 295.000
15.98000 305.000
15.99500 294.000
16.01000 295.000
16.02500 309.000
16.04000 290.000
16.05500 281.000
16.07000 301.000
16.08500 280.000
16.10000 293.000
16.11500 310.000
16.13000 321.000
16.14500 302.000
16.16000 311.000
16.17500 309.000
16.19000 296.000
16.20500 288.000
16.22000 310.000
16.23500 314.000
16.25000 290.000
16.26500 273.000
16.28000 273.000
16.29500 289.000
16.31000 285.000
16.32500 303.000
16.34000 295.000
16.35500 293.000
16.37000 280.000
16.38500 317.000
16.40000 311.000
16.41500 287.000
16.43000 282.000
16.44500 286.000
16.46000 297.000
16.47500 297.000
16.49000 299.000
16.50500 299.000
16.52000 286.000
16.53500 293.000
16.55000 292.000
16.56500 290.000
16.58000 304.000
16.59500 277.000
16.61000 300.000
16.62500 288.000
16.64000 282.000
16.65500 299.000
16.67000 292.000
16.68500 292.000
16.70000 285.000
16.71500 287.000
16.73000 290.000
16.74500 275.000
16.76000 280.000
16.77500 300.000
16.79000 314.000
16.80500 294.000
16.82000 273.000
16.83500 283.000
16.85000 293.000
16.86500 304.000
16.88000 284.000
16.89500 261.000
16.91000 316.000
16.92500 310.000
16.94000 295.000
16.95500 295.000
16.97000 285.000
16.98500 295.000
17.00000 288.000
17.01500 316.000
17.03000 295.000
17.04500 328.000
17.06000 307.000
17.07500 302.000
17.09000 315.000
17.10500 314.000
17.12000 313.000
17.13500 340.000
17.15000 309.000
17.16500 308.000
17.18000 313.000
17.19500 316.000
17.21000 298.000
17.22500 308.000
17.24000 324.000
17.25500 323.000
17.27000 319.000
17.28500 325.000
17.30000 331.000
17.31500 304.000
17.33000 321.000
17.34500 337.000
17.36000 302.000
17.37500 284.000
17.39000 287.000
17.40500 282.000
17.42000 296.000
17.43500 288.000
17.45000 300.000
17.46500 317.000
17.48000 317.000
17.49500 304.000
17.51000 286.000
17.52500 302.000
17.54000 304.000
17.55500 287.000
17.57000 288.000
17.58500 313.000
17.60000 311.000
17.61500 302.000
17.63000 335.000
17.64500 311.000
17.66000 294.000
17.67500 301.000
17.69000 277.000
17.70500 310.000
17.72000 293.000
17.73500 320.000
17.75000 293.000
17.76500 307.000
17.78000 298.000
17.79500 311.000
17.81000 320.000
17.82500 319.000
17.84000 317.000
17.85500 312.000
17.87000 318.000
17.88500 336.000
17.90000 325.000
17.91500 319.000
17.93000 311.000
17.94500 324.000
17.96000 398.000
17.97500 422.000
17.99000 465.000
18.00500 497.000
18.02000 497.000
18.03500 452.000
18.05000 396.000
18.06500 365.000
18.08000 333.000
18.09500 319.000
18.11000 333.000
18.12500 296.000
18.14000 293.000
18.15500 297.000
18.17000 286.000
18.18500 301.000
18.20000 281.000
18.21500 300.000
18.23000 278.000
18.24500 302.000
18.26000 326.000
18.27500 323.000
18.29000 272.000
18.30500 273.000
18.32000 319.000
18.33500 294.000
18.35000 306.000
18.36500 333.000
18.38000 313.000
18.39500 280.000
18.41000 279.000
18.42500 297.000
18.44000 310.000
18.45500 291.000
18.47000 293.000
18.48500 300.000
18.50000 308.000
18.51500 288.000
18.53000 277.000
18.54500 303.000
18.56000 283.000
18.57500 284.000
18.59000 295.000
18.60500 295.000
18.62000 292.000
18.63500 282.000
18.65000 297.000
18.66500 313.000
18.68000 300.000
18.69500 287.000
18.71000 276.000
18.72500 291.000
18.74000 309.000
18.75500 298.000
18.77000 293.000
18.78500 315.000
18.80000 301.000
18.81500 290.000
18.83000 311.000
18.84500 311.000
18.86000 296.000
18.87500 303.000
18.89000 311.000
18.90500 306.000
18.92000 324.000
18.93500 302.000
18.95000 278.000
18.96500 282.000
18.98000 306.000
18.99500 307.000
19.01000 326.000
19.02500 312.000
19.04000 291.000
19.05500 310.000
19.07000 320.000
19.08500 321.000
19.10000 314.000
19.11500 302.000
19.13000 334.000
19.14500 304.000
19.16000 312.000
19.17500 322.000
19.19000 292.000
19.20500 302.000
19.22000 319.000
19.23500 335.000
19.25000 311.000
19.26500 315.000
19.28000 321.000
19.29500 303.000
19.31000 274.000
19.32500 320.000
19.34000 304.000
19.35500 284.000
19.37000 288.000
19.38500 302.000
19.40000 299.000
19.41500 308.000
19.43000 313.000
19.44500 293.000
19.46000 290.000
19.47500 320.000
19.49000 282.000
19.50500 299.000
19.52000 276.000
19.53500 287.000
19.55000 308.000
19.56500 306.000
19.58000 301.000
19.59500 302.000
19.61000 268.000
19.62500 291.000
19.64000 339.000
19.65500 328.000
19.67000 310.000
19.68500 304.000
19.70000 320.000
19.71500 296.000
19.73000 297.000
19.74500 299.000
19.76000 304.000
19.77500 300.000
19.79000 308.000
19.80500 307.000
19.82000 326.000
19.83500 328.000
19.85000 313.000
19.86500 290.000
19.88000 277.000
19.89500 284.000
19.91000 291.000
19.92500 312.000
19.94000 335.000
19.95500 317.000
19.97000 313.000
19.98500 303.000
20.00000 283.000
20.01500 317.000
20.03000 295.000
20.04500 291.000
20.06000 307.000
20.07500 301.000
20.09000 319.000
20.10500 313.000
20.12000 310.000
20.13500 330.000
20.15000 311.000
20.16500 316.000
20.18000 315.000
20.19500 315.000
20.21000 303.000
20.22500 319.000
20.24000 336.000
20.25500 335.000
20.27000 310.000
20.28500 313.000
20.30000 314.000
20.31500 319.000
20.33000 308.000
20.34500 318.000
20.36000 311.000
20.37500 309.000
20.39000 302.000
20.40500 310.000
20.42000 313.000
20.43500 339.000
20.45000 302.000
20.46500 289.000
20.48000 292.000
20.49500 313.000
20.51000 322.000
20.52500 306.000
20.54000 310.000
20.55500 297.000
20.57000 318.000
20.58500 349.000
20.60000 317.000
20.61500 309.000
20.63000 307.000
20.64500 309.000
20.66000 322.000
20.67500 314.000
20.69000 294.000
20.70500 297.000
20.72000 297.000
20.73500 298.000
20.75000 309.000
20.76500 302.000
20.78000 330.000
20.79500 348.000
20.81000 312.000
20.82500 313.000
20.84000 302.000
20.85500 309.000
20.87000 293.000
20.88500 324.000
20.90000 327.000
20.91500 300.000
20.93000 320.000
20.94500 312.000
20.96000 295.000
20.97500 330.000
20.99000 338.000
21.00500 320.000
21.02000 299.000
21.03500 292.000
21.05000 305.000
21.06500 334.000
21.08000 301.000
21.09500 335.000
21.11000 340.000
21.12500 316.000
21.14000 334.000
21.15500 336.000
21.17000 323.000
21.18500 300.000
21.20000 293.000
21.21500 308.000
21.23000 301.000
21.24500 323.000
21.26000 336.000
21.27500 309.000
21.29000 308.000
21.30500 341.000
21.32000 374.000
21.33500 395.000
21.35000 405.000
21.36500 472.000
21.38000 494.000
21.39500 501.000
21.41000 572.000
21.42500 660.000
21.44000 632.000
21.45500 542.000
21.47000 453.000
21.48500 382.000
21.50000 339.000
21.51500 351.000
21.53000 355.000
21.54500 355.000
21.56000 359.000
21.57500 326.000
21.59000 338.000
21.60500 336.000
21.62000 328.000
21.63500 324.000
21.65000 326.000
21.66500 348.000
21.68000 310.000
21.69500 357.000
21.71000 315.000
21.72500 330.000
21.74000 341.000
21.75500 329.000
21.77000 360.000
21.78500 351.000
21.80000 384.000
21.81500 334.000
21.83000 334.000
21.84500 359.000
21.86000 384.000
21.87500 405.000
21.89000 418.000
21.90500 473.000
21.92000 513.000
21.93500 541.000
21.95000 608.000
21.96500 572.000
21.98000 504.000
21.99500 448.000
22.01000 402.000
22.02500 349.000
22.04000 344.000
22.05500 304.000
22.07000 342.000
22.08500 362.000
22.10000 332.000
22.11500 310.000
22.13000 306.000
22.14500 322.000
22.16000 307.000
22.17500 315.000
22.19000 328.000
22.20500 306.000
22.22000 301.000
22.23500 317.000
22.25000 326.000
22.26500 310.000
22.28000 320.000
22.29500 308.000
22.31000 339.000
22.32500 341.000
22.34000 325.000
22.35500 327.000
22.37000 325.000
22.38500 311.000
22.40000 322.000
22.41500 304.000
22.43000 316.000
22.44500 346.000
22.46000 319.000
22.47500 324.000
22.49000 353.000
22.50500 306.000
22.52000 307.000
22.53500 323.000
22.55000 285.000
22.56500 312.000
22.58000 328.000
22.59500 309.000
22.61000 291.000
22.62500 317.000
22.64000 302.000
22.65500 301.000
22.67000 334.000
22.68500 295.000
22.70000 315.000
22.71500 326.000
22.73000 319.000
22.74500 355.000
22.76000 344.000
22.77500 310.000
22.79000 366.000
22.80500 397.000
22.82000 366.000
22.83500 349.000
22.85000 350.000
22.86500 333.000
22.88000 316.000
22.89500 318.000
22.91000 334.000
22.92500 337.000
22.94000 329.000
22.95500 321.000
22.97000 314.000
22.98500 343.000
23.00000 335.000
23.01500 349.000
23.03000 337.000
23.04500 333.000
23.06000 332.000
23.07500 337.000
23.09000 348.000
23.10500 351.000
23.12000 327.000
23.13500 335.000
23.15000 311.000
23.16500 330.000
23.18000 309.000
23.19500 349.000
23.21000 330.000
23.22500 332.000
23.24000 331.000
23.25500 338.000
23.27000 337.000
23.28500 333.000
23.30000 325.000
23.31500 324.000
23.33000 301.000
23.34500 319.000
23.36000 312.000
23.37500 301.000
23.39000 337.000
23.40500 327.000
23.42000 344.000
23.43500 334.000
23.45000 311.000
23.46500 335.000
23.48000 331.000
23.49500 332.000
23.51000 345.000
23.52500 355.000
23.54000 348.000
23.55500 355.000
23.57000 332.000
23.58500 345.000
23.60000 339.000
23.61500 308.000
23.63000 317.000
23.64500 345.000
23.66000 341.000
23.67500 340.000
23.69000 325.000
23.70500 305.000
23.72000 344.000
23.73500 352.000
23.75000 341.000
23.76500 352.000
23.78000 348.000
23.79500 351.000
23.81000 353.000
23.82500 338.000
23.84000 333.000
23.85500 331.000
23.87000 323.000
23.88500 357.000
23.90000 345.000
23.91500 340.000
23.93000 351.000
23.94500 336.000
23.96000 372.000
23.97500 425.000
23.99000 439.000
24.00500 477.000
24.02000 489.000
24.03500 566.000
24.05000 623.000
24.06500 697.000
24.08000 844.000
24.09500 1046.000
24.11000 1127.000
24.12500 1095.000
24.14000 969.000
24.15500 814.000
24.17000 655.000
24.18500 537.000
24.20000 455.000
24.21500 416.000
24.23000 414.000
24.24500 381.000
24.26000 374.000
24.27500 373.000
24.29000 378.000
24.30500 410.000
24.32000 406.000
24.33500 384.000
24.35000 389.000
24.36500 373.000
24.38000 387.000
24.39500 403.000
24.41000 378.000
24.42500 408.000
24.44000 443.000
24.45500 451.000
24.47000 491.000
24.48500 559.000
24.50000 639.000
24.51500 675.000
24.53000 695.000
24.54500 621.000
24.56000 571.000
24.57500 476.000
24.59000 463.000
24.60500 457.000
24.62000 409.000
24.63500 396.000
24.65000 422.000
24.66500 440.000
24.68000 436.000
24.69500 479.000
24.71000 468.000
24.72500 470.000
24.74000 479.000
24.75500 446.000
24.77000 462.000
24.78500 462.000
24.80000 471.000
24.81500 476.000
24.83000 441.000
24.84500 435.000
24.86000 452.000
24.87500 486.000
24.89000 485.000
24.90500 496.000
24.92000 519.000
24.93500 499.000
24.95000 525.000
24.96500 556.000
24.98000 598.000
24.99500 608.000
25.01000 680.000
25.02500 700.000
25.04000 773.000
25.05500 730.000
25.07000 748.000
25.08500 769.000
25.10000 775.000
25.11500 817.000
25.13000 992.000
25.14500 1215.000
25.16000 1472.000
25.17500 1786.000
25.19000 2200.000
25.20500 2710.000
25.22000 3341.000
25.23500 3907.000
25.25000 4016.000
25.26500 3714.000
25.28000 3020.000
25.29500 2258.000
25.31000 1766.000
25.32500 1451.000
25.34000 1213.000
25.35500 1067.000
25.37000 1020.000
25.38500 1001.000
25.40000 1074.000
25.41500 1195.000
25.43000 1391.000
25.44500 1653.000
25.46000 1958.000
25.47500 2037.000
25.49000 1897.000
25.50500 1541.000
25.52000 1121.000
25.53500 882.000
25.55000 735.000
25.56500 641.000
25.58000 556.000
25.59500 513.000
25.61000 466.000
25.62500 439.000
25.64000 415.000
25.65500 407.000
25.67000 404.000
25.68500 389.000
25.70000 402.000
25.71500 407.000
25.73000 404.000
25.74500 399.000
25.76000 376.000
25.77500 415.000
25.79000 431.000
25.80500 408.000
25.82000 441.000
25.83500 481.000
25.85000 508.000
25.86500 532.000
25.88000 565.000
25.89500 525.000
25.91000 477.000
25.92500 444.000
25.94000 416.000
25.95500 413.000
25.97000 401.000
25.98500 412.000
26.00000 380.000
26.01500 384.000
26.03000 392.000
26.04500 355.000
26.06000 360.000
26.07500 359.000
26.09000 375.000
26.10500 376.000
26.12000 383.000
26.13500 378.000
26.15000 379.000
26.16500 404.000
26.18000 373.000
26.19500 352.000
26.21000 364.000
26.22500 380.000
26.24000 375.000
26.25500 385.000
26.27000 395.000
26.28500 386.000
26.30000 378.000
26.31500 382.000
26.33000 418.000
26.34500 429.000
26.36000 436.000
26.37500 489.000
26.39000 501.000
26.40500 559.000
26.42000 658.000
26.43500 738.000
26.45000 844.000
26.46500 988.000
26.48000 1204.000
26.49500 1446.000
26.51000 1558.000
26.52500 1515.000
26.54000 1280.000
26.55500 1048.000
26.57000 851.000
26.58500 742.000
26.60000 590.000
26.61500 522.000
26.63000 494.000
26.64500 457.000
26.66000 468.000
26.67500 433.000
26.69000 421.000
26.70500 401.000
26.72000 390.000
26.73500 402.000
26.75000 391.000
26.76500 370.000
26.78000 388.000
26.79500 400.000
26.81000 365.000
26.82500 395.000
26.84000 404.000
26.85500 428.000
26.87000 432.000
26.88500 451.000
26.90000 492.000
26.91500 466.000
26.93000 507.000
26.94500 573.000
26.96000 535.000
26.97500 532.000
26.99000 505.000
27.00500 480.000
27.02000 437.000
27.03500 417.000
27.05000 383.000
27.06500 402.000
27.08000 405.000
27.09500 398.000
27.11000 411.000
27.12500 422.000
27.14000 440.000
27.15500 443.000
27.17000 436.000
27.18500 419.000
27.20000 419.000
27.21500 414.000
27.23000 427.000
27.24500 414.000
27.26000 421.000
27.27500 442.000
27.29000 437.000
27.30500 478.000
27.32000 473.000
27.33500 472.000
27.35000 476.000
27.36500 508.000
27.38000 492.000
27.39500 521.000
27.41000 528.000
27.42500 571.000
27.44000 616.000
27.45500 650.000
27.47000 706.000
27.48500 803.000
27.50000 826.000
27.51500 934.000
27.53000 1039.000
27.54500 1186.000
27.56000 1429.000
27.57500 1699.000
27.59000 2034.000
27.60500 2684.000
27.62000 3515.000
27.63500 4887.000
27.65000 6804.000
27.66500 9427.000
27.68000 12527.000
27.69500 14792.000
27.71000 14526.000
27.72500 11857.000
27.74000 7899.000
27.75500 4792.000
27.77000 2879.000
27.78500 1953.000
27.80000 1425.000
27.81500 1142.000
27.83000 919.000
27.84500 805.000
27.86000 733.000
27.87500 693.000
27.89000 660.000
27.90500 634.000
27.92000 613.000
27.93500 588.000
27.95000 543.000
27.96500 501.000
27.98000 483.000
27.99500 471.000
28.01000 460.000
28.02500 448.000
28.04000 426.000
28.05500 424.000
28.07000 400.000
28.08500 406.000
28.10000 411.000
28.11500 401.000
28.13000 429.000
28.14500 392.000
28.16000 420.000
28.17500 423.000
28.19000 424.000
28.20500 394.000
28.22000 418.000
28.23500 417.000
28.25000 407.000
28.26500 401.000
28.28000 396.000
28.29500 422.000
28.31000 454.000
28.32500 456.000
28.34000 459.000
28.35500 443.000
28.37000 447.000
28.38500 488.000
28.40000 458.000
28.41500 440.000
28.43000 423.000
28.44500 387.000
28.46000 400.000
28.47500 368.000
28.49000 371.000
28.50500 358.000
28.52000 330.000
28.53500 333.000
28.55000 338.000
28.56500 326.000
28.58000 350.000
28.59500 321.000
28.61000 356.000
28.62500 346.000
28.64000 323.000
28.65500 345.000
28.67000 361.000
28.68500 356.000
28.70000 369.000
28.71500 391.000
28.73000 387.000
28.74500 388.000
28.76000 432.000
28.77500 391.000
28.79000 414.000
28.80500 456.000
28.82000 507.000
28.83500 573.000
28.85000 608.000
28.86500 734.000
28.88000 824.000
28.89500 957.000
28.91000 1130.000
28.92500 1315.000
28.94000 1488.000
28.95500 1626.000
28.97000 1517.000
28.98500 1375.000
29.00000 1139.000
29.01500 853.000
29.03000 778.000
29.04500 661.000
29.06000 570.000
29.07500 520.000
29.09000 465.000
29.10500 418.000
29.12000 408.000
29.13500 368.000
29.15000 398.000
29.16500 374.000
29.18000 386.000
29.19500 358.000
29.21000 329.000
29.22500 336.000
29.24000 338.000
29.25500 357.000
29.27000 329.000
29.28500 355.000
29.30000 290.000
29.31500 299.000
29.33000 307.000
29.34500 320.000
29.36000 286.000
29.37500 330.000
29.39000 327.000
29.40500 315.000
29.42000 318.000
29.43500 315.000
29.45000 329.000
29.46500 333.000
29.48000 344.000
29.49500 350.000
29.51000 356.000
29.52500 401.000
29.54000 354.000
29.55500 350.000
29.57000 347.000
29.58500 364.000
29.60000 338.000
29.61500 336.000
29.63000 317.000
29.64500 318.000
29.66000 317.000
29.67500 303.000
29.69000 349.000
29.70500 369.000
29.72000 378.000
29.73500 392.000
29.75000 394.000
29.76500 403.000
29.78000 385.000
29.79500 333.000
29.81000 314.000
29.82500 300.000
29.84000 324.000
29.85500 290.000
29.87000 288.000
29.88500 297.000
29.90000 323.000
29.91500 288.000
29.93000 295.000
29.94500 306.000
29.96000 295.000
29.97500 281.000
29.99000 267.000
30.00500 254.000
30.02000 279.000
30.03500 280.000
30.05000 264.000
30.06500 291.000
30.08000 264.000
30.09500 289.000
30.11000 290.000
30.12500 280.000
30.14000 289.000
30.15500 287.000
30.17000 292.000
30.18500 312.000
30.20000 339.000
30.21500 325.000
30.23000 294.000
30.24500 284.000
30.26000 305.000
30.27500 306.000
30.29000 299.000
30.30500 289.000
30.32000 307.000
30.33500 277.000
30.35000 279.000
30.36500 294.000
30.38000 302.000
30.39500 317.000
30.41000 286.000
30.42500 297.000
30.44000 286.000
30.45500 300.000
30.47000 295.000
30.48500 310.000
30.50000 309.000
30.51500 305.000
30.53000 295.000
30.54500 279.000
30.56000 270.000
30.57500 279.000
30.59000 270.000
30.60500 264.000
30.62000 232.000
30.63500 268.000
30.65000 253.000
30.66500 254.000
30.68000 259.000
30.69500 250.000
30.71000 258.000
30.72500 238.000
30.74000 272.000
30.75500 289.000
30.77000 256.000
30.78500 259.000
30.80000 263.000
30.81500 270.000
30.83000 264.000
30.84500 263.000
30.86000 258.000
30.87500 268.000
30.89000 271.000
30.90500 255.000
30.92000 272.000
30.93500 258.000
30.95000 256.000
30.96500 257.000
30.98000 285.000
30.99500 298.000
31.01000 251.000
31.02500 248.000
31.04000 245.000
31.05500 244.000
31.07000 282.000
31.08500 296.000
31.10000 284.000
31.11500 268.000
31.13000 259.000
31.14500 255.000
31.16000 279.000
31.17500 292.000
31.19000 292.000
31.20500 288.000
31.22000 285.000
31.23500 269.000
31.25000 268.000
31.26500 284.000
31.28000 284.000
31.29500 270.000
31.31000 280.000
31.32500 273.000
31.34000 291.000
31.35500 265.000
31.37000 254.000
31.38500 265.000
31.40000 276.000
31.41500 281.000
31.43000 298.000
31.44500 304.000
31.46000 319.000
31.47500 334.000
31.49000 368.000
31.50500 398.000
31.52000 393.000
31.53500 422.000
31.55000 428.000
31.56500 369.000
31.58000 352.000
31.59500 308.000
31.61000 292.000
31.62500 304.000
31.64000 296.000
31.65500 275.000
31.67000 285.000
31.68500 279.000
31.70000 265.000
31.71500 258.000
31.73000 269.000
31.74500 234.000
31.76000 241.000
31.77500 256.000
31.79000 264.000
31.80500 257.000
31.82000 245.000
31.83500 252.000
31.85000 252.000
31.86500 257.000
31.88000 253.000
31.89500 231.000
31.91000 247.000
31.92500 261.000
31.94000 257.000
31.95500 241.000
31.97000 240.000
31.98500 262.000
32.00000 258.000
32.01500 224.000
32.03000 239.000
32.04500 246.000
32.06000 256.000
32.07500 263.000
32.09000 270.000
32.10500 245.000
32.12000 266.000
32.13500 247.000
32.15000 243.000
32.16500 250.000
32.18000 252.000
32.19500 236.000
32.21000 256.000
32.22500 237.000
32.24000 260.000
32.25500 228.000
32.27000 202.000
32.28500 230.000
32.30000 235.000
32.31500 229.000
32.33000 216.000
32.34500 238.000
32.36000 225.000
32.37500 209.000
32.39000 213.000
32.40500 229.000
32.42000 224.000
32.43500 224.000
32.45000 219.000
32.46500 231.000
32.48000 242.000
32.49500 241.000
32.51000 231.000
32.52500 242.000
32.54000 225.000
32.55500 225.000
32.57000 209.000
32.58500 234.000
32.60000 238.000
32.61500 222.000
32.63000 232.000
32.64500 235.000
32.66000 239.000
32.67500 217.000
32.69000 207.000
32.70500 255.000
32.72000 239.000
32.73500 238.000
32.75000 228.000
32.76500 222.000
32.78000 221.000
32.79500 234.000
32.81000 225.000
32.82500 227.000
32.84000 253.000
32.85500 232.000
32.87000 224.000
32.88500 231.000
32.90000 215.000
32.91500 212.000
32.93000 209.000
32.94500 237.000
32.96000 252.000
32.97500 234.000
32.99000 241.000
33.00500 256.000
33.02000 262.000
33.03500 258.000
33.05000 265.000
33.06500 243.000
33.08000 246.000
33.09500 229.000
33.11000 232.000
33.12500 229.000
33.14000 245.000
33.15500 220.000
33.17000 204.000
33.18500 203.000
33.20000 219.000
33.21500 230.000
33.23000 224.000
33.24500 201.000
33.26000 210.000
33.27500 224.000
33.29000 213.000
33.30500 241.000
33.32000 214.000
33.33500 231.000
33.35000 214.000
33.36500 215.000
33.38000 218.000
33.39500 217.000
33.41000 237.000
33.42500 232.000
33.44000 227.000
33.45500 233.000
33.47000 232.000
33.48500 232.000
33.50000 245.000
33.51500 263.000
33.53000 227.000
33.54500 260.000
33.56000 239.000
33.57500 229.000
33.59000 249.000
33.60500 252.000
33.62000 258.000
33.63500 235.000
33.65000 245.000
33.66500 270.000
33.68000 266.000
33.69500 301.000
33.71000 288.000
33.72500 283.000
33.74000 254.000
33.75500 244.000
33.77000 234.000
33.78500 224.000
33.80000 204.000
33.81500 223.000
33.83000 220.000
33.84500 238.000
33.86000 206.000
33.87500 201.000
33.89000 206.000
33.90500 209.000
33.92000 221.000
33.93500 234.000
33.95000 229.000
33.96500 222.000
33.98000 220.000
33.99500 237.000
34.01000 239.000
34.02500 239.000
34.04000 219.000
34.05500 229.000
34.07000 242.000
34.08500 208.000
34.10000 240.000
34.11500 234.000
34.13000 212.000
34.14500 205.000
34.16000 200.000
34.17500 218.000
34.19000 257.000
34.20500 236.000
34.22000 241.000
34.23500 264.000
34.25000 284.000
34.26500 297.000
34.28000 303.000
34.29500 356.000
34.31000 398.000
34.32500 440.000
34.34000 470.000
34.35500 527.000
34.37000 509.000
34.38500 485.000
34.40000 428.000
34.41500 388.000
34.43000 301.000
34.44500 261.000
34.46000 255.000
34.47500 254.000
34.49000 213.000
34.50500 247.000
34.52000 251.000
34.53500 208.000
34.55000 218.000
34.56500 211.000
34.58000 209.000
34.59500 210.000
34.61000 213.000
34.62500 216.000
34.64000 216.000
34.65500 243.000
34.67000 227.000
34.68500 199.000
34.70000 225.000
34.71500 217.000
34.73000 197.000
34.74500 209.000
34.76000 200.000
34.77500 207.000
34.79000 203.000
34.80500 201.000
34.82000 206.000
34.83500 222.000
34.85000 241.000
34.86500 232.000
34.88000 246.000
34.89500 248.000
34.91000 244.000
34.92500 293.000
34.94000 331.000
34.95500 377.000
34.97000 359.000
34.98500 382.000
35.00000 345.000
35.01500 329.000
35.03000 313.000
35.04500 290.000
35.06000 250.000
35.07500 236.000
35.09000 241.000
35.10500 233.000
35.12000 230.000
35.13500 220.000
35.15000 228.000
35.16500 242.000
35.18000 233.000
35.19500 212.000
35.21000 199.000
35.22500 217.000
35.24000 179.000
35.25500 197.000
35.27000 170.000
35.28500 185.000
35.30000 208.000
35.31500 203.000
35.33000 191.000
35.34500 177.000
35.36000 162.000
35.37500 157.000
35.39000 180.000
35.40500 186.000
35.42000 202.000
35.43500 200.000
35.45000 188.000
35.46500 183.000
35.48000 206.000
35.49500 182.000
35.51000 189.000
35.52500 173.000
35.54000 177.000
35.55500 194.000
35.57000 187.000
35.58500 177.000
35.60000 174.000
35.61500 183.000
35.63000 190.000
35.64500 200.000
35.66000 194.000
35.67500 187.000
35.69000 204.000
35.70500 187.000
35.72000 178.000
35.73500 180.000
35.75000 185.000
35.76500 186.000
35.78000 176.000
35.79500 196.000
35.81000 188.000
35.82500 181.000
35.84000 172.000
35.85500 170.000
35.87000 184.000
35.88500 176.000
35.90000 170.000
35.91500 167.000
35.93000 195.000
35.94500 183.000
35.96000 181.000
35.97500 177.000
35.99000 168.000
36.00500 162.000
36.02000 178.000
36.03500 165.000
36.05000 174.000
36.06500 180.000
36.08000 173.000
36.09500 169.000
36.11000 165.000
36.12500 163.000
36.14000 166.000
36.15500 191.000
36.17000 192.000
36.18500 168.000
36.20000 162.000
36.21500 172.000
36.23000 179.000
36.24500 194.000
36.26000 168.000
36.27500 157.000
36.29000 155.000
36.30500 158.000
36.32000 179.000
36.33500 201.000
36.35000 196.000
36.36500 168.000
36.38000 166.000
36.39500 190.000
36.41000 176.000
36.42500 170.000
36.44000 163.000
36.45500 169.000
36.47000 184.000
36.48500 171.000
36.50000 183.000
36.51500 168.000
36.53000 171.000
36.54500 165.000
36.56000 188.000
36.57500 154.000
36.59000 146.000
36.60500 159.000
36.62000 170.000
36.63500 181.000
36.65000 188.000
36.66500 183.000
36.68000 179.000
36.69500 187.000
36.71000 173.000
36.72500 186.000
36.74000 190.000
36.75500 180.000
36.77000 174.000
36.78500 165.000
36.80000 170.000
36.81500 174.000
36.83000 160.000
36.84500 172.000
36.86000 184.000
36.87500 168.000
36.89000 154.000
36.90500 154.000
36.92000 167.000
36.93500 179.000
36.95000 149.000
36.96500 152.000
36.98000 153.000
36.99500 155.000
37.01000 158.000
37.02500 159.000
37.04000 170.000
37.05500 171.000
37.07000 159.000
37.08500 170.000
37.10000 171.000
37.11500 177.000
37.13000 182.000
37.14500 178.000
37.16000 174.000
37.17500 168.000
37.19000 164.000
37.20500 168.000
37.22000 192.000
37.23500 188.000
37.25000 183.000
37.26500 176.000
37.28000 158.000
37.29500 168.000
37.31000 164.000
37.32500 175.000
37.34000 190.000
37.35500 195.000
37.37000 193.000
37.38500 194.000
37.40000 180.000
37.41500 184.000
37.43000 191.000
37.44500 209.000
37.46000 198.000
37.47500 205.000
37.49000 200.000
37.50500 185.000
37.52000 189.000
37.53500 174.000
37.55000 174.000
37.56500 175.000
37.58000 173.000
37.59500 184.000
37.61000 173.000
37.62500 170.000
37.64000 161.000
37.65500 185.000
37.67000 171.000
37.68500 167.000
37.70000 183.000
37.71500 181.000
37.73000 176.000
37.74500 181.000
37.76000 203.000
37.77500 212.000
37.79000 189.000
37.80500 201.000
37.82000 202.000
37.83500 190.000
37.85000 202.000
37.86500 185.000
37.88000 166.000
37.89500 157.000
37.91000 178.000
37.92500 170.000
37.94000 171.000
37.95500 162.000
37.97000 157.000
37.98500 164.000
38.00000 170.000
38.01500 165.000
38.03000 161.000
38.04500 175.000
38.06000 171.000
38.07500 168.000
38.09000 161.000
38.10500 146.000
38.12000 152.000
38.13500 137.000
38.15000 158.000
38.16500 170.000
38.18000 178.000
38.19500 151.000
38.21000 165.000
38.22500 173.000
38.24000 158.000
38.25500 164.000
38.27000 165.000
38.28500 162.000
38.30000 166.000
38.31500 173.000
38.33000 154.000
38.34500 146.000
38.36000 174.000
38.37500 180.000
38.39000 175.000
38.40500 165.000
38.42000 163.000
38.43500 171.000
38.45000 161.000
38.46500 177.000
38.48000 159.000
38.49500 165.000
38.51000 182.000
38.52500 190.000
38.54000 194.000
38.55500 202.000
38.57000 200.000
38.58500 193.000
38.60000 196.000
38.61500 206.000
38.63000 193.000
38.64500 190.000
38.66000 193.000
38.67500 191.000
38.69000 167.000
38.70500 177.000
38.72000 181.000
38.73500 175.000
38.75000 178.000
38.76500 177.000
38.78000 180.000
38.79500 179.000
38.81000 181.000
38.82500 199.000
38.84000 195.000
38.85500 215.000
38.87000 228.000
38.88500 279.000
38.90000 280.000
38.91500 292.000
38.93000 287.000
38.94500 280.000
38.96000 243.000
38.97500 204.000
38.99000 202.000
39.00500 212.000
39.02000 213.000
39.03500 201.000
39.05000 175.000
39.06500 172.000
39.08000 175.000
39.09500 181.000
39.11000 167.000
39.12500 170.000
39.14000 157.000
39.15500 171.000
39.17000 169.000
39.18500 153.000
39.20000 152.000
39.21500 158.000
39.23000 150.000
39.24500 154.000
39.26000 157.000
39.27500 160.000
39.29000 163.000
39.30500 157.000
39.32000 161.000
39.33500 151.000
39.35000 173.000
39.36500 152.000
39.38000 152.000
39.39500 156.000
39.41000 146.000
39.42500 155.000
39.44000 178.000
39.45500 153.000
39.47000 155.000
39.48500 170.000
39.50000 159.000
39.51500 174.000
39.53000 166.000
39.54500 171.000
39.56000 145.000
39.57500 138.000
39.59000 155.000
39.60500 156.000
39.62000 158.000
39.63500 153.000
39.65000 165.000
39.66500 147.000
39.68000 175.000
39.69500 179.000
39.71000 176.000
39.72500 190.000
39.74000 181.000
39.75500 183.000
39.77000 204.000
39.78500 214.000
39.80000 215.000
39.81500 260.000
39.83000 260.000
39.84500 279.000
39.86000 271.000
39.87500 237.000
39.89000 208.000
39.90500 215.000
39.92000 208.000
39.93500 192.000
39.95000 197.000
39.96500 187.000
39.98000 191.000
39.99500 175.000
40.01000 183.000
40.02500 179.000
40.04000 163.000
40.05500 166.000
40.07000 163.000
40.08500 175.000
40.10000 146.000
40.11500 153.000
40.13000 161.000
40.14500 145.000
40.16000 159.000
40.17500 151.000
40.19000 147.000
40.20500 157.000
40.22000 184.000
40.23500 183.000
40.25000 183.000
40.26500 176.000
40.28000 180.000
40.29500 174.000
40.31000 182.000
40.32500 181.000
40.34000 189.000
40.35500 204.000
40.37000 200.000
40.38500 206.000
40.40000 220.000
40.41500 182.000
40.43000 201.000
40.44500 187.000
40.46000 190.000
40.47500 178.000
40.49000 161.000
40.50500 188.000
40.52000 185.000
40.53500 190.000
40.55000 171.000
40.56500 173.000
40.58000 178.000
40.59500 172.000
40.61000 193.000
40.62500 182.000
40.64000 212.000
40.65500 208.000
40.67000 231.000
40.68500 234.000
40.70000 225.000
40.71500 259.000
40.73000 257.000
40.74500 227.000
40.76000 211.000
40.77500 184.000
40.79000 181.000
40.80500 189.000
40.82000 183.000
40.83500 166.000
40.85000 159.000
40.86500 178.000
40.88000 151.000
40.89500 156.000
40.91000 168.000
40.92500 188.000
40.94000 169.000
40.95500 168.000
40.97000 186.000
40.98500 181.000
41.00000 184.000
41.01500 186.000
41.03000 180.000
41.04500 167.000
41.06000 188.000
41.07500 184.000
41.09000 198.000
41.10500 186.000
41.12000 180.000
41.13500 206.000
41.15000 185.000
41.16500 195.000
41.18000 206.000
41.19500 208.000
41.21000 194.000
41.22500 226.000
41.24000 206.000
41.25500 217.000
41.27000 220.000
41.28500 229.000
41.30000 225.000
41.31500 207.000
41.33000 207.000
41.34500 190.000
41.36000 178.000
41.37500 168.000
41.39000 180.000
41.40500 182.000
41.42000 189.000
41.43500 186.000
41.45000 160.000
41.46500 176.000
41.48000 177.000
41.49500 186.000
41.51000 190.000
41.52500 193.000
41.54000 202.000
41.55500 198.000
41.57000 217.000
41.58500 270.000
41.60000 325.000
41.61500 327.000
41.63000 395.000
41.64500 435.000
41.66000 421.000
41.67500 393.000
41.69000 344.000
41.70500 295.000
41.72000 285.000
41.73500 261.000
41.75000 217.000
41.76500 201.000
41.78000 193.000
41.79500 203.000
41.81000 188.000
41.82500 177.000
41.84000 174.000
41.85500 189.000
41.87000 201.000
41.88500 207.000
41.90000 186.000
41.91500 199.000
41.93000 192.000
41.94500 208.000
41.96000 194.000
41.97500 228.000
41.99000 222.000
42.00500 228.000
42.02000 227.000
42.03500 216.000
42.05000 212.000
42.06500 215.000
42.08000 202.000
42.09500 174.000
42.11000 184.000
42.12500 188.000
42.14000 164.000
42.15500 193.000
42.17000 178.000
42.18500 208.000
42.20000 226.000
42.21500 222.000
42.23000 238.000
42.24500 289.000
42.26000 313.000
42.27500 349.000
42.29000 388.000
42.30500 480.000
42.32000 489.000
42.33500 490.000
42.35000 449.000
42.36500 367.000
42.38000 320.000
42.39500 274.000
42.41000 259.000
42.42500 239.000
42.44000 227.000
42.45500 218.000
42.47000 221.000
42.48500 198.000
42.50000 189.000
42.51500 171.000
42.53000 202.000
42.54500 172.000
42.56000 187.000
42.57500 189.000
42.59000 182.000
42.60500 181.000
42.62000 154.000
42.63500 184.000
42.65000 183.000
42.66500 168.000
42.68000 178.000
42.69500 208.000
42.71000 176.000
42.72500 200.000
42.74000 196.000
42.75500 185.000
42.77000 173.000
42.78500 171.000
42.80000 152.000
42.81500 152.000
42.83000 155.000
42.84500 156.000
42.86000 169.000
42.87500 163.000
42.89000 162.000
42.90500 157.000
42.92000 172.000
42.93500 170.000
42.95000 171.000
42.96500 161.000
42.98000 170.000
42.99500 177.000
43.01000 154.000
43.02500 167.000
43.04000 181.000
43.05500 179.000
43.07000 183.000
43.08500 189.000
43.10000 175.000
43.11500 187.000
43.13000 181.000
43.14500 187.000
43.16000 191.000
43.17500 182.000
43.19000 179.000
43.20500 166.000
43.22000 179.000
43.23500 199.000
43.25000 178.000
43.26500 198.000
43.28000 190.000
43.29500 189.000
43.31000 182.000
43.32500 158.000
43.34000 183.000
43.35500 170.000
43.37000 163.000
43.38500 153.000
43.40000 171.000
43.41500 149.000
43.43000 165.000
43.44500 173.000
43.46000 185.000
43.47500 201.000
43.49000 180.000
43.50500 192.000
43.52000 216.000
43.53500 209.000
43.55000 241.000
43.56500 284.000
43.58000 301.000
43.59500 358.000
43.61000 389.000
43.62500 412.000
43.64000 476.000
43.65500 429.000
43.67000 385.000
43.68500 319.000
43.70000 285.000
43.71500 253.000
43.73000 232.000
43.74500 233.000
43.76000 212.000
43.77500 192.000
43.79000 152.000
43.80500 156.000
43.82000 186.000
43.83500 180.000
43.85000 173.000
43.86500 168.000
43.88000 145.000
43.89500 145.000
43.91000 146.000
43.92500 151.000
43.94000 171.000
43.95500 173.000
43.97000 160.000
43.98500 171.000
44.00000 132.000
44.01500 146.000
44.03000 153.000
44.04500 147.000
44.06000 171.000
44.07500 162.000
44.09000 169.000
44.10500 152.000
44.12000 150.000
44.13500 141.000
44.15000 154.000
44.16500 144.000
44.18000 160.000
44.19500 167.000
44.21000 155.000
44.22500 159.000
44.24000 168.000
44.25500 154.000
44.27000 164.000
44.28500 149.000
44.30000 152.000
44.31500 159.000
44.33000 153.000
44.34500 141.000
44.36000 136.000
44.37500 149.000
44.39000 150.000
44.40500 146.000
44.42000 163.000
44.43500 150.000
44.45000 146.000
44.46500 135.000
44.48000 135.000
44.49500 166.000
44.51000 165.000
44.52500 153.000
44.54000 154.000
44.55500 157.000
44.57000 149.000
44.58500 181.000
44.60000 168.000
44.61500 162.000
44.63000 158.000
44.64500 163.000
44.66000 187.000
44.67500 173.000
44.69000 175.000
44.70500 180.000
44.72000 182.000
44.73500 200.000
44.75000 217.000
44.76500 219.000
44.78000 254.000
44.79500 307.000
44.81000 327.000
44.82500 382.000
44.84000 403.000
44.85500 443.000
44.87000 438.000
44.88500 416.000
44.90000 397.000
44.91500 318.000
44.93000 287.000
44.94500 246.000
44.96000 227.000
44.97500 237.000
44.99000 223.000
45.00500 180.000
45.02000 198.000
45.03500 187.000
45.05000 166.000
45.06500 175.000
45.08000 170.000
45.09500 182.000
45.11000 181.000
45.12500 173.000
45.14000 151.000
45.15500 151.000
45.17000 153.000
45.18500 151.000
45.20000 173.000
45.21500 145.000
45.23000 151.000
45.24500 166.000
45.26000 168.000
45.27500 165.000
45.29000 168.000
45.30500 156.000
45.32000 162.000
45.33500 159.000
45.35000 174.000
45.36500 170.000
45.38000 169.000
45.39500 151.000
45.41000 164.000
45.42500 170.000
45.44000 201.000
45.45500 180.000
45.47000 199.000
45.48500 188.000
45.50000 188.000
45.51500 198.000
45.53000 186.000
45.54500 170.000
45.56000 171.000
45.57500 161.000
45.59000 153.000
45.60500 155.000
45.62000 157.000
45.63500 154.000
45.65000 162.000
45.66500 149.000
45.68000 144.000
45.69500 155.000
45.71000 143.000
45.72500 162.000
45.74000 158.000
45.75500 134.000
45.77000 138.000
45.78500 156.000
45.80000 163.000
45.81500 158.000
45.83000 144.000
45.84500 136.000
45.86000 159.000
45.87500 167.000
45.89000 159.000
45.90500 163.000
45.92000 148.000
45.93500 167.000
45.95000 166.000
45.96500 161.000
45.98000 171.000
45.99500 179.000
46.01000 178.000
46.02500 189.000
46.04000 222.000
46.05500 229.000
46.07000 234.000
46.08500 258.000
46.10000 268.000
46.11500 279.000
46.13000 314.000
46.14500 304.000
46.16000 330.000
46.17500 298.000
46.19000 275.000
46.20500 271.000
46.22000 242.000
46.23500 217.000
46.25000 192.000
46.26500 176.000
46.28000 184.000
46.29500 179.000
46.31000 167.000
46.32500 163.000
46.34000 138.000
46.35500 170.000
46.37000 160.000
46.38500 148.000
46.40000 168.000
46.41500 169.000
46.43000 162.000
46.44500 169.000
46.46000 146.000
46.47500 153.000
46.49000 146.000
46.50500 157.000
46.52000 152.000
46.53500 155.000
46.55000 160.000
46.56500 164.000
46.58000 155.000
46.59500 172.000
46.61000 163.000
46.62500 150.000
46.64000 137.000
46.65500 150.000
46.67000 148.000
46.68500 136.000
46.70000 157.000
46.71500 135.000
46.73000 138.000
46.74500 135.000
46.76000 128.000
46.77500 147.000
46.79000 142.000
46.80500 134.000
46.82000 137.000
46.83500 155.000
46.85000 145.000
46.86500 138.000
46.88000 153.000
46.89500 165.000
46.91000 169.000
46.92500 154.000
46.94000 153.000
46.95500 133.000
46.97000 132.000
46.98500 133.000
47.00000 123.000
47.01500 138.000
47.03000 139.000
47.04500 147.000
47.06000 146.000
47.07500 156.000
47.09000 144.000
47.10500 141.000
47.12000 152.000
47.13500 146.000
47.15000 131.000
47.16500 139.000
47.18000 146.000
47.19500 141.000
47.21000 142.000
47.22500 131.000
47.24000 129.000
47.25500 139.000
47.27000 148.000
47.28500 146.000
47.30000 129.000
47.31500 141.000
47.33000 137.000
47.34500 140.000
47.36000 135.000
47.37500 142.000
47.39000 154.000
47.40500 137.000
47.42000 126.000
47.43500 149.000
47.45000 144.000
47.46500 135.000
47.48000 136.000
47.49500 152.000
47.51000 132.000
47.52500 158.000
47.54000 153.000
47.55500 138.000
47.57000 143.000
47.58500 147.000
47.60000 139.000
47.61500 147.000
47.63000 167.000
47.64500 138.000
47.66000 155.000
47.67500 143.000
47.69000 157.000
47.70500 159.000
47.72000 181.000
47.73500 186.000
47.75000 163.000
47.76500 173.000
47.78000 215.000
47.79500 235.000
47.81000 237.000
47.82500 227.000
47.84000 233.000
47.85500 212.000
47.87000 210.000
47.88500 193.000
47.90000 197.000
47.91500 174.000
47.93000 152.000
47.94500 157.000
47.96000 175.000
47.97500 198.000
47.99000 202.000
48.00500 186.000
48.02000 187.000
48.03500 208.000
48.05000 214.000
48.06500 248.000
48.08000 241.000
48.09500 243.000
48.11000 267.000
48.12500 286.000
48.14000 280.000
48.15500 292.000
48.17000 291.000
48.18500 291.000
48.20000 257.000
48.21500 256.000
48.23000 232.000
48.24500 217.000
48.26000 212.000
48.27500 194.000
48.29000 189.000
48.30500 187.000
48.32000 180.000
48.33500 166.000
48.35000 154.000
48.36500 174.000
48.38000 141.000
48.39500 150.000
48.41000 134.000
48.42500 124.000
48.44000 127.000
48.45500 138.000
48.47000 162.000
48.48500 149.000
48.50000 125.000
48.51500 141.000
48.53000 139.000
48.54500 137.000
48.56000 132.000
48.57500 141.000
48.59000 163.000
48.60500 134.000
48.62000 127.000
48.63500 143.000
48.65000 132.000
48.66500 139.000
48.68000 142.000
48.69500 139.000
48.71000 149.000
48.72500 144.000
48.74000 157.000
48.75500 121.000
48.77000 137.000
48.78500 134.000
48.80000 135.000
48.81500 144.000
48.83000 121.000
48.84500 151.000
48.86000 135.000
48.87500 136.000
48.89000 152.000
48.90500 140.000
48.92000 131.000
48.93500 138.000
48.95000 159.000
48.96500 146.000
48.98000 125.000
48.99500 126.000
49.01000 119.000
49.02500 148.000
49.04000 170.000
49.05500 162.000
49.07000 148.000
49.08500 140.000
49.10000 151.000
49.11500 138.000
49.13000 141.000
49.14500 153.000
49.16000 133.000
49.17500 135.000
49.19000 149.000
49.20500 159.000
49.22000 156.000
49.23500 140.000
49.25000 152.000
49.26500 154.000
49.28000 146.000
49.29500 161.000
49.31000 159.000
49.32500 153.000
49.34000 173.000
49.35500 166.000
49.37000 139.000
49.38500 145.000
49.40000 162.000
49.41500 158.000
49.43000 138.000
49.44500 143.000
49.46000 138.000
49.47500 140.000
49.49000 145.000
49.50500 137.000
49.52000 136.000
49.53500 128.000
49.55000 133.000
49.56500 141.000
49.58000 149.000
49.59500 147.000
49.61000 138.000
49.62500 133.000
49.64000 117.000
49.65500 113.000
49.67000 125.000
49.68500 141.000
49.70000 151.000
49.71500 141.000
49.73000 126.000
49.74500 123.000
49.76000 145.000
49.77500 136.000
49.79000 120.000
49.80500 135.000
49.82000 149.000
49.83500 140.000
49.85000 122.000
49.86500 135.000
49.88000 134.000
49.89500 121.000
49.91000 137.000
49.92500 146.000
49.94000 142.000
49.95500 147.000
49.97000 125.000
49.98500 139.000
50.00000 129.000
50.01500 134.000
50.03000 134.000
50.04500 145.000
50.06000 139.000
50.07500 135.000
50.09000 141.000
50.10500 125.000
50.12000 145.000
50.13500 159.000
50.15000 167.000
50.16500 155.000
50.18000 167.000
50.19500 161.000
50.21000 188.000
50.22500 217.000
50.24000 213.000
50.25500 225.000
50.27000 194.000
50.28500 197.000
50.30000 177.000
50.31500 157.000
50.33000 166.000
50.34500 160.000
50.36000 150.000
50.37500 162.000
50.39000 129.000
50.40500 123.000
50.42000 149.000
50.43500 136.000
50.45000 115.000
50.46500 142.000
50.48000 138.000
50.49500 135.000
50.51000 126.000
50.52500 141.000
50.54000 133.000
50.55500 124.000
50.57000 133.000
50.58500 133.000
50.60000 142.000
50.61500 130.000
50.63000 137.000
50.64500 130.000
50.66000 124.000
50.67500 140.000
50.69000 142.000
50.70500 141.000
50.72000 144.000
50.73500 131.000
50.75000 145.000
50.76500 132.000
50.78000 130.000
50.79500 141.000
50.81000 146.000
50.82500 134.000
50.84000 134.000
50.85500 133.000
50.87000 132.000
50.88500 138.000
50.90000 132.000
50.91500 153.000
50.93000 165.000
50.94500 162.000
50.96000 170.000
50.97500 167.000
50.99000 154.000
51.00500 139.000
51.02000 165.000
51.03500 153.000
51.05000 167.000
51.06500 151.000
51.08000 175.000
51.09500 179.000
51.11000 207.000
51.12500 191.000
51.14000 165.000
51.15500 174.000
51.17000 179.000
51.18500 172.000
51.20000 165.000
51.21500 162.000
51.23000 163.000
51.24500 156.000
51.26000 158.000
51.27500 151.000
51.29000 143.000
51.30500 155.000
51.32000 160.000
51.33500 159.000
51.35000 168.000
51.36500 146.000
51.38000 145.000
51.39500 151.000
51.41000 155.000
51.42500 163.000
51.44000 153.000
51.45500 158.000
51.47000 152.000
51.48500 150.000
51.50000 160.000
51.51500 168.000
51.53000 162.000
51.54500 179.000
51.56000 168.000
51.57500 149.000
51.59000 159.000
51.60500 175.000
51.62000 172.000
51.63500 185.000
51.65000 191.000
51.66500 189.000
51.68000 201.000
51.69500 219.000
51.71000 209.000
51.72500 205.000
51.74000 203.000
51.75500 199.000
51.77000 231.000
51.78500 257.000
51.80000 218.000
51.81500 215.000
51.83000 233.000
51.84500 228.000
51.86000 222.000
51.87500 207.000
51.89000 187.000
51.90500 172.000
51.92000 182.000
51.93500 182.000
51.95000 171.000
51.96500 159.000
51.98000 151.000
51.99500 162.000
52.01000 149.000
52.02500 159.000
52.04000 163.000
52.05500 153.000
52.07000 168.000
52.08500 175.000
52.10000 190.000
52.11500 178.000
52.13000 145.000
52.14500 186.000
52.16000 198.000
52.17500 192.000
52.19000 201.000
52.20500 204.000
52.22000 240.000
52.23500 249.000
52.25000 258.000
52.26500 248.000
52.28000 225.000
52.29500 240.000
52.31000 227.000
52.32500 195.000
52.34000 217.000
52.35500 210.000
52.37000 171.000
52.38500 174.000
52.40000 167.000
52.41500 160.000
52.43000 172.000
52.44500 161.000
52.46000 160.000
52.47500 153.000
52.49000 156.000
52.50500 158.000
52.52000 147.000
52.53500 146.000
52.55000 164.000
52.56500 175.000
52.58000 158.000
52.59500 167.000
52.61000 168.000
52.62500 177.000
52.64000 161.000
52.65500 173.000
52.67000 200.000
52.68500 216.000
52.70000 238.000
52.71500 228.000
52.73000 243.000
52.74500 286.000
52.76000 309.000
52.77500 322.000
52.79000 344.000
52.80500 388.000
52.82000 395.000
52.83500 405.000
52.85000 387.000
52.86500 350.000
52.88000 315.000
52.89500 296.000
52.91000 272.000
52.92500 225.000
52.94000 211.000
52.95500 229.000
52.97000 212.000
52.98500 188.000
53.00000 208.000
53.01500 172.000
53.03000 168.000
53.04500 177.000
53.06000 174.000
53.07500 161.000
53.09000 183.000
53.10500 174.000
53.12000 167.000
53.13500 181.000
53.15000 191.000
53.16500 200.000
53.18000 204.000
53.19500 191.000
53.21000 187.000
53.22500 193.000
53.24000 217.000
53.25500 195.000
53.27000 178.000
53.28500 174.000
53.30000 178.000
53.31500 159.000
53.33000 143.000
53.34500 149.000
53.36000 162.000
53.37500 162.000
53.39000 168.000
53.40500 146.000
53.42000 154.000
53.43500 154.000
53.45000 144.000
53.46500 142.000
53.48000 144.000
53.49500 140.000
53.51000 142.000
53.52500 133.000
53.54000 145.000
53.55500 153.000
53.57000 145.000
53.58500 151.000
53.60000 130.000
53.61500 154.000
53.63000 145.000
53.64500 132.000
53.66000 123.000
53.67500 146.000
53.69000 154.000
53.70500 143.000
53.72000 140.000
53.73500 136.000
53.75000 158.000
53.76500 174.000
53.78000 168.000
53.79500 173.000
53.81000 161.000
53.82500 170.000
53.84000 160.000
53.85500 152.000
53.87000 141.000
53.88500 150.000
53.90000 159.000
53.91500 161.000
53.93000 149.000
53.94500 139.000
53.96000 135.000
53.97500 140.000
53.99000 136.000
54.00500 128.000
54.02000 126.000
54.03500 134.000
54.05000 126.000
54.06500 134.000
54.08000 132.000
54.09500 135.000
54.11000 141.000
54.12500 122.000
54.14000 134.000
54.15500 150.000
54.17000 129.000
54.18500 156.000
54.20000 135.000
54.21500 136.000
54.23000 129.000
54.24500 143.000
54.26000 147.000
54.27500 138.000
54.29000 131.000
54.30500 145.000
54.32000 125.000
54.33500 132.000
54.35000 122.000
54.36500 118.000
54.38000 130.000
54.39500 151.000
54.41000 137.000
54.42500 150.000
54.44000 125.000
54.45500 126.000
54.47000 138.000
54.48500 148.000
54.50000 158.000
54.51500 144.000
54.53000 147.000
54.54500 150.000
54.56000 146.000
54.57500 159.000
54.59000 143.000
54.60500 142.000
54.62000 145.000
54.63500 160.000
54.65000 156.000
54.66500 137.000
54.68000 163.000
54.69500 180.000
54.71000 151.000
54.72500 162.000
54.74000 154.000
54.75500 139.000
54.77000 157.000
54.78500 138.000
54.80000 137.000
54.81500 141.000
54.83000 137.000
54.84500 130.000
54.86000 143.000
54.87500 154.000
54.89000 149.000
54.90500 140.000
54.92000 154.000
54.93500 152.000
54.95000 173.000
54.96500 174.000
54.98000 169.000
54.99500 179.000
55.01000 217.000
55.02500 190.000
55.04000 213.000
55.05500 190.000
55.07000 211.000
55.08500 188.000
55.10000 167.000
55.11500 152.000
55.13000 148.000
55.14500 132.000
55.16000 138.000
55.17500 130.000
55.19000 139.000
55.20500 128.000
55.22000 129.000
55.23500 158.000
55.25000 142.000
55.26500 145.000
55.28000 129.000
55.29500 128.000
55.31000 132.000
55.32500 130.000
55.34000 126.000
55.35500 129.000
55.37000 136.000
55.38500 143.000
55.40000 159.000
55.41500 136.000
55.43000 123.000
55.44500 147.000
55.46000 149.000
55.47500 152.000
55.49000 164.000
55.50500 181.000
55.52000 182.000
55.53500 186.000
55.55000 170.000
55.56500 163.000
55.58000 146.000
55.59500 147.000
55.61000 163.000
55.62500 155.000
55.64000 154.000
55.65500 147.000
55.67000 142.000
55.68500 148.000
55.70000 138.000
55.71500 133.000
55.73000 129.000
55.74500 134.000
55.76000 133.000
55.77500 133.000
55.79000 135.000
55.80500 123.000
55.82000 134.000
55.83500 131.000
55.85000 143.000
55.86500 143.000
55.88000 136.000
55.89500 145.000
55.91000 143.000
55.92500 137.000
55.94000 152.000
55.95500 145.000
55.97000 160.000
55.98500 165.000
56.00000 153.000
56.01500 156.000
56.03000 158.000
56.04500 151.000
56.06000 159.000
56.07500 152.000
56.09000 150.000
56.10500 140.000
56.12000 136.000
56.13500 129.000
56.15000 149.000
56.16500 152.000
56.18000 139.000
56.19500 127.000
56.21000 131.000
56.22500 130.000
56.24000 163.000
56.25500 151.000
56.27000 155.000
56.28500 129.000
56.30000 125.000
56.31500 128.000
56.33000 113.000
56.34500 149.000
56.36000 139.000
56.37500 131.000
56.39000 140.000
56.40500 126.000
56.42000 125.000
56.43500 130.000
56.45000 146.000
56.46500 122.000
56.48000 125.000
56.49500 143.000
56.51000 132.000
56.52500 137.000
56.54000 138.000
56.55500 137.000
56.57000 143.000
56.58500 137.000
56.60000 137.000
56.61500 152.000
56.63000 150.000
56.64500 139.000
56.66000 143.000
56.67500 142.000
56.69000 137.000
56.70500 151.000
56.72000 119.000
56.73500 124.000
56.75000 124.000
56.76500 124.000
56.78000 128.000
56.79500 124.000
56.81000 134.000
56.82500 132.000
56.84000 129.000
56.85500 140.000
56.87000 140.000
56.88500 133.000
56.90000 142.000
56.91500 158.000
56.93000 149.000
56.94500 152.000
56.96000 157.000
56.97500 159.000
56.99000 171.000
57.00500 158.000
57.02000 142.000
57.03500 172.000
57.05000 172.000
57.06500 170.000
57.08000 191.000
57.09500 202.000
57.11000 220.000
57.12500 249.000
57.14000 271.000
57.15500 328.000
57.17000 341.000
57.18500 360.000
57.20000 352.000
57.21500 333.000
57.23000 322.000
57.24500 286.000
57.26000 232.000
57.27500 203.000
57.29000 180.000
57.30500 178.000
57.32000 164.000
57.33500 156.000
57.35000 144.000
57.36500 152.000
57.38000 149.000
57.39500 137.000
57.41000 113.000
57.42500 141.000
57.44000 126.000
57.45500 134.000
57.47000 136.000
57.48500 137.000
57.50000 148.000
57.51500 154.000
57.53000 136.000
57.54500 142.000
57.56000 136.000
57.57500 143.000
57.59000 126.000
57.60500 138.000
57.62000 133.000
57.63500 133.000
57.65000 133.000
57.66500 108.000
57.68000 128.000
57.69500 147.000
57.71000 142.000
57.72500 139.000
57.74000 136.000
57.75500 140.000
57.77000 134.000
57.78500 134.000
57.80000 136.000
57.81500 144.000
57.83000 128.000
57.84500 138.000
57.86000 137.000
57.87500 156.000
57.89000 154.000
57.90500 151.000
57.92000 153.000
57.93500 132.000
57.95000 128.000
57.96500 130.000
57.98000 120.000
57.99500 128.000
58.01000 143.000
58.02500 133.000
58.04000 154.000
58.05500 132.000
58.07000 130.000
58.08500 157.000
58.10000 184.000
58.11500 150.000
58.13000 147.000
58.14500 150.000
58.16000 139.000
58.17500 143.000
58.19000 162.000
58.20500 168.000
58.22000 150.000
58.23500 162.000
58.25000 165.000
58.26500 168.000
58.28000 161.000
58.29500 168.000
58.31000 166.000
58.32500 156.000
58.34000 150.000
58.35500 162.000
58.37000 165.000
58.38500 157.000
58.40000 139.000
58.41500 135.000
58.43000 119.000
58.44500 119.000
58.46000 128.000
58.47500 126.000
58.49000 132.000
58.50500 125.000
58.52000 110.000
58.53500 129.000
58.55000 127.000
58.56500 132.000
58.58000 126.000
58.59500 116.000
58.61000 119.000
58.62500 129.000
58.64000 131.000
58.65500 147.000
58.67000 146.000
58.68500 131.000
58.70000 143.000
58.71500 139.000
58.73000 133.000
58.74500 139.000
58.76000 153.000
58.77500 132.000
58.79000 162.000
58.80500 157.000
58.82000 167.000
58.83500 160.000
58.85000 153.000
58.86500 153.000
58.88000 176.000
58.89500 150.000
58.91000 150.000
58.92500 148.000
58.94000 143.000
58.95500 143.000
58.97000 170.000
58.98500 159.000
59.00000 128.000
59.01500 134.000
59.03000 130.000
59.04500 128.000
59.06000 144.000
59.07500 121.000
59.09000 142.000
59.10500 120.000
59.12000 122.000
59.13500 126.000
59.15000 132.000
59.16500 131.000
59.18000 132.000
59.19500 144.000
59.21000 133.000
59.22500 123.000
59.24000 128.000
59.25500 125.000
59.27000 111.000
59.28500 110.000
59.30000 120.000
59.31500 142.000
59.33000 140.000
59.34500 125.000
59.36000 119.000
59.37500 127.000
59.39000 128.000
59.40500 129.000
59.42000 129.000
59.43500 132.000
59.45000 117.000
59.46500 117.000
59.48000 134.000
59.49500 127.000
59.51000 139.000
59.52500 133.000
59.54000 134.000
59.55500 127.000
59.57000 122.000
59.58500 134.000
59.60000 131.000
59.61500 130.000
59.63000 130.000
59.64500 128.000
59.66000 113.000
59.67500 113.000
59.69000 127.000
59.70500 127.000
59.72000 114.000
59.73500 105.000
59.75000 114.000
59.76500 116.000
59.78000 129.000
59.79500 134.000
59.81000 129.000
59.82500 136.000
59.84000 133.000
59.85500 137.000
59.87000 119.000
59.88500 127.000
59.90000 117.000
59.91500 123.000
59.93000 127.000
59.94500 129.000
59.96000 119.000
59.97500 123.000
59.99000 129.000
60.00500 141.000
60.02000 141.000
60.03500 132.000
60.05000 126.000
60.06500 122.000
60.08000 119.000
60.09500 102.000
60.11000 130.000
60.12500 124.000
60.14000 112.000
60.15500 130.000
60.17000 115.000
60.18500 129.000
60.20000 143.000
60.21500 121.000
60.23000 118.000
60.24500 126.000
60.26000 96.000
60.27500 114.000
60.29000 120.000
60.30500 119.000
60.32000 116.000
60.33500 118.000
60.35000 121.000
60.36500 111.000
60.38000 118.000
60.39500 127.000
60.41000 120.000
60.42500 124.000
60.44000 131.000
60.45500 124.000
60.47000 124.000
60.48500 126.000
60.50000 103.000
60.51500 114.000
60.53000 106.000
60.54500 114.000
60.56000 121.000
60.57500 107.000
60.59000 112.000
60.60500 113.000
60.62000 107.000
60.63500 121.000
60.65000 112.000
60.66500 120.000
60.68000 127.000
60.69500 112.000
60.71000 102.000
60.72500 112.000
60.74000 119.000
60.75500 129.000
60.77000 126.000
60.78500 117.000
60.80000 133.000
60.81500 116.000
60.83000 124.000
60.84500 129.000
60.86000 129.000
60.87500 127.000
60.89000 135.000
60.90500 128.000
60.92000 129.000
60.93500 131.000
60.95000 113.000
60.96500 115.000
60.98000 120.000
60.99500 110.000
61.01000 112.000
61.02500 116.000
61.04000 127.000
61.05500 101.000
61.07000 108.000
61.08500 109.000
61.10000 113.000
61.11500 120.000
61.13000 130.000
61.14500 119.000
61.16000 119.000
61.17500 122.000
61.19000 118.000
61.20500 110.000
61.22000 124.000
61.23500 121.000
61.25000 128.000
61.26500 128.000
61.28000 132.000
61.29500 135.000
61.31000 126.000
61.32500 127.000
61.34000 144.000
61.35500 151.000
61.37000 137.000
61.38500 118.000
61.40000 132.000
61.41500 124.000
61.43000 125.000
61.44500 128.000
61.46000 127.000
61.47500 128.000
61.49000 141.000
61.50500 135.000
61.52000 126.000
61.53500 110.000
61.55000 116.000
61.56500 126.000
61.58000 135.000
61.59500 119.000
61.61000 127.000
61.62500 128.000
61.64000 123.000
61.65500 96.000
61.67000 128.000
61.68500 129.000
61.70000 128.000
61.71500 118.000
61.73000 115.000
61.74500 129.000
61.76000 134.000
61.77500 112.000
61.79000 120.000
61.80500 139.000
61.82000 131.000
61.83500 113.000
61.85000 129.000
61.86500 135.000
61.88000 137.000
61.89500 120.000
61.91000 117.000
61.92500 124.000
61.94000 124.000
61.95500 143.000
61.97000 127.000
61.98500 128.000
