2.0 9.0
2.015 10.0
2.03 10.0
2.045 9.0
2.06 5.0
2.075 9.0
2.09 11.0
2.105 7.0
2.12 9.0
2.135 7.0
2.15 9.0
2.165 5.0
2.18 8.0
2.195 6.0
2.21 5.0
2.225 16.0
2.24 10.0
2.255 9.0
2.27 8.0
2.285 6.0
2.3 7.0
2.315 10.0
2.33 5.0
2.345 6.0
2.36 6.0
2.375 10.0
2.39 10.0
2.405 7.0
2.42 6.0
2.435 6.0
2.45 9.0
2.465 4.0
2.48 10.0
2.495 9.0
2.51 6.0
2.525 6.0
2.54 7.0
2.555 7.0
2.57 4.0
2.585 5.0
2.6 7.0
2.615 8.0
2.63 8.0
2.645 4.0
2.66 5.0
2.675 7.0
2.69 7.0
2.705 8.0
2.72 5.0
2.735 8.0
2.75 8.0
2.765 13.0
2.78 5.0
2.795 5.0
2.81 8.0
2.825 7.0
2.84 6.0
2.855 10.0
2.87 10.0
2.885 8.0
2.9 10.0
2.915 10.0
2.93 6.0
2.945 8.0
2.96 4.0
2.975 5.0
2.99 8.0
3.005 6.0
3.02 6.0
3.035 5.0
3.05 6.0
3.065 5.0
3.08 5.0
3.095 7.0
3.11 14.0
3.125 17.0
3.14 25.0
3.155 30.0
3.17 44.0
3.185 72.0
3.2 81.0
3.215 141.0
3.23 186.0
3.245 254.0
3.26 280.0
3.275 379.0
3.29 411.0
3.305 460.0
3.32 496.0
3.335 550.0
3.35 530.0
3.365 535.0
3.38 523.0
3.395 556.0
3.41 553.0
3.425 553.0
3.44 526.0
3.455 529.0
3.47 518.0
3.485 532.0
3.5 551.0
3.515 563.0
3.53 506.0
3.545 565.0
3.56 516.0
3.575 516.0
3.59 492.0
3.605 530.0
3.62 517.0
3.635 526.0
3.65 490.0
3.665 529.0
3.68 602.0
3.695 524.0
3.71 562.0
3.725 535.0
3.74 540.0
3.755 582.0
3.77 526.0
3.785 476.0
3.8 513.0
3.815 490.0
3.83 490.0
3.845 503.0
3.86 531.0
3.875 548.0
3.89 540.0
3.905 520.0
3.92 505.0
3.935 497.0
3.95 508.0
3.965 538.0
3.98 536.0
3.995 561.0
4.01 556.0
4.025 542.0
4.04 532.0
4.055 530.0
4.07 527.0
4.085 546.0
4.1 550.0
4.115 498.0
4.13 497.0
4.145 535.0
4.16 535.0
4.175 502.0
4.19 520.0
4.205 560.0
4.22 549.0
4.235 514.0
4.25 521.0
4.265 544.0
4.28 525.0
4.295 508.0
4.31 556.0
4.325 558.0
4.34 513.0
4.355 549.0
4.37 571.0
4.385 524.0
4.4 541.0
4.415 515.0
4.43 539.0
4.445 564.0
4.46 557.0
4.475 557.0
4.49 591.0
4.505 545.0
4.52 537.0
4.535 550.0
4.55 524.0
4.565 541.0
4.58 560.0
4.595 554.0
4.61 560.0
4.625 534.0
4.64 558.0
4.655 576.0
4.67 529.0
4.685 554.0
4.7 558.0
4.715 559.0
4.73 569.0
4.745 559.0
4.76 533.0
4.775 564.0
4.79 572.0
4.805 553.0
4.82 558.0
4.835 576.0
4.85 566.0
4.865 562.0
4.88 545.0
4.895 565.0
4.91 542.0
4.925 548.0
4.94 567.0
4.955 593.0
4.97 579.0
4.985 593.0
5.0 553.0
5.015 582.0
5.03 576.0
5.045 557.0
5.06 588.0
5.075 578.0
5.09 593.0
5.105 584.0
5.12 607.0
5.135 583.0
5.15 604.0
5.165 579.0
5.18 584.0
5.195 582.0
5.21 610.0
5.225 599.0
5.24 594.0
5.255 571.0
5.27 596.0
5.285 635.0
5.3 600.0
5.315 619.0
5.33 622.0
5.345 595.0
5.36 613.0
5.375 613.0
5.39 604.0
5.405 606.0
5.42 604.0
5.435 618.0
5.45 632.0
5.465 629.0
5.48 611.0
5.495 609.0
5.51 602.0
5.525 631.0
5.54 613.0
5.555 608.0
5.57 616.0
5.585 638.0
5.6 631.0
5.615 615.0
5.63 603.0
5.645 590.0
5.66 618.0
5.675 618.0
5.69 634.0
5.705 633.0
5.72 643.0
5.735 618.0
5.75 605.0
5.765 626.0
5.78 601.0
5.795 629.0
5.81 600.0
5.825 603.0
5.84 651.0
5.855 644.0
5.87 664.0
5.885 659.0
5.9 631.0
5.915 628.0
5.93 626.0
5.945 626.0
5.96 631.0
5.975 637.0
5.99 679.0
6.005 628.0
6.02 633.0
6.035 661.0
6.05 616.0
6.065 624.0
6.08 621.0
6.095 647.0
6.11 669.0
6.125 640.0
6.14 630.0
6.155 642.0
6.17 656.0
6.185 662.0
6.2 653.0
6.215 676.0
6.23 668.0
6.245 621.0
6.26 655.0
6.275 632.0
6.29 597.0
6.305 663.0
6.32 647.0
6.335 656.0
6.35 639.0
6.365 662.0
6.38 680.0
6.395 625.0
6.41 636.0
6.425 653.0
6.44 715.0
6.455 663.0
6.47 653.0
6.485 635.0
6.5 669.0
6.515 665.0
6.53 629.0
6.545 662.0
6.56 668.0
6.575 644.0
6.59 683.0
6.605 693.0
6.62 705.0
6.635 672.0
6.65 703.0
6.665 720.0
6.68 679.0
6.695 673.0
6.71 646.0
6.725 716.0
6.74 677.0
6.755 636.0
6.77 652.0
6.785 685.0
6.8 742.0
6.815 721.0
6.83 678.0
6.845 692.0
6.86 695.0
6.875 702.0
6.89 671.0
6.905 689.0
6.92 714.0
6.935 704.0
6.95 697.0
6.965 680.0
6.98 644.0
6.995 670.0
7.01 670.0
7.025 689.0
7.04 714.0
7.055 695.0
7.07 724.0
7.085 718.0
7.1 692.0
7.115 709.0
7.13 707.0
7.145 696.0
7.16 732.0
7.175 679.0
7.19 686.0
7.205 664.0
7.22 724.0
7.235 719.0
7.25 702.0
7.265 734.0
7.28 695.0
7.295 691.0
7.31 696.0
7.325 714.0
7.34 716.0
7.355 719.0
7.37 752.0
7.385 731.0
7.4 696.0
7.415 711.0
7.43 685.0
7.445 701.0
7.46 705.0
7.475 682.0
7.49 729.0
7.505 708.0
7.52 689.0
7.535 680.0
7.55 723.0
7.565 695.0
7.58 743.0
7.595 713.0
7.61 761.0
7.625 697.0
7.64 696.0
7.655 718.0
7.67 703.0
7.685 690.0
7.7 737.0
7.715 711.0
7.73 715.0
7.745 680.0
7.76 711.0
7.775 715.0
7.79 714.0
7.805 720.0
7.82 715.0
7.835 717.0
7.85 727.0
7.865 685.0
7.88 709.0
7.895 707.0
7.91 712.0
7.925 716.0
7.94 756.0
7.955 709.0
7.97 728.0
7.985 708.0
8.0 727.0
8.015 725.0
8.03 699.0
8.045 715.0
8.06 727.0
8.075 717.0
8.09 739.0
8.105 708.0
8.12 715.0
8.135 730.0
8.15 740.0
8.165 724.0
8.18 732.0
8.195 762.0
8.21 688.0
8.225 771.0
8.24 728.0
8.255 769.0
8.27 777.0
8.285 708.0
8.3 753.0
8.315 749.0
8.33 717.0
8.345 715.0
8.36 748.0
8.375 734.0
8.39 766.0
8.405 749.0
8.42 760.0
8.435 726.0
8.45 721.0
8.465 724.0
8.48 721.0
8.495 761.0
8.51 729.0
8.525 716.0
8.54 721.0
8.555 726.0
8.57 730.0
8.585 788.0
8.6 758.0
8.615 710.0
8.63 747.0
8.645 725.0
8.66 697.0
8.675 742.0
8.69 756.0
8.705 769.0
8.72 761.0
8.735 736.0
8.75 737.0
8.765 772.0
8.78 744.0
8.795 778.0
8.81 738.0
8.825 723.0
8.84 744.0
8.855 726.0
8.87 734.0
8.885 755.0
8.9 738.0
8.915 769.0
8.93 764.0
8.945 733.0
8.96 750.0
8.975 786.0
8.99 725.0
9.005 769.0
9.02 738.0
9.035 722.0
9.05 719.0
9.065 706.0
9.08 723.0
9.095 779.0
9.11 754.0
9.125 730.0
9.14 717.0
9.155 751.0
9.17 730.0
9.185 737.0
9.2 750.0
9.215 727.0
9.23 759.0
9.245 750.0
9.26 704.0
9.275 758.0
9.29 747.0
9.305 746.0
9.32 761.0
9.335 733.0
9.35 714.0
9.365 732.0
9.38 752.0
9.395 728.0
9.41 754.0
9.425 750.0
9.44 725.0
9.455 720.0
9.47 750.0
9.485 739.0
9.5 739.0
9.515 746.0
9.53 749.0
9.545 763.0
9.56 750.0
9.575 735.0
9.59 763.0
9.605 734.0
9.62 742.0
9.635 750.0
9.65 764.0
9.665 781.0
9.68 778.0
9.695 770.0
9.71 809.0
9.725 765.0
9.74 752.0
9.755 748.0
9.77 755.0
9.785 776.0
9.8 755.0
9.815 746.0
9.83 739.0
9.845 728.0
9.86 729.0
9.875 725.0
9.89 758.0
9.905 782.0
9.92 755.0
9.935 762.0
9.95 775.0
9.965 715.0
9.98 744.0
9.995 750.0
10.01 766.0
10.025 749.0
10.04 762.0
10.055 756.0
10.07 730.0
10.085 780.0
10.1 748.0
10.115 768.0
10.13 730.0
10.145 737.0
10.16 757.0
10.175 761.0
10.19 787.0
10.205 775.0
10.22 792.0
10.235 743.0
10.25 754.0
10.265 739.0
10.28 718.0
10.295 751.0
10.31 725.0
10.325 761.0
10.34 785.0
10.355 773.0
10.37 764.0
10.385 750.0
10.4 766.0
10.415 764.0
10.43 762.0
10.445 735.0
10.46 747.0
10.475 731.0
10.49 752.0
10.505 761.0
10.52 769.0
10.535 756.0
10.55 772.0
10.565 790.0
10.58 750.0
10.595 783.0
10.61 783.0
10.625 768.0
10.64 742.0
10.655 755.0
10.67 754.0
10.685 739.0
10.7 774.0
10.715 791.0
10.73 757.0
10.745 761.0
10.76 769.0
10.775 787.0
10.79 756.0
10.805 752.0
10.82 783.0
10.835 775.0
10.85 772.0
10.865 760.0
10.88 769.0
10.895 777.0
10.91 772.0
10.925 763.0
10.94 777.0
10.955 759.0
10.97 779.0
10.985 821.0
11.0 753.0
11.015 796.0
11.03 759.0
11.045 788.0
11.06 795.0
11.075 767.0
11.09 738.0
11.105 714.0
11.12 748.0
11.135 730.0
11.15 755.0
11.165 790.0
11.18 779.0
11.195 776.0
11.21 800.0
11.225 806.0
11.24 763.0
11.255 752.0
11.27 806.0
11.285 768.0
11.3 747.0
11.315 765.0
11.33 756.0
11.345 769.0
11.36 755.0
11.375 763.0
11.39 744.0
11.405 753.0
11.42 749.0
11.435 751.0
11.45 753.0
11.465 753.0
11.48 761.0
11.495 785.0
11.51 751.0
11.525 786.0
11.54 763.0
11.555 780.0
11.57 809.0
11.585 761.0
11.6 789.0
11.615 786.0
11.63 782.0
11.645 764.0
11.66 757.0
11.675 788.0
11.69 762.0
11.705 793.0
11.72 769.0
11.735 774.0
11.75 765.0
11.765 759.0
11.78 761.0
11.795 805.0
11.81 804.0
11.825 769.0
11.84 788.0
11.855 766.0
11.87 780.0
11.885 766.0
11.9 738.0
11.915 754.0
11.93 776.0
11.945 797.0
11.96 776.0
11.975 826.0
11.99 791.0
12.005 745.0
12.02 749.0
12.035 788.0
12.05 795.0
12.065 751.0
12.08 738.0
12.095 796.0
12.11 804.0
12.125 790.0
12.14 790.0
12.155 780.0
12.17 791.0
12.185 773.0
12.2 767.0
12.215 768.0
12.23 782.0
12.245 763.0
12.26 807.0
12.275 797.0
12.29 815.0
12.305 781.0
12.32 755.0
12.335 760.0
12.35 748.0
12.365 772.0
12.38 781.0
12.395 770.0
12.41 754.0
12.425 767.0
12.44 800.0
12.455 772.0
12.47 783.0
12.485 784.0
12.5 780.0
12.515 766.0
12.53 753.0
12.545 758.0
12.56 776.0
12.575 818.0
12.59 832.0
12.605 790.0
12.62 763.0
12.635 789.0
12.65 788.0
12.665 762.0
12.68 782.0
12.695 813.0
12.71 769.0
12.725 818.0
12.74 807.0
12.755 820.0
12.77 785.0
12.785 787.0
12.8 793.0
12.815 817.0
12.83 830.0
12.845 796.0
12.86 803.0
12.875 791.0
12.89 815.0
12.905 831.0
12.92 809.0
12.935 788.0
12.95 795.0
12.965 835.0
12.98 812.0
12.995 845.0
13.01 834.0
13.025 809.0
13.04 786.0
13.055 795.0
13.07 786.0
13.085 784.0
13.1 804.0
13.115 792.0
13.13 745.0
13.145 781.0
13.16 757.0
13.175 820.0
13.19 795.0
13.205 772.0
13.22 779.0
13.235 796.0
13.25 747.0
13.265 758.0
13.28 766.0
13.295 752.0
13.31 779.0
13.325 801.0
13.34 806.0
13.355 780.0
13.37 785.0
13.385 810.0
13.4 801.0
13.415 808.0
13.43 828.0
13.445 778.0
13.46 775.0
13.475 802.0
13.49 810.0
13.505 825.0
13.52 795.0
13.535 779.0
13.55 766.0
13.565 810.0
13.58 792.0
13.595 773.0
13.61 790.0
13.625 801.0
13.64 788.0
13.655 809.0
13.67 790.0
13.685 805.0
13.7 783.0
13.715 787.0
13.73 839.0
13.745 818.0
13.76 787.0
13.775 766.0
13.79 797.0
13.805 787.0
13.82 770.0
13.835 766.0
13.85 791.0
13.865 768.0
13.88 795.0
13.895 838.0
13.91 783.0
13.925 778.0
13.94 805.0
13.955 774.0
13.97 754.0
13.985 759.0
14.0 797.0
14.015 825.0
14.03 800.0
14.045 834.0
14.06 816.0
14.075 803.0
14.09 836.0
14.105 828.0
14.12 798.0
14.135 813.0
14.15 804.0
14.165 820.0
14.18 782.0
14.195 797.0
14.21 834.0
14.225 847.0
14.24 833.0
14.255 773.0
14.27 805.0
14.285 800.0
14.3 821.0
14.315 756.0
14.33 820.0
14.345 797.0
14.36 802.0
14.375 748.0
14.39 766.0
14.405 801.0
14.42 797.0
14.435 797.0
14.45 748.0
14.465 769.0
14.48 801.0
14.495 813.0
14.51 796.0
14.525 805.0
14.54 798.0
14.555 833.0
14.57 808.0
14.585 821.0
14.6 750.0
14.615 762.0
14.63 795.0
14.645 775.0
14.66 791.0
14.675 776.0
14.69 792.0
14.705 807.0
14.72 764.0
14.735 802.0
14.75 822.0
14.765 767.0
14.78 794.0
14.795 792.0
14.81 749.0
14.825 764.0
14.84 821.0
14.855 844.0
14.87 842.0
14.885 838.0
14.9 826.0
14.915 779.0
14.93 796.0
14.945 818.0
14.96 800.0
14.975 756.0
14.99 805.0
15.005 831.0
15.02 805.0
15.035 809.0
15.05 778.0
15.065 812.0
15.08 752.0
15.095 753.0
15.11 784.0
15.125 802.0
15.14 766.0
15.155 787.0
15.17 779.0
15.185 787.0
15.2 810.0
15.215 820.0
15.23 769.0
15.245 763.0
15.26 815.0
15.275 801.0
15.29 759.0
15.305 778.0
15.32 804.0
15.335 826.0
15.35 814.0
15.365 832.0
15.38 801.0
15.395 783.0
15.41 819.0
15.425 773.0
15.44 796.0
15.455 756.0
15.47 780.0
15.485 800.0
15.5 793.0
15.515 744.0
15.53 789.0
15.545 781.0
15.56 800.0
15.575 789.0
15.59 819.0
15.605 799.0
15.62 744.0
15.635 759.0
15.65 784.0
15.665 791.0
15.68 807.0
15.695 796.0
15.71 815.0
15.725 857.0
15.74 814.0
15.755 783.0
15.77 786.0
15.785 772.0
15.8 773.0
15.815 793.0
15.83 769.0
15.845 819.0
15.86 797.0
15.875 784.0
15.89 811.0
15.905 755.0
15.92 762.0
15.935 810.0
15.95 797.0
15.965 760.0
15.98 771.0
15.995 821.0
16.01 785.0
16.025 822.0
16.04 739.0
16.055 795.0
16.07 795.0
16.085 800.0
16.1 762.0
16.115 780.0
16.13 778.0
16.145 773.0
16.16 771.0
16.175 785.0
16.19 800.0
16.205 765.0
16.22 808.0
16.235 763.0
16.25 797.0
16.265 783.0
16.28 804.0
16.295 810.0
16.31 749.0
16.325 773.0
16.34 797.0
16.355 814.0
16.37 782.0
16.385 778.0
16.4 826.0
16.415 783.0
16.43 802.0
16.445 816.0
16.46 792.0
16.475 821.0
16.49 768.0
16.505 824.0
16.52 852.0
16.535 813.0
16.55 777.0
16.565 770.0
16.58 812.0
16.595 777.0
16.61 810.0
16.625 811.0
16.64 760.0
16.655 745.0
16.67 784.0
16.685 752.0
16.7 762.0
16.715 774.0
16.73 791.0
16.745 786.0
16.76 826.0
16.775 793.0
16.79 764.0
16.805 813.0
16.82 791.0
16.835 819.0
16.85 807.0
16.865 805.0
16.88 769.0
16.895 777.0
16.91 769.0
16.925 777.0
16.94 831.0
16.955 796.0
16.97 799.0
16.985 792.0
17.0 784.0
17.015 773.0
17.03 786.0
17.045 783.0
17.06 790.0
17.075 828.0
17.09 808.0
17.105 772.0
17.12 786.0
17.135 809.0
17.15 797.0
17.165 809.0
17.18 786.0
17.195 799.0
17.21 765.0
17.225 797.0
17.24 788.0
17.255 768.0
17.27 819.0
17.285 850.0
17.3 806.0
17.315 822.0
17.33 782.0
17.345 786.0
17.36 815.0
17.375 783.0
17.39 806.0
17.405 804.0
17.42 810.0
17.435 821.0
17.45 820.0
17.465 785.0
17.48 811.0
17.495 828.0
17.51 835.0
17.525 821.0
17.54 808.0
17.555 778.0
17.57 813.0
17.585 825.0
17.6 803.0
17.615 847.0
17.63 805.0
17.645 848.0
17.66 832.0
17.675 823.0
17.69 808.0
17.705 791.0
17.72 810.0
17.735 821.0
17.75 815.0
17.765 793.0
17.78 808.0
17.795 825.0
17.81 793.0
17.825 835.0
17.84 816.0
17.855 767.0
17.87 808.0
17.885 822.0
17.9 847.0
17.915 834.0
17.93 812.0
17.945 821.0
17.96 787.0
17.975 794.0
17.99 822.0
18.005 812.0
18.02 775.0
18.035 818.0
18.05 814.0
18.065 834.0
18.08 815.0
18.095 802.0
18.11 799.0
18.125 770.0
18.14 781.0
18.155 789.0
18.17 812.0
18.185 796.0
18.2 776.0
18.215 807.0
18.23 812.0
18.245 799.0
18.26 826.0
18.275 801.0
18.29 817.0
18.305 806.0
18.32 799.0
18.335 814.0
18.35 812.0
18.365 807.0
18.38 819.0
18.395 795.0
18.41 787.0
18.425 793.0
18.44 758.0
18.455 767.0
18.47 790.0
18.485 799.0
18.5 819.0
18.515 804.0
18.53 750.0
18.545 834.0
18.56 821.0
18.575 832.0
18.59 875.0
18.605 826.0
18.62 808.0
18.635 822.0
18.65 838.0
18.665 797.0
18.68 813.0
18.695 811.0
18.71 759.0
18.725 826.0
18.74 854.0
18.755 814.0
18.77 823.0
18.785 835.0
18.8 798.0
18.815 811.0
18.83 833.0
18.845 831.0
18.86 761.0
18.875 790.0
18.89 798.0
18.905 810.0
18.92 811.0
18.935 812.0
18.95 796.0
18.965 806.0
18.98 833.0
18.995 846.0
19.01 856.0
19.025 831.0
19.04 803.0
19.055 805.0
19.07 859.0
19.085 834.0
19.1 819.0
19.115 819.0
19.13 822.0
19.145 857.0
19.16 832.0
19.175 790.0
19.19 843.0
19.205 822.0
19.22 838.0
19.235 845.0
19.25 820.0
19.265 798.0
19.28 831.0
19.295 827.0
19.31 847.0
19.325 791.0
19.34 856.0
19.355 838.0
19.37 812.0
19.385 794.0
19.4 815.0
19.415 805.0
19.43 848.0
19.445 810.0
19.46 817.0
19.475 841.0
19.49 799.0
19.505 821.0
19.52 841.0
19.535 859.0
19.55 801.0
19.565 802.0
19.58 833.0
19.595 835.0
19.61 831.0
19.625 804.0
19.64 815.0
19.655 846.0
19.67 827.0
19.685 801.0
19.7 839.0
19.715 857.0
19.73 820.0
19.745 804.0
19.76 838.0
19.775 842.0
19.79 817.0
19.805 797.0
19.82 794.0
19.835 833.0
19.85 806.0
19.865 818.0
19.88 826.0
19.895 827.0
19.91 823.0
19.925 832.0
19.94 817.0
19.955 812.0
19.97 836.0
19.985 821.0
20.0 780.0
20.015 828.0
20.03 774.0
20.045 786.0
20.06 843.0
20.075 844.0
20.09 820.0
20.105 802.0
20.12 796.0
20.135 817.0
20.15 839.0
20.165 845.0
20.18 857.0
20.195 858.0
20.21 819.0
20.225 821.0
20.24 871.0
20.255 817.0
20.27 815.0
20.285 834.0
20.3 833.0
20.315 844.0
20.33 782.0
20.345 826.0
20.36 832.0
20.375 840.0
20.39 882.0
20.405 811.0
20.42 793.0
20.435 823.0
20.45 775.0
20.465 824.0
20.48 839.0
20.495 850.0
20.51 809.0
20.525 823.0
20.54 798.0
20.555 836.0
20.57 817.0
20.585 837.0
20.6 875.0
20.615 851.0
20.63 819.0
20.645 806.0
20.66 818.0
20.675 858.0
20.69 874.0
20.705 818.0
20.72 812.0
20.735 832.0
20.75 817.0
20.765 815.0
20.78 805.0
20.795 861.0
20.81 920.0
20.825 864.0
20.84 841.0
20.855 844.0
20.87 804.0
20.885 810.0
20.9 823.0
20.915 790.0
20.93 856.0
20.945 835.0
20.96 866.0
20.975 876.0
20.99 885.0
21.005 876.0
21.02 888.0
21.035 873.0
21.05 816.0
21.065 828.0
21.08 852.0
21.095 789.0
21.11 831.0
21.125 829.0
21.14 804.0
21.155 843.0
21.17 830.0
21.185 831.0
21.2 820.0
21.215 850.0
21.23 809.0
21.245 803.0
21.26 906.0
21.275 848.0
21.29 849.0
21.305 831.0
21.32 834.0
21.335 849.0
21.35 837.0
21.365 841.0
21.38 815.0
21.395 843.0
21.41 815.0
21.425 806.0
21.44 831.0
21.455 819.0
21.47 857.0
21.485 838.0
21.5 900.0
21.515 811.0
21.53 845.0
21.545 832.0
21.56 819.0
21.575 832.0
21.59 830.0
21.605 780.0
21.62 816.0
21.635 878.0
21.65 857.0
21.665 871.0
21.68 879.0
21.695 857.0
21.71 860.0
21.725 890.0
21.74 878.0
21.755 851.0
21.77 845.0
21.785 913.0
21.8 888.0
21.815 857.0
21.83 817.0
21.845 805.0
21.86 834.0
21.875 837.0
21.89 835.0
21.905 814.0
21.92 864.0
21.935 831.0
21.95 820.0
21.965 812.0
21.98 831.0
21.995 832.0
22.01 853.0
22.025 869.0
22.04 858.0
22.055 821.0
22.07 867.0
22.085 867.0
22.1 853.0
22.115 852.0
22.13 853.0
22.145 840.0
22.16 850.0
22.175 876.0
22.19 875.0
22.205 837.0
22.22 819.0
22.235 814.0
22.25 814.0
22.265 855.0
22.28 826.0
22.295 821.0
22.31 840.0
22.325 843.0
22.34 807.0
22.355 835.0
22.37 814.0
22.385 829.0
22.4 819.0
22.415 816.0
22.43 828.0
22.445 849.0
22.46 866.0
22.475 861.0
22.49 835.0
22.505 846.0
22.52 856.0
22.535 789.0
22.55 838.0
22.565 824.0
22.58 847.0
22.595 822.0
22.61 832.0
22.625 862.0
22.64 837.0
22.655 851.0
22.67 835.0
22.685 831.0
22.7 839.0
22.715 813.0
22.73 813.0
22.745 820.0
22.76 835.0
22.775 854.0
22.79 855.0
22.805 853.0
22.82 830.0
22.835 829.0
22.85 838.0
22.865 796.0
22.88 834.0
22.895 897.0
22.91 839.0
22.925 858.0
22.94 887.0
22.955 800.0
22.97 848.0
22.985 831.0
23.0 831.0
23.015 867.0
23.03 835.0
23.045 854.0
23.06 849.0
23.075 881.0
23.09 846.0
23.105 844.0
23.12 877.0
23.135 850.0
23.15 865.0
23.165 839.0
23.18 862.0
23.195 817.0
23.21 813.0
23.225 864.0
23.24 842.0
23.255 812.0
23.27 839.0
23.285 852.0
23.3 866.0
23.315 872.0
23.33 888.0
23.345 860.0
23.36 830.0
23.375 861.0
23.39 819.0
23.405 834.0
23.42 837.0
23.435 852.0
23.45 793.0
23.465 825.0
23.48 852.0
23.495 844.0
23.51 863.0
23.525 856.0
23.54 858.0
23.555 792.0
23.57 822.0
23.585 832.0
23.6 805.0
23.615 811.0
23.63 839.0
23.645 809.0
23.66 843.0
23.675 815.0
23.69 838.0
23.705 877.0
23.72 842.0
23.735 840.0
23.75 823.0
23.765 865.0
23.78 824.0
23.795 829.0
23.81 831.0
23.825 825.0
23.84 767.0
23.855 818.0
23.87 837.0
23.885 824.0
23.9 869.0
23.915 808.0
23.93 875.0
23.945 835.0
23.96 823.0
23.975 876.0
23.99 857.0
24.005 833.0
24.02 834.0
24.035 832.0
24.05 796.0
24.065 813.0
24.08 861.0
24.095 834.0
24.11 813.0
24.125 814.0
24.14 878.0
24.155 856.0
24.17 786.0
24.185 792.0
24.2 851.0
24.215 828.0
24.23 812.0
24.245 875.0
24.26 859.0
24.275 862.0
24.29 828.0
24.305 858.0
24.32 860.0
24.335 834.0
24.35 821.0
24.365 795.0
24.38 813.0
24.395 841.0
24.41 806.0
24.425 808.0
24.44 837.0
24.455 857.0
24.47 786.0
24.485 846.0
24.5 896.0
24.515 882.0
24.53 835.0
24.545 853.0
24.56 802.0
24.575 811.0
24.59 842.0
24.605 816.0
24.62 870.0
24.635 843.0
24.65 838.0
24.665 861.0
24.68 848.0
24.695 850.0
24.71 839.0
24.725 858.0
24.74 846.0
24.755 841.0
24.77 872.0
24.785 841.0
24.8 845.0
24.815 823.0
24.83 820.0
24.845 806.0
24.86 783.0
24.875 864.0
24.89 871.0
24.905 841.0
24.92 799.0
24.935 794.0
24.95 782.0
24.965 881.0
24.98 883.0
24.995 812.0
25.01 844.0
25.025 859.0
25.04 801.0
25.055 864.0
25.07 849.0
25.085 844.0
25.1 796.0
25.115 807.0
25.13 812.0
25.145 825.0
25.16 839.0
25.175 815.0
25.19 823.0
25.205 829.0
25.22 866.0
25.235 837.0
25.25 799.0
25.265 815.0
25.28 851.0
25.295 858.0
25.31 845.0
25.325 825.0
25.34 813.0
25.355 858.0
25.37 804.0
25.385 802.0
25.4 794.0
25.415 803.0
25.43 842.0
25.445 835.0
25.46 835.0
25.475 834.0
25.49 860.0
25.505 848.0
25.52 878.0
25.535 854.0
25.55 839.0
25.565 836.0
25.58 848.0
25.595 829.0
25.61 830.0
25.625 836.0
25.64 828.0
25.655 870.0
25.67 824.0
25.685 772.0
25.7 852.0
25.715 872.0
25.73 886.0
25.745 861.0
25.76 875.0
25.775 825.0
25.79 767.0
25.805 838.0
25.82 851.0
25.835 859.0
25.85 834.0
25.865 807.0
25.88 865.0
25.895 866.0
25.91 799.0
25.925 841.0
25.94 885.0
25.955 810.0
25.97 835.0
25.985 857.0
26.0 849.0
26.015 874.0
26.03 831.0
26.045 837.0
26.06 908.0
26.075 833.0
26.09 845.0
26.105 825.0
26.12 817.0
26.135 849.0
26.15 841.0
26.165 866.0
26.18 840.0
26.195 815.0
26.21 856.0
26.225 844.0
26.24 853.0
26.255 844.0
26.27 856.0
26.285 807.0
26.3 812.0
26.315 858.0
26.33 865.0
26.345 854.0
26.36 831.0
26.375 858.0
26.39 879.0
26.405 850.0
26.42 822.0
26.435 859.0
26.45 791.0
26.465 836.0
26.48 872.0
26.495 837.0
26.51 843.0
26.525 857.0
26.54 870.0
26.555 857.0
26.57 820.0
26.585 852.0
26.6 857.0
26.615 873.0
26.63 846.0
26.645 819.0
26.66 867.0
26.675 843.0
26.69 873.0
26.705 840.0
26.72 825.0
26.735 847.0
26.75 859.0
26.765 896.0
26.78 838.0
26.795 844.0
26.81 883.0
26.825 877.0
26.84 881.0
26.855 859.0
26.87 818.0
26.885 868.0
26.9 867.0
26.915 890.0
26.93 882.0
26.945 814.0
26.96 817.0
26.975 861.0
26.99 854.0
27.005 852.0
27.02 856.0
27.035 811.0
27.05 854.0
27.065 891.0
27.08 887.0
27.095 862.0
27.11 896.0
27.125 907.0
27.14 886.0
27.155 841.0
27.17 865.0
27.185 891.0
27.2 878.0
27.215 895.0
27.23 871.0
27.245 860.0
27.26 887.0
27.275 896.0
27.29 909.0
27.305 878.0
27.32 906.0
27.335 903.0
27.35 923.0
27.365 888.0
27.38 884.0
27.395 922.0
27.41 930.0
27.425 931.0
27.44 928.0
27.455 929.0
27.47 927.0
27.485 937.0
27.5 925.0
27.515 925.0
27.53 904.0
27.545 953.0
27.56 929.0
27.575 907.0
27.59 958.0
27.605 966.0
27.62 942.0
27.635 935.0
27.65 939.0
27.665 918.0
27.68 901.0
27.695 969.0
27.71 925.0
27.725 904.0
27.74 906.0
27.755 902.0
27.77 944.0
27.785 956.0
27.8 890.0
27.815 934.0
27.83 903.0
27.845 917.0
27.86 955.0
27.875 889.0
27.89 867.0
27.905 886.0
27.92 928.0
27.935 897.0
27.95 925.0
27.965 888.0
27.98 872.0
27.995 863.0
28.01 885.0
28.025 888.0
28.04 880.0
28.055 853.0
28.07 887.0
28.085 890.0
28.1 909.0
28.115 840.0
28.13 850.0
28.145 865.0
28.16 830.0
28.175 871.0
28.19 853.0
28.205 825.0
28.22 859.0
28.235 876.0
28.25 868.0
28.265 792.0
28.28 770.0
28.295 828.0
28.31 844.0
28.325 861.0
28.34 855.0
28.355 821.0
28.37 788.0
28.385 794.0
28.4 817.0
28.415 802.0
28.43 804.0
28.445 798.0
28.46 794.0
28.475 757.0
28.49 770.0
28.505 817.0
28.52 811.0
28.535 769.0
28.55 776.0
28.565 776.0
28.58 773.0
28.595 751.0
28.61 758.0
28.625 766.0
28.64 745.0
28.655 765.0
28.67 784.0
28.685 788.0
28.7 761.0
28.715 734.0
28.73 779.0
28.745 738.0
28.76 730.0
28.775 722.0
28.79 706.0
28.805 725.0
28.82 735.0
28.835 756.0
28.85 747.0
28.865 710.0
28.88 695.0
28.895 726.0
28.91 705.0
28.925 705.0
28.94 714.0
28.955 719.0
28.97 738.0
28.985 713.0
29.0 745.0
29.015 736.0
29.03 679.0
29.045 691.0
29.06 667.0
29.075 722.0
29.09 787.0
29.105 725.0
29.12 718.0
29.135 704.0
29.15 713.0
29.165 689.0
29.18 714.0
29.195 689.0
29.21 715.0
29.225 747.0
29.24 700.0
29.255 711.0
29.27 732.0
29.285 714.0
29.3 714.0
29.315 699.0
29.33 697.0
29.345 724.0
29.36 753.0
29.375 732.0
29.39 766.0
29.405 780.0
29.42 749.0
29.435 780.0
29.45 731.0
29.465 688.0
29.48 682.0
29.495 721.0
29.51 710.0
29.525 697.0
29.54 719.0
29.555 667.0
29.57 687.0
29.585 718.0
29.6 747.0
29.615 680.0
29.63 675.0
29.645 699.0
29.66 695.0
29.675 692.0
29.69 679.0
29.705 682.0
29.72 681.0
29.735 695.0
29.75 684.0
29.765 667.0
29.78 706.0
29.795 686.0
29.81 687.0
29.825 674.0
29.84 706.0
29.855 662.0
29.87 655.0
29.885 669.0
29.9 643.0
29.915 644.0
29.93 638.0
29.945 652.0
29.96 661.0
29.975 693.0
29.99 722.0
30.005 697.0
30.02 676.0
30.035 693.0
30.05 688.0
30.065 640.0
30.08 641.0
30.095 684.0
30.11 664.0
30.125 655.0
30.14 708.0
30.155 708.0
30.17 643.0
30.185 662.0
30.2 620.0
30.215 652.0
30.23 652.0
30.245 651.0
30.26 629.0
30.275 659.0
30.29 674.0
30.305 643.0
30.32 639.0
30.335 638.0
30.35 615.0
30.365 625.0
30.38 665.0
30.395 664.0
30.41 660.0
30.425 688.0
30.44 653.0
30.455 625.0
30.47 635.0
30.485 633.0
30.5 671.0
30.515 701.0
30.53 624.0
30.545 633.0
30.56 622.0
30.575 665.0
30.59 617.0
30.605 636.0
30.62 642.0
30.635 667.0
30.65 656.0
30.665 658.0
30.68 660.0
30.695 654.0
30.71 703.0
30.725 663.0
30.74 598.0
30.755 622.0
30.77 634.0
30.785 629.0
30.8 655.0
30.815 643.0
30.83 594.0
30.845 644.0
30.86 664.0
30.875 625.0
30.89 674.0
30.905 624.0
30.92 606.0
30.935 629.0
30.95 610.0
30.965 616.0
30.98 609.0
30.995 627.0
31.01 676.0
31.025 655.0
31.04 632.0
31.055 588.0
31.07 617.0
31.085 641.0
31.1 635.0
31.115 601.0
31.13 620.0
31.145 612.0
31.16 611.0
31.175 647.0
31.19 620.0
31.205 609.0
31.22 600.0
31.235 633.0
31.25 612.0
31.265 596.0
31.28 598.0
31.295 567.0
31.31 559.0
31.325 607.0
31.34 599.0
31.355 595.0
31.37 558.0
31.385 656.0
31.4 608.0
31.415 542.0
31.43 588.0
31.445 579.0
31.46 606.0
31.475 609.0
31.49 622.0
31.505 626.0
31.52 641.0
31.535 556.0
31.55 606.0
31.565 589.0
31.58 576.0
31.595 595.0
31.61 617.0
31.625 603.0
31.64 596.0
31.655 578.0
31.67 612.0
31.685 599.0
31.7 569.0
31.715 628.0
31.73 591.0
31.745 598.0
31.76 606.0
31.775 580.0
31.79 575.0
31.805 562.0
31.82 570.0
31.835 571.0
31.85 583.0
31.865 576.0
31.88 534.0
31.895 584.0
31.91 577.0
31.925 582.0
31.94 566.0
31.955 584.0
31.97 561.0
31.985 603.0
32.0 599.0
32.015 588.0
32.03 570.0
32.045 584.0
32.06 581.0
32.075 561.0
32.09 621.0
32.105 602.0
32.12 602.0
32.135 566.0
32.15 571.0
32.165 596.0
32.18 590.0
32.195 575.0
32.21 539.0
32.225 537.0
32.24 555.0
32.255 588.0
32.27 548.0
32.285 579.0
32.3 580.0
32.315 568.0
32.33 584.0
32.345 581.0
32.36 569.0
32.375 552.0
32.39 560.0
32.405 556.0
32.42 555.0
32.435 555.0
32.45 548.0
32.465 542.0
32.48 581.0
32.495 589.0
32.51 575.0
32.525 536.0
32.54 586.0
32.555 548.0
32.57 547.0
32.585 567.0
32.6 561.0
32.615 578.0
32.63 550.0
32.645 530.0
32.66 540.0
32.675 545.0
32.69 563.0
32.705 552.0
32.72 550.0
32.735 522.0
32.75 535.0
32.765 544.0
32.78 538.0
32.795 548.0
32.81 506.0
32.825 539.0
32.84 547.0
32.855 536.0
32.87 543.0
32.885 515.0
32.9 518.0
32.915 511.0
32.93 535.0
32.945 521.0
32.96 533.0
32.975 551.0
32.99 545.0
33.005 512.0
33.02 506.0
33.035 529.0
33.05 522.0
33.065 508.0
33.08 532.0
33.095 541.0
33.11 545.0
33.125 513.0
33.14 488.0
33.155 505.0
33.17 498.0
33.185 504.0
33.2 496.0
33.215 530.0
33.23 509.0
33.245 503.0
33.26 512.0
33.275 506.0
33.29 505.0
33.305 506.0
33.32 499.0
33.335 509.0
33.35 509.0
33.365 500.0
33.38 502.0
33.395 488.0
33.41 487.0
33.425 503.0
33.44 527.0
33.455 518.0
33.47 529.0
33.485 494.0
33.5 493.0
33.515 542.0
33.53 492.0
33.545 499.0
33.56 521.0
33.575 505.0
33.59 509.0
33.605 491.0
33.62 512.0
33.635 517.0
33.65 536.0
33.665 494.0
33.68 482.0
33.695 476.0
33.71 465.0
33.725 497.0
33.74 497.0
33.755 498.0
33.77 483.0
33.785 478.0
33.8 499.0
33.815 509.0
33.83 505.0
33.845 496.0
33.86 488.0
33.875 481.0
33.89 508.0
33.905 516.0
33.92 468.0
33.935 464.0
33.95 475.0
33.965 510.0
33.98 511.0
33.995 512.0
34.01 517.0
34.025 473.0
34.04 479.0
34.055 486.0
34.07 494.0
34.085 500.0
34.1 505.0
34.115 467.0
34.13 479.0
34.145 492.0
34.16 484.0
34.175 476.0
34.19 436.0
34.205 490.0
34.22 467.0
34.235 486.0
34.25 467.0
34.265 473.0
34.28 484.0
34.295 478.0
34.31 456.0
34.325 475.0
34.34 500.0
34.355 462.0
34.37 466.0
34.385 470.0
34.4 462.0
34.415 455.0
34.43 467.0
34.445 455.0
34.46 462.0
34.475 492.0
34.49 477.0
34.505 438.0
34.52 470.0
34.535 488.0
34.55 452.0
34.565 460.0
34.58 466.0
34.595 473.0
34.61 476.0
34.625 450.0
34.64 463.0
34.655 474.0
34.67 465.0
34.685 470.0
34.7 452.0
34.715 480.0
34.73 485.0
34.745 438.0
34.76 441.0
34.775 446.0
34.79 445.0
34.805 454.0
34.82 471.0
34.835 434.0
34.85 438.0
34.865 460.0
34.88 460.0
34.895 468.0
34.91 434.0
34.925 431.0
34.94 454.0
34.955 476.0
34.97 444.0
34.985 460.0
35.0 432.0
35.015 428.0
35.03 438.0
35.045 437.0
35.06 439.0
35.075 462.0
35.09 432.0
35.105 453.0
35.12 438.0
35.135 445.0
35.15 419.0
35.165 444.0
35.18 440.0
35.195 460.0
35.21 441.0
35.225 456.0
35.24 449.0
35.255 420.0
35.27 420.0
35.285 443.0
35.3 415.0
35.315 436.0
35.33 459.0
35.345 452.0
35.36 420.0
35.375 374.0
35.39 427.0
35.405 438.0
35.42 467.0
35.435 445.0
35.45 433.0
35.465 448.0
35.48 456.0
35.495 448.0
35.51 427.0
35.525 389.0
35.54 379.0
35.555 459.0
35.57 440.0
35.585 443.0
35.6 444.0
35.615 421.0
35.63 412.0
35.645 427.0
35.66 420.0
35.675 444.0
35.69 429.0
35.705 424.0
35.72 406.0
35.735 420.0
35.75 416.0
35.765 434.0
35.78 426.0
35.795 463.0
35.81 457.0
35.825 443.0
35.84 412.0
35.855 446.0
35.87 431.0
35.885 391.0
35.9 403.0
35.915 438.0
35.93 436.0
35.945 410.0
35.96 423.0
35.975 438.0
35.99 458.0
36.005 433.0
36.02 393.0
36.035 413.0
36.05 442.0
36.065 453.0
36.08 431.0
36.095 424.0
36.11 435.0
36.125 408.0
36.14 404.0
36.155 424.0
36.17 434.0
36.185 394.0
36.2 349.0
36.215 404.0
36.23 432.0
36.245 402.0
36.26 413.0
36.275 429.0
36.29 389.0
36.305 379.0
36.32 381.0
36.335 386.0
36.35 381.0
36.365 398.0
36.38 356.0
36.395 358.0
36.41 422.0
36.425 386.0
36.44 402.0
36.455 396.0
36.47 377.0
36.485 404.0
36.5 382.0
36.515 392.0
36.53 406.0
36.545 406.0
36.56 386.0
36.575 401.0
36.59 395.0
36.605 364.0
36.62 372.0
36.635 352.0
36.65 384.0
36.665 384.0
36.68 393.0
36.695 393.0
36.71 390.0
36.725 387.0
36.74 407.0
36.755 383.0
36.77 404.0
36.785 384.0
36.8 372.0
36.815 377.0
36.83 368.0
36.845 388.0
36.86 414.0
36.875 391.0
36.89 410.0
36.905 366.0
36.92 388.0
36.935 414.0
36.95 402.0
36.965 388.0
36.98 383.0
36.995 384.0
37.01 394.0
37.025 399.0
37.04 396.0
37.055 372.0
37.07 408.0
37.085 365.0
37.1 368.0
37.115 392.0
37.13 355.0
37.145 388.0
37.16 384.0
37.175 359.0
37.19 379.0
37.205 363.0
37.22 370.0
37.235 363.0
37.25 368.0
37.265 345.0
37.28 359.0
37.295 354.0
37.31 370.0
37.325 409.0
37.34 371.0
37.355 375.0
37.37 371.0
37.385 379.0
37.4 347.0
37.415 345.0
37.43 367.0
37.445 379.0
37.46 368.0
37.475 380.0
37.49 371.0
37.505 359.0
37.52 374.0
37.535 389.0
37.55 371.0
37.565 378.0
37.58 338.0
37.595 351.0
37.61 385.0
37.625 378.0
37.64 361.0
37.655 367.0
37.67 380.0
37.685 364.0
37.7 349.0
37.715 381.0
37.73 397.0
37.745 350.0
37.76 356.0
37.775 363.0
37.79 362.0
37.805 341.0
37.82 360.0
37.835 387.0
37.85 369.0
37.865 330.0
37.88 324.0
37.895 343.0
37.91 351.0
37.925 358.0
37.94 358.0
37.955 329.0
37.97 350.0
37.985 405.0
38.0 372.0
38.015 362.0
38.03 335.0
38.045 368.0
38.06 345.0
38.075 334.0
38.09 357.0
38.105 344.0
38.12 352.0
38.135 343.0
38.15 353.0
38.165 360.0
38.18 375.0
38.195 360.0
38.21 342.0
38.225 347.0
38.24 347.0
38.255 316.0
38.27 386.0
38.285 354.0
38.3 376.0
38.315 362.0
38.33 340.0
38.345 357.0
38.36 344.0
38.375 338.0
38.39 376.0
38.405 360.0
38.42 365.0
38.435 359.0
38.45 347.0
38.465 346.0
38.48 339.0
38.495 334.0
38.51 354.0
38.525 372.0
38.54 375.0
38.555 336.0
38.57 333.0
38.585 357.0
38.6 344.0
38.615 338.0
38.63 350.0
38.645 318.0
38.66 337.0
38.675 351.0
38.69 346.0
38.705 357.0
38.72 344.0
38.735 329.0
38.75 336.0
38.765 341.0
38.78 380.0
38.795 346.0
38.81 340.0
38.825 339.0
38.84 355.0
38.855 381.0
38.87 356.0
38.885 330.0
38.9 344.0
38.915 336.0
38.93 330.0
38.945 341.0
38.96 333.0
38.975 339.0
38.99 374.0
39.005 351.0
39.02 349.0
39.035 346.0
39.05 344.0
39.065 347.0
39.08 326.0
39.095 319.0
39.11 327.0
39.125 339.0
39.14 318.0
39.155 338.0
39.17 376.0
39.185 362.0
39.2 356.0
39.215 351.0
39.23 359.0
39.245 326.0
39.26 325.0
39.275 335.0
39.29 344.0
39.305 332.0
39.32 356.0
39.335 329.0
39.35 337.0
39.365 336.0
39.38 344.0
39.395 367.0
39.41 380.0
39.425 370.0
39.44 371.0
39.455 346.0
39.47 338.0
39.485 336.0
39.5 337.0
39.515 319.0
39.53 328.0
39.545 322.0
39.56 364.0
39.575 366.0
39.59 348.0
39.605 324.0
39.62 355.0
39.635 337.0
39.65 355.0
39.665 331.0
39.68 348.0
39.695 333.0
39.71 339.0
39.725 365.0
39.74 333.0
39.755 316.0
39.77 334.0
39.785 362.0
39.8 313.0
39.815 330.0
39.83 316.0
39.845 339.0
39.86 336.0
39.875 337.0
39.89 329.0
39.905 327.0
39.92 340.0
39.935 327.0
39.95 349.0
39.965 321.0
39.98 342.0
39.995 324.0
40.01 343.0
40.025 324.0
40.04 322.0
40.055 334.0
40.07 329.0
40.085 343.0
40.1 325.0
40.115 316.0
40.13 349.0
40.145 323.0
40.16 321.0
40.175 325.0
40.19 338.0
40.205 316.0
40.22 335.0
40.235 314.0
40.25 319.0
40.265 336.0
40.28 339.0
40.295 330.0
40.31 330.0
40.325 342.0
40.34 319.0
40.355 322.0
40.37 314.0
40.385 317.0
40.4 323.0
40.415 299.0
40.43 343.0
40.445 344.0
40.46 340.0
40.475 328.0
40.49 320.0
40.505 305.0
40.52 326.0
40.535 334.0
40.55 316.0
40.565 320.0
40.58 325.0
40.595 352.0
40.61 339.0
40.625 322.0
40.64 312.0
40.655 333.0
40.67 311.0
40.685 310.0
40.7 318.0
40.715 316.0
40.73 356.0
40.745 300.0
40.76 330.0
40.775 339.0
40.79 335.0
40.805 313.0
40.82 303.0
40.835 291.0
40.85 338.0
40.865 331.0
40.88 322.0
40.895 320.0
40.91 305.0
40.925 301.0
40.94 328.0
40.955 333.0
40.97 304.0
40.985 322.0
41.0 331.0
41.015 344.0
41.03 339.0
41.045 338.0
41.06 327.0
41.075 316.0
41.09 335.0
41.105 332.0
41.12 300.0
41.135 314.0
41.15 331.0
41.165 324.0
41.18 354.0
41.195 347.0
41.21 315.0
41.225 336.0
41.24 324.0
41.255 324.0
41.27 309.0
41.285 327.0
41.3 304.0
41.315 293.0
41.33 320.0
41.345 331.0
41.36 300.0
41.375 321.0
41.39 340.0
41.405 317.0
41.42 327.0
41.435 321.0
41.45 331.0
41.465 319.0
41.48 314.0
41.495 319.0
41.51 329.0
41.525 305.0
41.54 318.0
41.555 335.0
41.57 333.0
41.585 329.0
41.6 318.0
41.615 322.0
41.63 307.0
41.645 306.0
41.66 331.0
41.675 348.0
41.69 311.0
41.705 317.0
41.72 342.0
41.735 326.0
41.75 331.0
41.765 321.0
41.78 335.0
41.795 321.0
41.81 316.0
41.825 327.0
41.84 334.0
41.855 319.0
41.87 297.0
41.885 309.0
41.9 293.0
41.915 294.0
41.93 313.0
41.945 303.0
41.96 331.0
41.975 318.0
41.99 304.0
42.005 318.0
42.02 296.0
42.035 325.0
42.05 310.0
42.065 276.0
42.08 305.0
42.095 328.0
42.11 337.0
42.125 333.0
42.14 302.0
42.155 305.0
42.17 327.0
42.185 321.0
42.2 323.0
42.215 326.0
42.23 319.0
42.245 309.0
42.26 280.0
42.275 302.0
42.29 315.0
42.305 320.0
42.32 328.0
42.335 302.0
42.35 321.0
42.365 298.0
42.38 318.0
42.395 327.0
42.41 325.0
42.425 310.0
42.44 300.0
42.455 335.0
42.47 319.0
42.485 313.0
42.5 309.0
42.515 342.0
42.53 295.0
42.545 315.0
42.56 291.0
42.575 313.0
42.59 322.0
42.605 301.0
42.62 304.0
42.635 299.0
42.65 319.0
42.665 306.0
42.68 322.0
42.695 323.0
42.71 323.0
42.725 328.0
42.74 325.0
42.755 305.0
42.77 335.0
42.785 313.0
42.8 297.0
42.815 326.0
42.83 331.0
42.845 298.0
42.86 314.0
42.875 317.0
42.89 322.0
42.905 325.0
42.92 291.0
42.935 295.0
42.95 311.0
42.965 310.0
42.98 284.0
42.995 283.0
43.01 292.0
43.025 294.0
43.04 313.0
43.055 307.0
43.07 298.0
43.085 305.0
43.1 308.0
43.115 301.0
43.13 323.0
43.145 347.0
43.16 335.0
43.175 326.0
43.19 334.0
43.205 310.0
43.22 346.0
43.235 316.0
43.25 309.0
43.265 338.0
43.28 304.0
43.295 313.0
43.31 311.0
43.325 283.0
43.34 314.0
43.355 326.0
43.37 321.0
43.385 314.0
43.4 332.0
43.415 319.0
43.43 326.0
43.445 289.0
43.46 324.0
43.475 290.0
43.49 294.0
43.505 287.0
43.52 287.0
43.535 298.0
43.55 302.0
43.565 298.0
43.58 315.0
43.595 301.0
43.61 297.0
43.625 319.0
43.64 297.0
43.655 309.0
43.67 296.0
43.685 293.0
43.7 311.0
43.715 314.0
43.73 317.0
43.745 296.0
43.76 315.0
43.775 298.0
43.79 289.0
43.805 307.0
43.82 330.0
43.835 298.0
43.85 318.0
43.865 304.0
43.88 316.0
43.895 319.0
43.91 291.0
43.925 301.0
43.94 296.0
43.955 303.0
43.97 302.0
43.985 330.0
44.0 288.0
44.015 296.0
44.03 325.0
44.045 294.0
44.06 323.0
44.075 339.0
44.09 300.0
44.105 291.0
44.12 300.0
44.135 299.0
44.15 287.0
44.165 295.0
44.18 289.0
44.195 283.0
44.21 284.0
44.225 293.0
44.24 319.0
44.255 308.0
44.27 284.0
44.285 322.0
44.3 300.0
44.315 289.0
44.33 324.0
44.345 273.0
44.36 287.0
44.375 306.0
44.39 319.0
44.405 289.0
44.42 292.0
44.435 315.0
44.45 288.0
44.465 304.0
44.48 291.0
44.495 304.0
44.51 297.0
44.525 285.0
44.54 295.0
44.555 295.0
44.57 317.0
44.585 303.0
44.6 299.0
44.615 290.0
44.63 299.0
44.645 325.0
44.66 309.0
44.675 317.0
44.69 303.0
44.705 283.0
44.72 319.0
44.735 298.0
44.75 278.0
44.765 282.0
44.78 281.0
44.795 321.0
44.81 297.0
44.825 320.0
44.84 294.0
44.855 291.0
44.87 287.0
44.885 302.0
44.9 298.0
44.915 301.0
44.93 295.0
44.945 291.0
44.96 319.0
44.975 297.0
44.99 314.0
45.005 276.0
45.02 258.0
45.035 286.0
45.05 314.0
45.065 281.0
45.08 291.0
45.095 274.0
45.11 277.0
45.125 278.0
45.14 290.0
45.155 302.0
45.17 279.0
45.185 274.0
45.2 284.0
45.215 304.0
45.23 274.0
45.245 299.0
45.26 302.0
45.275 271.0
45.29 252.0
45.305 262.0
45.32 289.0
45.335 316.0
45.35 331.0
45.365 290.0
45.38 280.0
45.395 267.0
45.41 265.0
45.425 281.0
45.44 278.0
45.455 289.0
45.47 284.0
45.485 288.0
45.5 284.0
45.515 306.0
45.53 294.0
45.545 298.0
45.56 310.0
45.575 278.0
45.59 268.0
45.605 292.0
45.62 289.0
45.635 276.0
45.65 284.0
45.665 300.0
45.68 331.0
45.695 299.0
45.71 262.0
45.725 269.0
45.74 282.0
45.755 292.0
45.77 267.0
45.785 288.0
45.8 279.0
45.815 291.0
45.83 284.0
45.845 275.0
45.86 276.0
45.875 276.0
45.89 295.0
45.905 276.0
45.92 271.0
45.935 302.0
45.95 302.0
45.965 304.0
45.98 259.0
45.995 299.0
46.01 291.0
46.025 280.0
46.04 290.0
46.055 309.0
46.07 299.0
46.085 297.0
46.1 293.0
46.115 275.0
46.13 269.0
46.145 270.0
46.16 264.0
46.175 303.0
46.19 283.0
46.205 286.0
46.22 251.0
46.235 283.0
46.25 257.0
46.265 261.0
46.28 279.0
46.295 263.0
46.31 281.0
46.325 259.0
46.34 295.0
46.355 298.0
46.37 281.0
46.385 267.0
46.4 273.0
46.415 252.0
46.43 276.0
46.445 297.0
46.46 276.0
46.475 280.0
46.49 296.0
46.505 279.0
46.52 274.0
46.535 273.0
46.55 262.0
46.565 270.0
46.58 263.0
46.595 290.0
46.61 280.0
46.625 316.0
46.64 296.0
46.655 286.0
46.67 273.0
46.685 264.0
46.7 289.0
46.715 286.0
46.73 294.0
46.745 267.0
46.76 273.0
46.775 250.0
46.79 246.0
46.805 232.0
46.82 264.0
46.835 270.0
46.85 285.0
46.865 292.0
46.88 262.0
46.895 267.0
46.91 268.0
46.925 279.0
46.94 279.0
46.955 273.0
46.97 272.0
46.985 289.0
47.0 265.0
47.015 267.0
47.03 275.0
47.045 288.0
47.06 263.0
47.075 264.0
47.09 294.0
47.105 295.0
47.12 257.0
47.135 278.0
47.15 294.0
47.165 280.0
47.18 260.0
47.195 263.0
47.21 283.0
47.225 308.0
47.24 269.0
47.255 261.0
47.27 281.0
47.285 253.0
47.3 279.0
47.315 292.0
47.33 283.0
47.345 268.0
47.36 265.0
47.375 265.0
47.39 271.0
47.405 270.0
47.42 262.0
47.435 269.0
47.45 266.0
47.465 295.0
47.48 285.0
47.495 283.0
47.51 275.0
47.525 303.0
47.54 323.0
47.555 318.0
47.57 321.0
47.585 291.0
47.6 285.0
47.615 285.0
47.63 274.0
47.645 281.0
47.66 296.0
47.675 304.0
47.69 294.0
47.705 280.0
47.72 271.0
47.735 266.0
47.75 259.0
47.765 251.0
47.78 271.0
47.795 272.0
47.81 272.0
47.825 278.0
47.84 279.0
47.855 266.0
47.87 277.0
47.885 243.0
47.9 252.0
47.915 246.0
47.93 270.0
47.945 258.0
47.96 241.0
47.975 269.0
47.99 252.0
48.005 268.0
48.02 275.0
48.035 269.0
48.05 280.0
48.065 268.0
48.08 254.0
48.095 239.0
48.11 243.0
48.125 265.0
48.14 253.0
48.155 258.0
48.17 243.0
48.185 261.0
48.2 265.0
48.215 279.0
48.23 270.0
48.245 252.0
48.26 260.0
48.275 258.0
48.29 261.0
48.305 270.0
48.32 267.0
48.335 257.0
48.35 258.0
48.365 248.0
48.38 264.0
48.395 249.0
48.41 268.0
48.425 252.0
48.44 240.0
48.455 260.0
48.47 269.0
48.485 278.0
48.5 277.0
48.515 309.0
48.53 273.0
48.545 305.0
48.56 289.0
48.575 288.0
48.59 261.0
48.605 248.0
48.62 264.0
48.635 265.0
48.65 256.0
48.665 257.0
48.68 262.0
48.695 266.0
48.71 248.0
48.725 268.0
48.74 246.0
48.755 225.0
48.77 237.0
48.785 249.0
48.8 256.0
48.815 253.0
48.83 242.0
48.845 249.0
48.86 266.0
48.875 253.0
48.89 240.0
48.905 247.0
48.92 261.0
48.935 242.0
48.95 260.0
48.965 251.0
48.98 262.0
48.995 249.0
49.01 265.0
49.025 266.0
49.04 233.0
49.055 248.0
49.07 238.0
49.085 245.0
49.1 260.0
49.115 270.0
49.13 246.0
49.145 239.0
49.16 250.0
49.175 271.0
49.19 254.0
49.205 248.0
49.22 258.0
49.235 244.0
49.25 231.0
49.265 249.0
49.28 245.0
49.295 254.0
49.31 258.0
49.325 264.0
49.34 263.0
49.355 269.0
49.37 243.0
49.385 236.0
49.4 243.0
49.415 249.0
49.43 277.0
49.445 268.0
49.46 257.0
49.475 251.0
49.49 257.0
49.505 255.0
49.52 266.0
49.535 240.0
49.55 235.0
49.565 246.0
49.58 266.0
49.595 265.0
49.61 261.0
49.625 260.0
49.64 261.0
49.655 265.0
49.67 250.0
49.685 242.0
49.7 241.0
49.715 245.0
49.73 238.0
49.745 244.0
49.76 279.0
49.775 252.0
49.79 270.0
49.805 246.0
49.82 234.0
49.835 270.0
49.85 255.0
49.865 234.0
49.88 255.0
49.895 255.0
49.91 264.0
49.925 242.0
49.94 251.0
49.955 260.0
49.97 258.0
49.985 263.0
50.0 285.0
50.015 247.0
50.03 248.0
50.045 262.0
50.06 242.0
50.075 242.0
50.09 256.0
50.105 270.0
50.12 263.0
50.135 256.0
50.15 256.0
50.165 249.0
50.18 242.0
50.195 243.0
50.21 251.0
50.225 262.0
50.24 253.0
50.255 250.0
50.27 247.0
50.285 273.0
50.3 243.0
50.315 247.0
50.33 233.0
50.345 244.0
50.36 239.0
50.375 249.0
50.39 246.0
50.405 257.0
50.42 258.0
50.435 233.0
50.45 253.0
50.465 249.0
50.48 253.0
50.495 274.0
50.51 261.0
50.525 250.0
50.54 255.0
50.555 249.0
50.57 245.0
50.585 240.0
50.6 256.0
50.615 267.0
50.63 269.0
50.645 246.0
50.66 234.0
50.675 235.0
50.69 246.0
50.705 242.0
50.72 254.0
50.735 253.0
50.75 238.0
50.765 244.0
50.78 234.0
50.795 244.0
50.81 248.0
50.825 224.0
50.84 250.0
50.855 270.0
50.87 251.0
50.885 274.0
50.9 251.0
50.915 241.0
50.93 243.0
50.945 233.0
50.96 245.0
50.975 247.0
50.99 232.0
51.005 228.0
51.02 219.0
51.035 235.0
51.05 232.0
51.065 218.0
51.08 242.0
51.095 252.0
51.11 242.0
51.125 257.0
51.14 228.0
51.155 245.0
51.17 249.0
51.185 264.0
51.2 267.0
51.215 235.0
51.23 234.0
51.245 235.0
51.26 231.0
51.275 231.0
51.29 229.0
51.305 237.0
51.32 237.0
51.335 251.0
51.35 251.0
51.365 245.0
51.38 225.0
51.395 234.0
51.41 246.0
51.425 240.0
51.44 250.0
51.455 226.0
51.47 240.0
51.485 241.0
51.5 245.0
51.515 247.0
51.53 241.0
51.545 266.0
51.56 268.0
51.575 256.0
51.59 249.0
51.605 237.0
51.62 239.0
51.635 238.0
51.65 224.0
51.665 240.0
51.68 244.0
51.695 225.0
51.71 240.0
51.725 252.0
51.74 252.0
51.755 232.0
51.77 246.0
51.785 230.0
51.8 227.0
51.815 219.0
51.83 218.0
51.845 226.0
51.86 248.0
51.875 239.0
51.89 238.0
51.905 248.0
51.92 247.0
51.935 244.0
51.95 232.0
51.965 260.0
51.98 231.0
51.995 250.0
52.01 243.0
52.025 254.0
52.04 230.0
52.055 241.0
52.07 247.0
52.085 243.0
52.1 224.0
52.115 226.0
52.13 240.0
52.145 246.0
52.16 243.0
52.175 230.0
52.19 274.0
52.205 270.0
52.22 252.0
52.235 259.0
52.25 262.0
52.265 247.0
52.28 249.0
52.295 248.0
52.31 235.0
52.325 234.0
52.34 217.0
52.355 230.0
52.37 221.0
52.385 251.0
52.4 245.0
52.415 240.0
52.43 246.0
52.445 258.0
52.46 236.0
52.475 242.0
52.49 239.0
52.505 235.0
52.52 245.0
52.535 249.0
52.55 246.0
52.565 248.0
52.58 242.0
52.595 250.0
52.61 255.0
52.625 266.0
52.64 244.0
52.655 238.0
52.67 268.0
52.685 249.0
52.7 248.0
52.715 249.0
52.73 234.0
52.745 243.0
52.76 251.0
52.775 216.0
52.79 221.0
52.805 232.0
52.82 246.0
52.835 237.0
52.85 239.0
52.865 230.0
52.88 266.0
52.895 259.0
52.91 245.0
52.925 232.0
52.94 223.0
52.955 242.0
52.97 246.0
52.985 223.0
53.0 232.0
53.015 223.0
53.03 234.0
53.045 242.0
53.06 224.0
53.075 251.0
53.09 251.0
53.105 240.0
53.12 261.0
53.135 233.0
53.15 214.0
53.165 228.0
53.18 208.0
53.195 229.0
53.21 235.0
53.225 226.0
53.24 235.0
53.255 232.0
53.27 244.0
53.285 245.0
53.3 241.0
53.315 231.0
53.33 244.0
53.345 246.0
53.36 254.0
53.375 229.0
53.39 235.0
53.405 253.0
53.42 264.0
53.435 248.0
53.45 219.0
53.465 242.0
53.48 240.0
53.495 245.0
53.51 253.0
53.525 245.0
53.54 230.0
53.555 240.0
53.57 240.0
53.585 243.0
53.6 237.0
53.615 234.0
53.63 242.0
53.645 259.0
53.66 235.0
53.675 235.0
53.69 246.0
53.705 231.0
53.72 236.0
53.735 239.0
53.75 223.0
53.765 208.0
53.78 231.0
53.795 234.0
53.81 237.0
53.825 236.0
53.84 228.0
53.855 237.0
53.87 229.0
53.885 232.0
53.9 252.0
53.915 245.0
53.93 255.0
53.945 231.0
53.96 234.0
53.975 249.0
53.99 232.0
54.005 209.0
54.02 212.0
54.035 214.0
54.05 206.0
54.065 230.0
54.08 227.0
54.095 242.0
54.11 239.0
54.125 237.0
54.14 264.0
54.155 250.0
54.17 252.0
54.185 249.0
54.2 231.0
54.215 232.0
54.23 246.0
54.245 235.0
54.26 241.0
54.275 225.0
54.29 224.0
54.305 241.0
54.32 245.0
54.335 256.0
54.35 235.0
54.365 248.0
54.38 247.0
54.395 244.0
54.41 233.0
54.425 224.0
54.44 226.0
54.455 217.0
54.47 232.0
54.485 245.0
54.5 223.0
54.515 230.0
54.53 229.0
54.545 253.0
54.56 238.0
54.575 241.0
54.59 247.0
54.605 240.0
54.62 213.0
54.635 215.0
54.65 223.0
54.665 244.0
54.68 232.0
54.695 247.0
54.71 226.0
54.725 230.0
54.74 246.0
54.755 250.0
54.77 266.0
54.785 238.0
54.8 236.0
54.815 239.0
54.83 227.0
54.845 250.0
54.86 247.0
54.875 252.0
54.89 235.0
54.905 227.0
54.92 230.0
54.935 222.0
54.95 234.0
54.965 222.0
54.98 195.0
54.995 216.0
55.01 250.0
55.025 245.0
55.04 217.0
55.055 219.0
55.07 224.0
55.085 247.0
55.1 234.0
55.115 221.0
55.13 221.0
55.145 232.0
55.16 213.0
55.175 213.0
55.19 218.0
55.205 220.0
55.22 224.0
55.235 245.0
55.25 251.0
55.265 239.0
55.28 239.0
55.295 235.0
55.31 222.0
55.325 226.0
55.34 238.0
55.355 229.0
55.37 223.0
55.385 221.0
55.4 224.0
55.415 209.0
55.43 234.0
55.445 235.0
55.46 236.0
55.475 245.0
55.49 246.0
55.505 223.0
55.52 232.0
55.535 244.0
55.55 230.0
55.565 212.0
55.58 235.0
55.595 244.0
55.61 240.0
55.625 236.0
55.64 227.0
55.655 223.0
55.67 252.0
55.685 227.0
55.7 222.0
55.715 235.0
55.73 242.0
55.745 245.0
55.76 253.0
55.775 238.0
55.79 218.0
55.805 213.0
55.82 237.0
55.835 226.0
55.85 226.0
55.865 214.0
55.88 240.0
55.895 241.0
55.91 241.0
55.925 243.0
55.94 240.0
55.955 238.0
55.97 238.0
55.985 225.0
56.0 196.0
56.015 215.0
56.03 229.0
56.045 217.0
56.06 225.0
56.075 255.0
56.09 240.0
56.105 240.0
56.12 217.0
56.135 238.0
56.15 243.0
56.165 237.0
56.18 257.0
56.195 223.0
56.21 225.0
56.225 230.0
56.24 266.0
56.255 213.0
56.27 252.0
56.285 225.0
56.3 221.0
56.315 236.0
56.33 231.0
56.345 235.0
56.36 240.0
56.375 240.0
56.39 221.0
56.405 229.0
56.42 226.0
56.435 232.0
56.45 220.0
56.465 225.0
56.48 243.0
56.495 226.0
56.51 239.0
56.525 235.0
56.54 208.0
56.555 234.0
56.57 242.0
56.585 247.0
56.6 235.0
56.615 257.0
56.63 224.0
56.645 234.0
56.66 228.0
56.675 227.0
56.69 221.0
56.705 223.0
56.72 220.0
56.735 223.0
56.75 215.0
56.765 233.0
56.78 234.0
56.795 220.0
56.81 227.0
56.825 244.0
56.84 237.0
56.855 241.0
56.87 236.0
56.885 242.0
56.9 211.0
56.915 235.0
56.93 242.0
56.945 217.0
56.96 223.0
56.975 243.0
56.99 230.0
57.005 226.0
57.02 227.0
57.035 229.0
57.05 236.0
57.065 224.0
57.08 218.0
57.095 226.0
57.11 227.0
57.125 204.0
57.14 222.0
57.155 249.0
57.17 235.0
57.185 220.0
57.2 212.0
57.215 223.0
57.23 232.0
57.245 218.0
57.26 230.0
57.275 251.0
57.29 230.0
57.305 240.0
57.32 257.0
57.335 232.0
57.35 223.0
57.365 239.0
57.38 224.0
57.395 223.0
57.41 246.0
57.425 226.0
57.44 234.0
57.455 237.0
57.47 221.0
57.485 227.0
57.5 238.0
57.515 226.0
57.53 225.0
57.545 255.0
57.56 228.0
57.575 242.0
57.59 232.0
57.605 225.0
57.62 242.0
57.635 267.0
57.65 239.0
57.665 221.0
57.68 227.0
57.695 232.0
57.71 218.0
57.725 210.0
57.74 219.0
57.755 220.0
57.77 222.0
57.785 246.0
57.8 237.0
57.815 205.0
57.83 223.0
57.845 229.0
57.86 206.0
57.875 230.0
57.89 243.0
57.905 243.0
57.92 236.0
57.935 236.0
57.95 209.0
57.965 245.0
57.98 238.0
57.995 216.0
58.01 264.0
58.025 243.0
58.04 237.0
58.055 244.0
58.07 241.0
58.085 244.0
58.1 248.0
58.115 242.0
58.13 241.0
58.145 223.0
58.16 220.0
58.175 230.0
58.19 230.0
58.205 236.0
58.22 224.0
58.235 204.0
58.25 212.0
58.265 211.0
58.28 225.0
58.295 236.0
58.31 240.0
58.325 235.0
58.34 229.0
58.355 242.0
58.37 218.0
58.385 224.0
58.4 227.0
58.415 205.0
58.43 214.0
58.445 222.0
58.46 201.0
58.475 224.0
58.49 249.0
58.505 228.0
58.52 232.0
58.535 224.0
58.55 207.0
58.565 203.0
58.58 217.0
58.595 224.0
58.61 219.0
58.625 231.0
58.64 209.0
58.655 229.0
58.67 228.0
58.685 203.0
58.7 245.0
58.715 229.0
58.73 228.0
58.745 222.0
58.76 216.0
58.775 231.0
58.79 224.0
58.805 220.0
58.82 232.0
58.835 228.0
58.85 232.0
58.865 223.0
58.88 210.0
58.895 216.0
58.91 204.0
58.925 211.0
58.94 213.0
58.955 217.0
58.97 227.0
58.985 221.0
59.0 214.0
59.015 215.0
59.03 210.0
59.045 210.0
59.06 196.0
59.075 206.0
59.09 216.0
59.105 210.0
59.12 188.0
59.135 217.0
59.15 226.0
59.165 224.0
59.18 215.0
59.195 212.0
59.21 206.0
59.225 210.0
59.24 219.0
59.255 209.0
59.27 209.0
59.285 208.0
59.3 229.0
59.315 228.0
59.33 209.0
59.345 192.0
59.36 208.0
59.375 220.0
59.39 213.0
59.405 191.0
59.42 201.0
59.435 217.0
59.45 228.0
59.465 221.0
59.48 226.0
59.495 216.0
59.51 195.0
59.525 227.0
59.54 218.0
59.555 229.0
59.57 230.0
59.585 209.0
59.6 214.0
59.615 213.0
59.63 216.0
59.645 201.0
59.66 210.0
59.675 221.0
59.69 230.0
59.705 196.0
59.72 241.0
59.735 207.0
59.75 206.0
59.765 213.0
59.78 205.0
59.795 222.0
59.81 223.0
59.825 225.0
59.84 220.0
59.855 219.0
59.87 209.0
59.885 231.0
59.9 223.0
59.915 221.0
59.93 218.0
59.945 207.0
59.96 229.0
59.975 220.0
59.99 197.0
60.005 216.0
60.02 220.0
60.035 217.0
60.05 204.0
60.065 223.0
60.08 209.0
60.095 220.0
60.11 239.0
60.125 227.0
60.14 238.0
60.155 221.0
60.17 219.0
60.185 217.0
60.2 213.0
60.215 206.0
60.23 197.0
60.245 215.0
60.26 244.0
60.275 227.0
60.29 221.0
60.305 206.0
60.32 217.0
60.335 197.0
60.35 212.0
60.365 210.0
60.38 208.0
60.395 208.0
60.41 217.0
60.425 200.0
60.44 223.0
60.455 198.0
60.47 216.0
60.485 198.0
60.5 217.0
60.515 218.0
60.53 227.0
60.545 218.0
60.56 222.0
60.575 206.0
60.59 224.0
60.605 202.0
60.62 219.0
60.635 212.0
60.65 200.0
60.665 224.0
60.68 192.0
60.695 220.0
60.71 228.0
60.725 228.0
60.74 220.0
60.755 220.0
60.77 225.0
60.785 234.0
60.8 212.0
60.815 223.0
60.83 217.0
60.845 205.0
60.86 202.0
60.875 218.0
60.89 221.0
60.905 195.0
60.92 201.0
60.935 205.0
60.95 203.0
60.965 192.0
60.98 207.0
60.995 219.0
61.01 226.0
61.025 214.0
61.04 200.0
61.055 206.0
61.07 216.0
61.085 223.0
61.1 239.0
61.115 241.0
61.13 221.0
61.145 214.0
61.16 226.0
61.175 217.0
61.19 205.0
61.205 198.0
61.22 206.0
61.235 214.0
61.25 219.0
61.265 208.0
61.28 218.0
61.295 235.0
61.31 214.0
61.325 220.0
61.34 232.0
61.355 225.0
61.37 207.0
61.385 222.0
61.4 202.0
61.415 200.0
61.43 209.0
61.445 206.0
61.46 237.0
61.475 210.0
61.49 207.0
61.505 201.0
61.52 222.0
61.535 207.0
61.55 193.0
61.565 211.0
61.58 224.0
61.595 240.0
61.61 238.0
61.625 221.0
61.64 200.0
61.655 220.0
61.67 215.0
61.685 220.0
61.7 208.0
61.715 202.0
61.73 200.0
61.745 225.0
61.76 220.0
61.775 198.0
61.79 195.0
61.805 199.0
61.82 227.0
61.835 191.0
61.85 205.0
61.865 204.0
61.88 225.0
61.895 218.0
61.91 209.0
61.925 202.0
61.94 220.0
61.955 205.0
61.97 219.0
61.985 211.0
