2.00000 378.000
2.01500 381.000
2.03000 371.000
2.04500 378.000
2.06000 372.000
2.07500 356.000
2.09000 371.000
2.10500 330.000
2.12000 341.000
2.13500 360.000
2.15000 308.000
2.16500 304.000
2.18000 328.000
2.19500 307.000
2.21000 292.000
2.22500 328.000
2.24000 299.000
2.25500 285.000
2.27000 273.000
2.28500 268.000
2.30000 287.000
2.31500 261.000
2.33000 261.000
2.34500 253.000
2.36000 274.000
2.37500 269.000
2.39000 261.000
2.40500 267.000
2.42000 265.000
2.43500 246.000
2.45000 253.000
2.46500 254.000
2.48000 255.000
2.49500 247.000
2.51000 236.000
2.52500 247.000
2.54000 222.000
2.55500 232.000
2.57000 236.000
2.58500 229.000
2.60000 228.000
2.61500 234.000
2.63000 240.000
2.64500 235.000
2.66000 197.000
2.67500 209.000
2.69000 221.000
2.70500 224.000
2.72000 210.000
2.73500 219.000
2.75000 203.000
2.76500 199.000
2.78000 204.000
2.79500 232.000
2.81000 218.000
2.82500 192.000
2.84000 175.000
2.85500 203.000
2.87000 195.000
2.88500 218.000
2.90000 205.000
2.91500 185.000
2.93000 193.000
2.94500 204.000
2.96000 177.000
2.97500 190.000
2.99000 212.000
3.00500 193.000
3.02000 216.000
3.03500 197.000
3.05000 198.000
3.06500 196.000
3.08000 192.000
3.09500 196.000
3.11000 201.000
3.12500 189.000
3.14000 173.000
3.15500 174.000
3.17000 185.000
3.18500 195.000
3.20000 181.000
3.21500 177.000
3.23000 186.000
3.24500 180.000
3.26000 196.000
3.27500 197.000
3.29000 195.000
3.30500 197.000
3.32000 193.000
3.33500 167.000
3.35000 181.000
3.36500 180.000
3.38000 190.000
3.39500 170.000
3.41000 168.000
3.42500 175.000
3.44000 189.000
3.45500 181.000
3.47000 185.000
3.48500 193.000
3.50000 202.000
3.51500 164.000
3.53000 162.000
3.54500 202.000
3.56000 195.000
3.57500 195.000
3.59000 203.000
3.60500 176.000
3.62000 178.000
3.63500 179.000
3.65000 187.000
3.66500 177.000
3.68000 193.000
3.69500 165.000
3.71000 184.000
3.72500 188.000
3.74000 176.000
3.75500 178.000
3.77000 176.000
3.78500 186.000
3.80000 190.000
3.81500 182.000
3.83000 185.000
3.84500 183.000
3.86000 184.000
3.87500 166.000
3.89000 176.000
3.90500 201.000
3.92000 165.000
3.93500 163.000
3.95000 167.000
3.96500 191.000
3.98000 187.000
3.99500 178.000
4.01000 188.000
4.02500 180.000
4.04000 187.000
4.05500 166.000
4.07000 149.000
4.08500 167.000
4.10000 193.000
4.11500 188.000
4.13000 174.000
4.14500 168.000
4.16000 164.000
4.17500 164.000
4.19000 175.000
4.20500 172.000
4.22000 199.000
4.23500 198.000
4.25000 174.000
4.26500 173.000
4.28000 171.000
4.29500 179.000
4.31000 174.000
4.32500 178.000
4.34000 178.000
4.35500 164.000
4.37000 180.000
4.38500 191.000
4.40000 188.000
4.41500 185.000
4.43000 206.000
4.44500 188.000
4.46000 193.000
4.47500 197.000
4.49000 184.000
4.50500 178.000
4.52000 173.000
4.53500 172.000
4.55000 164.000
4.56500 190.000
4.58000 187.000
4.59500 177.000
4.61000 191.000
4.62500 166.000
4.64000 173.000
4.65500 176.000
4.67000 184.000
4.68500 179.000
4.70000 188.000
4.71500 174.000
4.73000 180.000
4.74500 184.000
4.76000 166.000
4.77500 166.000
4.79000 191.000
4.80500 191.000
4.82000 198.000
4.83500 190.000
4.85000 200.000
4.86500 178.000
4.88000 190.000
4.89500 177.000
4.91000 186.000
4.92500 167.000
4.94000 168.000
4.95500 164.000
4.97000 185.000
4.98500 176.000
5.00000 186.000
5.01500 174.000
5.03000 152.000
5.04500 186.000
5.06000 164.000
5.07500 193.000
5.09000 180.000
5.10500 175.000
5.12000 185.000
5.13500 175.000
5.15000 189.000
5.16500 186.000
5.18000 172.000
5.19500 180.000
5.21000 175.000
5.22500 183.000
5.24000 182.000
5.25500 181.000
5.27000 177.000
5.28500 186.000
5.30000 203.000
5.31500 178.000
5.33000 155.000
5.34500 163.000
5.36000 189.000
5.37500 203.000
5.39000 171.000
5.40500 183.000
5.42000 195.000
5.43500 187.000
5.45000 191.000
5.46500 198.000
5.48000 171.000
5.49500 196.000
5.51000 191.000
5.52500 162.000
5.54000 158.000
5.55500 171.000
5.57000 181.000
5.58500 210.000
5.60000 171.000
5.61500 171.000
5.63000 170.000
5.64500 179.000
5.66000 196.000
5.67500 186.000
5.69000 191.000
5.70500 174.000
5.72000 193.000
5.73500 195.000
5.75000 173.000
5.76500 178.000
5.78000 175.000
5.79500 190.000
5.81000 207.000
5.82500 188.000
5.84000 169.000
5.85500 180.000
5.87000 178.000
5.88500 194.000
5.90000 196.000
5.91500 182.000
5.93000 164.000
5.94500 190.000
5.96000 203.000
5.97500 183.000
5.99000 177.000
6.00500 189.000
6.02000 183.000
6.03500 174.000
6.05000 195.000
6.06500 184.000
6.08000 162.000
6.09500 166.000
6.11000 176.000
6.12500 191.000
6.14000 183.000
6.15500 185.000
6.17000 177.000
6.18500 182.000
6.20000 178.000
6.21500 166.000
6.23000 176.000
6.24500 168.000
6.26000 179.000
6.27500 182.000
6.29000 172.000
6.30500 198.000
6.32000 172.000
6.33500 179.000
6.35000 177.000
6.36500 182.000
6.38000 180.000
6.39500 170.000
6.41000 175.000
6.42500 190.000
6.44000 182.000
6.45500 184.000
6.47000 171.000
6.48500 177.000
6.50000 176.000
6.51500 166.000
6.53000 166.000
6.54500 165.000
6.56000 188.000
6.57500 200.000
6.59000 190.000
6.60500 176.000
6.62000 171.000
6.63500 175.000
6.65000 181.000
6.66500 184.000
6.68000 170.000
6.69500 174.000
6.71000 175.000
6.72500 179.000
6.74000 189.000
6.75500 188.000
6.77000 176.000
6.78500 170.000
6.80000 161.000
6.81500 168.000
6.83000 178.000
6.84500 174.000
6.86000 161.000
6.87500 158.000
6.89000 169.000
6.90500 186.000
6.92000 168.000
6.93500 178.000
6.95000 174.000
6.96500 167.000
6.98000 190.000
6.99500 180.000
7.01000 183.000
7.02500 179.000
7.04000 182.000
7.05500 163.000
7.07000 165.000
7.08500 165.000
7.10000 176.000
7.11500 179.000
7.13000 172.000
7.14500 172.000
7.16000 179.000
7.17500 172.000
7.19000 163.000
7.20500 168.000
7.22000 175.000
7.23500 182.000
7.25000 161.000
7.26500 171.000
7.28000 181.000
7.29500 182.000
7.31000 176.000
7.32500 190.000
7.34000 173.000
7.35500 175.000
7.37000 181.000
7.38500 168.000
7.40000 184.000
7.41500 162.000
7.43000 175.000
7.44500 156.000
7.46000 193.000
7.47500 188.000
7.49000 182.000
7.50500 187.000
7.52000 180.000
7.53500 160.000
7.55000 164.000
7.56500 175.000
7.58000 173.000
7.59500 192.000
7.61000 178.000
7.62500 157.000
7.64000 165.000
7.65500 176.000
7.67000 187.000
7.68500 205.000
7.70000 167.000
7.71500 169.000
7.73000 179.000
7.74500 180.000
7.76000 185.000
7.77500 176.000
7.79000 172.000
7.80500 174.000
7.82000 171.000
7.83500 181.000
7.85000 194.000
7.86500 177.000
7.88000 184.000
7.89500 181.000
7.91000 176.000
7.92500 165.000
7.94000 163.000
7.95500 169.000
7.97000 167.000
7.98500 184.000
8.00000 182.000
8.01500 169.000
8.03000 157.000
8.04500 163.000
8.06000 197.000
8.07500 175.000
8.09000 182.000
8.10500 188.000
8.12000 174.000
8.13500 162.000
8.15000 177.000
8.16500 171.000
8.18000 163.000
8.19500 186.000
8.21000 209.000
8.22500 194.000
8.24000 179.000
8.25500 169.000
8.27000 183.000
8.28500 167.000
8.30000 161.000
8.31500 163.000
8.33000 151.000
8.34500 185.000
8.36000 162.000
8.37500 174.000
8.39000 158.000
8.40500 151.000
8.42000 159.000
8.43500 188.000
8.45000 170.000
8.46500 180.000
8.48000 165.000
8.49500 158.000
8.51000 169.000
8.52500 142.000
8.54000 167.000
8.55500 170.000
8.57000 168.000
8.58500 169.000
8.60000 170.000
8.61500 154.000
8.63000 170.000
8.64500 173.000
8.66000 175.000
8.67500 205.000
8.69000 180.000
8.70500 189.000
8.72000 185.000
8.73500 187.000
8.75000 190.000
8.76500 184.000
8.78000 176.000
8.79500 174.000
8.81000 184.000
8.82500 172.000
8.84000 164.000
8.85500 193.000
8.87000 169.000
8.88500 174.000
8.90000 200.000
8.91500 189.000
8.93000 159.000
8.94500 177.000
8.96000 185.000
8.97500 178.000
8.99000 164.000
9.00500 170.000
9.02000 158.000
9.03500 153.000
9.05000 173.000
9.06500 185.000
9.08000 177.000
9.09500 191.000
9.11000 164.000
9.12500 168.000
9.14000 184.000
9.15500 182.000
9.17000 169.000
9.18500 170.000
9.20000 183.000
9.21500 173.000
9.23000 196.000
9.24500 188.000
9.26000 173.000
9.27500 174.000
9.29000 184.000
9.30500 190.000
9.32000 190.000
9.33500 176.000
9.35000 158.000
9.36500 156.000
9.38000 184.000
9.39500 163.000
9.41000 178.000
9.42500 169.000
9.44000 169.000
9.45500 178.000
9.47000 176.000
9.48500 184.000
9.50000 158.000
9.51500 158.000
9.53000 188.000
9.54500 162.000
9.56000 159.000
9.57500 177.000
9.59000 178.000
9.60500 186.000
9.62000 188.000
9.63500 157.000
9.65000 170.000
9.66500 175.000
9.68000 191.000
9.69500 181.000
9.71000 177.000
9.72500 164.000
9.74000 171.000
9.75500 175.000
9.77000 168.000
9.78500 167.000
9.80000 174.000
9.81500 170.000
9.83000 180.000
9.84500 185.000
9.86000 161.000
9.87500 175.000
9.89000 178.000
9.90500 174.000
9.92000 175.000
9.93500 172.000
9.95000 177.000
9.96500 174.000
9.98000 178.000
9.99500 172.000
10.01000 179.000
10.02500 186.000
10.04000 193.000
10.05500 188.000
10.07000 186.000
10.08500 179.000
10.10000 157.000
10.11500 159.000
10.13000 159.000
10.14500 155.000
10.16000 181.000
10.17500 182.000
10.19000 189.000
10.20500 173.000
10.22000 175.000
10.23500 163.000
10.25000 165.000
10.26500 158.000
10.28000 158.000
10.29500 182.000
10.31000 165.000
10.32500 193.000
10.34000 179.000
10.35500 173.000
10.37000 172.000
10.38500 174.000
10.40000 176.000
10.41500 168.000
10.43000 174.000
10.44500 179.000
10.46000 176.000
10.47500 184.000
10.49000 172.000
10.50500 167.000
10.52000 172.000
10.53500 180.000
10.55000 161.000
10.56500 175.000
10.58000 174.000
10.59500 157.000
10.61000 162.000
10.62500 176.000
10.64000 179.000
10.65500 172.000
10.67000 167.000
10.68500 182.000
10.70000 184.000
10.71500 173.000
10.73000 180.000
10.74500 159.000
10.76000 157.000
10.77500 181.000
10.79000 189.000
10.80500 180.000
10.82000 168.000
10.83500 170.000
10.85000 175.000
10.86500 193.000
10.88000 188.000
10.89500 168.000
10.91000 167.000
10.92500 175.000
10.94000 184.000
10.95500 175.000
10.97000 181.000
10.98500 188.000
11.00000 161.000
11.01500 184.000
11.03000 180.000
11.04500 184.000
11.06000 179.000
11.07500 179.000
11.09000 187.000
11.10500 196.000
11.12000 171.000
11.13500 177.000
11.15000 185.000
11.16500 177.000
11.18000 190.000
11.19500 175.000
11.21000 181.000
11.22500 176.000
11.24000 196.000
11.25500 181.000
11.27000 176.000
11.28500 177.000
11.30000 177.000
11.31500 187.000
11.33000 177.000
11.34500 168.000
11.36000 158.000
11.37500 166.000
11.39000 166.000
11.40500 188.000
11.42000 171.000
11.43500 159.000
11.45000 160.000
11.46500 167.000
11.48000 174.000
11.49500 180.000
11.51000 198.000
11.52500 203.000
11.54000 169.000
11.55500 168.000
11.57000 183.000
11.58500 197.000
11.60000 202.000
11.61500 190.000
11.63000 173.000
11.64500 165.000
11.66000 162.000
11.67500 186.000
11.69000 188.000
11.70500 182.000
11.72000 189.000
11.73500 195.000
11.75000 204.000
11.76500 223.000
11.78000 224.000
11.79500 229.000
11.81000 242.000
11.82500 275.000
11.84000 296.000
11.85500 338.000
11.87000 367.000
11.88500 419.000
11.90000 469.000
11.91500 560.000
11.93000 659.000
11.94500 840.000
11.96000 1013.000
11.97500 1233.000
11.99000 1390.000
12.00500 1451.000
12.02000 1346.000
12.03500 1151.000
12.05000 1025.000
12.06500 967.000
12.08000 968.000
12.09500 905.000
12.11000 823.000
12.12500 697.000
12.14000 549.000
12.15500 407.000
12.17000 347.000
12.18500 314.000
12.20000 289.000
12.21500 274.000
12.23000 255.000
12.24500 262.000
12.26000 226.000
12.27500 228.000
12.29000 232.000
12.30500 226.000
12.32000 235.000
12.33500 222.000
12.35000 224.000
12.36500 234.000
12.38000 227.000
12.39500 214.000
12.41000 202.000
12.42500 223.000
12.44000 247.000
12.45500 227.000
12.47000 212.000
12.48500 211.000
12.50000 208.000
12.51500 209.000
12.53000 211.000
12.54500 218.000
12.56000 204.000
12.57500 204.000
12.59000 213.000
12.60500 217.000
12.62000 201.000
12.63500 202.000
12.65000 203.000
12.66500 204.000
12.68000 216.000
12.69500 215.000
12.71000 204.000
12.72500 194.000
12.74000 209.000
12.75500 208.000
12.77000 172.000
12.78500 209.000
12.80000 212.000
12.81500 202.000
12.83000 183.000
12.84500 178.000
12.86000 202.000
12.87500 203.000
12.89000 195.000
12.90500 189.000
12.92000 207.000
12.93500 193.000
12.95000 197.000
12.96500 179.000
12.98000 173.000
12.99500 191.000
13.01000 192.000
13.02500 195.000
13.04000 196.000
13.05500 202.000
13.07000 197.000
13.08500 187.000
13.10000 200.000
13.11500 187.000
13.13000 181.000
13.14500 182.000
13.16000 183.000
13.17500 195.000
13.19000 181.000
13.20500 193.000
13.22000 201.000
13.23500 215.000
13.25000 174.000
13.26500 171.000
13.28000 196.000
13.29500 198.000
13.31000 190.000
13.32500 201.000
13.34000 188.000
13.35500 199.000
13.37000 196.000
13.38500 183.000
13.40000 183.000
13.41500 162.000
13.43000 177.000
13.44500 177.000
13.46000 180.000
13.47500 211.000
13.49000 197.000
13.50500 195.000
13.52000 179.000
13.53500 191.000
13.55000 182.000
13.56500 180.000
13.58000 178.000
13.59500 177.000
13.61000 185.000
13.62500 200.000
13.64000 194.000
13.65500 200.000
13.67000 177.000
13.68500 198.000
13.70000 191.000
13.71500 188.000
13.73000 181.000
13.74500 173.000
13.76000 183.000
13.77500 179.000
13.79000 194.000
13.80500 198.000
13.82000 187.000
13.83500 194.000
13.85000 202.000
13.86500 178.000
13.88000 207.000
13.89500 191.000
13.91000 181.000
13.92500 171.000
13.94000 177.000
13.95500 191.000
13.97000 196.000
13.98500 183.000
14.00000 184.000
14.01500 181.000
14.03000 184.000
14.04500 183.000
14.06000 180.000
14.07500 170.000
14.09000 179.000
14.10500 184.000
14.12000 196.000
14.13500 193.000
14.15000 205.000
14.16500 211.000
14.18000 194.000
14.19500 172.000
14.21000 211.000
14.22500 205.000
14.24000 185.000
14.25500 186.000
14.27000 190.000
14.28500 187.000
14.30000 171.000
14.31500 191.000
14.33000 203.000
14.34500 184.000
14.36000 160.000
14.37500 169.000
14.39000 180.000
14.40500 170.000
14.42000 174.000
14.43500 174.000
14.45000 180.000
14.46500 171.000
14.48000 187.000
14.49500 188.000
14.51000 192.000
14.52500 182.000
14.54000 171.000
14.55500 178.000
14.57000 176.000
14.58500 177.000
14.60000 202.000
14.61500 201.000
14.63000 220.000
14.64500 184.000
14.66000 170.000
14.67500 179.000
14.69000 203.000
14.70500 184.000
14.72000 184.000
14.73500 168.000
14.75000 179.000
14.76500 188.000
14.78000 204.000
14.79500 185.000
14.81000 185.000
14.82500 197.000
14.84000 195.000
14.85500 199.000
14.87000 181.000
14.88500 182.000
14.90000 171.000
14.91500 181.000
14.93000 177.000
14.94500 190.000
14.96000 187.000
14.97500 182.000
14.99000 201.000
15.00500 178.000
15.02000 172.000
15.03500 176.000
15.05000 181.000
15.06500 188.000
15.08000 196.000
15.09500 203.000
15.11000 185.000
15.12500 189.000
15.14000 177.000
15.15500 175.000
15.17000 175.000
15.18500 194.000
15.20000 188.000
15.21500 187.000
15.23000 206.000
15.24500 188.000
15.26000 174.000
15.27500 199.000
15.29000 191.000
15.30500 178.000
15.32000 195.000
15.33500 206.000
15.35000 197.000
15.36500 195.000
15.38000 200.000
15.39500 206.000
15.41000 200.000
15.42500 201.000
15.44000 191.000
15.45500 197.000
15.47000 189.000
15.48500 178.000
15.50000 193.000
15.51500 199.000
15.53000 204.000
15.54500 208.000
15.56000 202.000
15.57500 199.000
15.59000 203.000
15.60500 203.000
15.62000 195.000
15.63500 195.000
15.65000 192.000
15.66500 196.000
15.68000 186.000
15.69500 207.000
15.71000 213.000
15.72500 215.000
15.74000 200.000
15.75500 187.000
15.77000 175.000
15.78500 184.000
15.80000 207.000
15.81500 206.000
15.83000 181.000
15.84500 175.000
15.86000 179.000
15.87500 177.000
15.89000 195.000
15.90500 204.000
15.92000 190.000
15.93500 193.000
15.95000 204.000
15.96500 185.000
15.98000 199.000
15.99500 192.000
16.01000 203.000
16.02500 182.000
16.04000 183.000
16.05500 185.000
16.07000 196.000
16.08500 183.000
16.10000 184.000
16.11500 198.000
16.13000 202.000
16.14500 202.000
16.16000 209.000
16.17500 198.000
16.19000 196.000
16.20500 219.000
16.22000 210.000
16.23500 188.000
16.25000 188.000
16.26500 196.000
16.28000 181.000
16.29500 204.000
16.31000 194.000
16.32500 191.000
16.34000 189.000
16.35500 198.000
16.37000 191.000
16.38500 203.000
16.40000 208.000
16.41500 188.000
16.43000 210.000
16.44500 191.000
16.46000 215.000
16.47500 210.000
16.49000 194.000
16.50500 191.000
16.52000 201.000
16.53500 197.000
16.55000 213.000
16.56500 196.000
16.58000 192.000
16.59500 174.000
16.61000 205.000
16.62500 202.000
16.64000 189.000
16.65500 206.000
16.67000 178.000
16.68500 184.000
16.70000 213.000
16.71500 213.000
16.73000 185.000
16.74500 192.000
16.76000 196.000
16.77500 196.000
16.79000 212.000
16.80500 214.000
16.82000 204.000
16.83500 207.000
16.85000 193.000
16.86500 198.000
16.88000 216.000
16.89500 210.000
16.91000 220.000
16.92500 218.000
16.94000 219.000
16.95500 237.000
16.97000 198.000
16.98500 183.000
17.00000 186.000
17.01500 217.000
17.03000 230.000
17.04500 223.000
17.06000 211.000
17.07500 213.000
17.09000 215.000
17.10500 214.000
17.12000 216.000
17.13500 185.000
17.15000 196.000
17.16500 216.000
17.18000 215.000
17.19500 222.000
17.21000 209.000
17.22500 212.000
17.24000 223.000
17.25500 213.000
17.27000 216.000
17.28500 208.000
17.30000 221.000
17.31500 212.000
17.33000 226.000
17.34500 225.000
17.36000 218.000
17.37500 234.000
17.39000 216.000
17.40500 205.000
17.42000 220.000
17.43500 234.000
17.45000 208.000
17.46500 236.000
17.48000 208.000
17.49500 215.000
17.51000 216.000
17.52500 224.000
17.54000 228.000
17.55500 232.000
17.57000 220.000
17.58500 228.000
17.60000 241.000
17.61500 214.000
17.63000 224.000
17.64500 228.000
17.66000 247.000
17.67500 226.000
17.69000 242.000
17.70500 265.000
17.72000 258.000
17.73500 263.000
17.75000 248.000
17.76500 283.000
17.78000 273.000
17.79500 272.000
17.81000 299.000
17.82500 276.000
17.84000 288.000
17.85500 304.000
17.87000 309.000
17.88500 297.000
17.90000 327.000
17.91500 322.000
17.93000 332.000
17.94500 336.000
17.96000 353.000
17.97500 342.000
17.99000 349.000
18.00500 369.000
18.02000 340.000
18.03500 361.000
18.05000 347.000
18.06500 336.000
18.08000 321.000
18.09500 328.000
18.11000 320.000
18.12500 321.000
18.14000 300.000
18.15500 273.000
18.17000 288.000
18.18500 300.000
18.20000 275.000
18.21500 304.000
18.23000 281.000
18.24500 252.000
18.26000 271.000
18.27500 267.000
18.29000 270.000
18.30500 276.000
18.32000 262.000
18.33500 262.000
18.35000 260.000
18.36500 252.000
18.38000 260.000
18.39500 262.000
18.41000 242.000
18.42500 238.000
18.44000 247.000
18.45500 233.000
18.47000 245.000
18.48500 243.000
18.50000 219.000
18.51500 246.000
18.53000 227.000
18.54500 208.000
18.56000 245.000
18.57500 224.000
18.59000 257.000
18.60500 215.000
18.62000 242.000
18.63500 229.000
18.65000 216.000
18.66500 222.000
18.68000 224.000
18.69500 226.000
18.71000 216.000
18.72500 211.000
18.74000 214.000
18.75500 207.000
18.77000 244.000
18.78500 237.000
18.80000 230.000
18.81500 222.000
18.83000 229.000
18.84500 229.000
18.86000 232.000
18.87500 240.000
18.89000 234.000
18.90500 218.000
18.92000 226.000
18.93500 219.000
18.95000 214.000
18.96500 236.000
18.98000 236.000
18.99500 266.000
19.01000 248.000
19.02500 227.000
19.04000 227.000
19.05500 214.000
19.07000 217.000
19.08500 216.000
19.10000 218.000
19.11500 230.000
19.13000 209.000
19.14500 239.000
19.16000 254.000
19.17500 223.000
19.19000 209.000
19.20500 206.000
19.22000 218.000
19.23500 224.000
19.25000 216.000
19.26500 225.000
19.28000 238.000
19.29500 218.000
19.31000 206.000
19.32500 203.000
19.34000 241.000
19.35500 225.000
19.37000 215.000
19.38500 215.000
19.40000 211.000
19.41500 202.000
19.43000 221.000
19.44500 219.000
19.46000 233.000
19.47500 239.000
19.49000 230.000
19.50500 248.000
19.52000 238.000
19.53500 236.000
19.55000 232.000
19.56500 208.000
19.58000 207.000
19.59500 245.000
19.61000 210.000
19.62500 202.000
19.64000 225.000
19.65500 233.000
19.67000 210.000
19.68500 226.000
19.70000 232.000
19.71500 217.000
19.73000 232.000
19.74500 220.000
19.76000 222.000
19.77500 218.000
19.79000 235.000
19.80500 218.000
19.82000 220.000
19.83500 222.000
19.85000 242.000
19.86500 247.000
19.88000 225.000
19.89500 247.000
19.91000 250.000
19.92500 242.000
19.94000 232.000
19.95500 246.000
19.97000 232.000
19.98500 223.000
20.00000 226.000
20.01500 216.000
20.03000 247.000
20.04500 234.000
20.06000 242.000
20.07500 271.000
20.09000 246.000
20.10500 237.000
20.12000 245.000
20.13500 242.000
20.15000 240.000
20.16500 253.000
20.18000 215.000
20.19500 245.000
20.21000 252.000
20.22500 240.000
20.24000 241.000
20.25500 237.000
20.27000 246.000
20.28500 240.000
20.30000 252.000
20.31500 240.000
20.33000 243.000
20.34500 222.000
20.36000 241.000
20.37500 270.000
20.39000 266.000
20.40500 262.000
20.42000 252.000
20.43500 254.000
20.45000 251.000
20.46500 240.000
20.48000 246.000
20.49500 249.000
20.51000 263.000
20.52500 248.000
20.54000 260.000
20.55500 268.000
20.57000 265.000
20.58500 271.000
20.60000 276.000
20.61500 262.000
20.63000 268.000
20.64500 275.000
20.66000 303.000
20.67500 312.000
20.69000 304.000
20.70500 312.000
20.72000 376.000
20.73500 372.000
20.75000 452.000
20.76500 507.000
20.78000 483.000
20.79500 554.000
20.81000 530.000
20.82500 538.000
20.84000 532.000
20.85500 486.000
20.87000 505.000
20.88500 464.000
20.90000 478.000
20.91500 455.000
20.93000 462.000
20.94500 459.000
20.96000 408.000
20.97500 390.000
20.99000 377.000
21.00500 351.000
21.02000 320.000
21.03500 334.000
21.05000 312.000
21.06500 309.000
21.08000 292.000
21.09500 315.000
21.11000 312.000
21.12500 288.000
21.14000 296.000
21.15500 306.000
21.17000 286.000
21.18500 271.000
21.20000 285.000
21.21500 284.000
21.23000 265.000
21.24500 235.000
21.26000 258.000
21.27500 286.000
21.29000 301.000
21.30500 279.000
21.32000 278.000
21.33500 262.000
21.35000 263.000
21.36500 264.000
21.38000 256.000
21.39500 235.000
21.41000 278.000
21.42500 277.000
21.44000 260.000
21.45500 283.000
21.47000 293.000
21.48500 264.000
21.50000 250.000
21.51500 282.000
21.53000 274.000
21.54500 246.000
21.56000 258.000
21.57500 259.000
21.59000 286.000
21.60500 267.000
21.62000 250.000
21.63500 266.000
21.65000 252.000
21.66500 257.000
21.68000 267.000
21.69500 282.000
21.71000 274.000
21.72500 273.000
21.74000 267.000
21.75500 278.000
21.77000 249.000
21.78500 245.000
21.80000 261.000
21.81500 269.000
21.83000 266.000
21.84500 289.000
21.86000 286.000
21.87500 271.000
21.89000 249.000
21.90500 268.000
21.92000 274.000
21.93500 280.000
21.95000 244.000
21.96500 253.000
21.98000 292.000
21.99500 253.000
22.01000 252.000
22.02500 266.000
22.04000 284.000
22.05500 270.000
22.07000 265.000
22.08500 268.000
22.10000 269.000
22.11500 260.000
22.13000 272.000
22.14500 261.000
22.16000 263.000
22.17500 285.000
22.19000 243.000
22.20500 252.000
22.22000 275.000
22.23500 270.000
22.25000 275.000
22.26500 288.000
22.28000 271.000
22.29500 268.000
22.31000 266.000
22.32500 262.000
22.34000 259.000
22.35500 275.000
22.37000 270.000
22.38500 265.000
22.40000 288.000
22.41500 249.000
22.43000 256.000
22.44500 270.000
22.46000 274.000
22.47500 298.000
22.49000 256.000
22.50500 270.000
22.52000 279.000
22.53500 259.000
22.55000 240.000
22.56500 276.000
22.58000 278.000
22.59500 278.000
22.61000 271.000
22.62500 277.000
22.64000 269.000
22.65500 296.000
22.67000 258.000
22.68500 268.000
22.70000 275.000
22.71500 283.000
22.73000 288.000
22.74500 278.000
22.76000 267.000
22.77500 270.000
22.79000 282.000
22.80500 298.000
22.82000 284.000
22.83500 276.000
22.85000 288.000
22.86500 268.000
22.88000 270.000
22.89500 280.000
22.91000 284.000
22.92500 275.000
22.94000 278.000
22.95500 289.000
22.97000 274.000
22.98500 268.000
23.00000 257.000
23.01500 283.000
23.03000 285.000
23.04500 303.000
23.06000 287.000
23.07500 261.000
23.09000 260.000
23.10500 275.000
23.12000 278.000
23.13500 289.000
23.15000 270.000
23.16500 279.000
23.18000 272.000
23.19500 258.000
23.21000 299.000
23.22500 294.000
23.24000 298.000
23.25500 272.000
23.27000 279.000
23.28500 303.000
23.30000 288.000
23.31500 288.000
23.33000 292.000
23.34500 278.000
23.36000 257.000
23.37500 297.000
23.39000 283.000
23.40500 276.000
23.42000 287.000
23.43500 281.000
23.45000 275.000
23.46500 301.000
23.48000 289.000
23.49500 295.000
23.51000 269.000
23.52500 276.000
23.54000 291.000
23.55500 286.000
23.57000 283.000
23.58500 281.000
23.60000 280.000
23.61500 288.000
23.63000 274.000
23.64500 280.000
23.66000 298.000
23.67500 299.000
23.69000 297.000
23.70500 288.000
23.72000 274.000
23.73500 284.000
23.75000 264.000
23.76500 289.000
23.78000 294.000
23.79500 301.000
23.81000 275.000
23.82500 282.000
23.84000 267.000
23.85500 296.000
23.87000 300.000
23.88500 306.000
23.90000 282.000
23.91500 288.000
23.93000 295.000
23.94500 267.000
23.96000 288.000
23.97500 291.000
23.99000 296.000
24.00500 275.000
24.02000 294.000
24.03500 302.000
24.05000 281.000
24.06500 325.000
24.08000 318.000
24.09500 346.000
24.11000 343.000
24.12500 373.000
24.14000 389.000
24.15500 367.000
24.17000 360.000
24.18500 355.000
24.20000 384.000
24.21500 389.000
24.23000 356.000
24.24500 344.000
24.26000 400.000
24.27500 405.000
24.29000 411.000
24.30500 386.000
24.32000 391.000
24.33500 375.000
24.35000 382.000
24.36500 369.000
24.38000 367.000
24.39500 341.000
24.41000 345.000
24.42500 321.000
24.44000 341.000
24.45500 355.000
24.47000 316.000
24.48500 348.000
24.50000 329.000
24.51500 308.000
24.53000 343.000
24.54500 355.000
24.56000 331.000
24.57500 337.000
24.59000 331.000
24.60500 345.000
24.62000 346.000
24.63500 392.000
24.65000 413.000
24.66500 406.000
24.68000 405.000
24.69500 392.000
24.71000 402.000
24.72500 409.000
24.74000 442.000
24.75500 451.000
24.77000 427.000
24.78500 457.000
24.80000 446.000
24.81500 445.000
24.83000 462.000
24.84500 469.000
24.86000 461.000
24.87500 475.000
24.89000 518.000
24.90500 487.000
24.92000 500.000
24.93500 499.000
24.95000 511.000
24.96500 472.000
24.98000 474.000
24.99500 483.000
25.01000 474.000
25.02500 476.000
25.04000 459.000
25.05500 475.000
25.07000 449.000
25.08500 455.000
25.10000 417.000
25.11500 411.000
25.13000 421.000
25.14500 413.000
25.16000 400.000
25.17500 357.000
25.19000 358.000
25.20500 358.000
25.22000 355.000
25.23500 343.000
25.25000 357.000
25.26500 387.000
25.28000 358.000
25.29500 348.000
25.31000 354.000
25.32500 349.000
25.34000 334.000
25.35500 334.000
25.37000 335.000
25.38500 337.000
25.40000 307.000
25.41500 296.000
25.43000 314.000
25.44500 320.000
25.46000 302.000
25.47500 347.000
25.49000 328.000
25.50500 311.000
25.52000 343.000
25.53500 344.000
25.55000 310.000
25.56500 327.000
25.58000 308.000
25.59500 322.000
25.61000 312.000
25.62500 323.000
25.64000 315.000
25.65500 285.000
25.67000 288.000
25.68500 324.000
25.70000 332.000
25.71500 317.000
25.73000 319.000
25.74500 299.000
25.76000 309.000
25.77500 279.000
25.79000 296.000
25.80500 324.000
25.82000 315.000
25.83500 327.000
25.85000 306.000
25.86500 328.000
25.88000 309.000
25.89500 332.000
25.91000 353.000
25.92500 311.000
25.94000 330.000
25.95500 352.000
25.97000 311.000
25.98500 330.000
26.00000 340.000
26.01500 337.000
26.03000 355.000
26.04500 319.000
26.06000 306.000
26.07500 338.000
26.09000 333.000
26.10500 298.000
26.12000 306.000
26.13500 325.000
26.15000 330.000
26.16500 350.000
26.18000 339.000
26.19500 317.000
26.21000 350.000
26.22500 337.000
26.24000 321.000
26.25500 339.000
26.27000 339.000
26.28500 323.000
26.30000 319.000
26.31500 327.000
26.33000 346.000
26.34500 314.000
26.36000 325.000
26.37500 341.000
26.39000 370.000
26.40500 344.000
26.42000 341.000
26.43500 353.000
26.45000 357.000
26.46500 367.000
26.48000 372.000
26.49500 377.000
26.51000 371.000
26.52500 371.000
26.54000 397.000
26.55500 364.000
26.57000 402.000
26.58500 435.000
26.60000 418.000
26.61500 423.000
26.63000 441.000
26.64500 442.000
26.66000 422.000
26.67500 417.000
26.69000 451.000
26.70500 486.000
26.72000 446.000
26.73500 483.000
26.75000 478.000
26.76500 538.000
26.78000 520.000
26.79500 534.000
26.81000 563.000
26.82500 541.000
26.84000 557.000
26.85500 685.000
26.87000 680.000
26.88500 701.000
26.90000 710.000
26.91500 752.000
26.93000 778.000
26.94500 797.000
26.96000 869.000
26.97500 839.000
26.99000 870.000
27.00500 888.000
27.02000 887.000
27.03500 985.000
27.05000 941.000
27.06500 922.000
27.08000 858.000
27.09500 865.000
27.11000 900.000
27.12500 823.000
27.14000 803.000
27.15500 756.000
27.17000 770.000
27.18500 736.000
27.20000 712.000
27.21500 717.000
27.23000 682.000
27.24500 677.000
27.26000 689.000
27.27500 644.000
27.29000 657.000
27.30500 624.000
27.32000 614.000
27.33500 652.000
27.35000 659.000
27.36500 609.000
27.38000 625.000
27.39500 652.000
27.41000 627.000
27.42500 665.000
27.44000 703.000
27.45500 694.000
27.47000 708.000
27.48500 742.000
27.50000 710.000
27.51500 731.000
27.53000 797.000
27.54500 810.000
27.56000 843.000
27.57500 858.000
27.59000 862.000
27.60500 875.000
27.62000 890.000
27.63500 994.000
27.65000 995.000
27.66500 955.000
27.68000 1025.000
27.69500 1002.000
27.71000 1016.000
27.72500 1015.000
27.74000 977.000
27.75500 955.000
27.77000 960.000
27.78500 938.000
27.80000 915.000
27.81500 905.000
27.83000 773.000
27.84500 790.000
27.86000 808.000
27.87500 743.000
27.89000 758.000
27.90500 709.000
27.92000 659.000
27.93500 642.000
27.95000 649.000
27.96500 581.000
27.98000 594.000
27.99500 580.000
28.01000 549.000
28.02500 537.000
28.04000 536.000
28.05500 524.000
28.07000 510.000
28.08500 473.000
28.10000 483.000
28.11500 455.000
28.13000 413.000
28.14500 439.000
28.16000 426.000
28.17500 441.000
28.19000 404.000
28.20500 408.000
28.22000 401.000
28.23500 396.000
28.25000 406.000
28.26500 391.000
28.28000 387.000
28.29500 386.000
28.31000 357.000
28.32500 380.000
28.34000 383.000
28.35500 390.000
28.37000 378.000
28.38500 379.000
28.40000 341.000
28.41500 360.000
28.43000 340.000
28.44500 350.000
28.46000 353.000
28.47500 367.000
28.49000 352.000
28.50500 320.000
28.52000 325.000
28.53500 341.000
28.55000 327.000
28.56500 327.000
28.58000 340.000
28.59500 320.000
28.61000 326.000
28.62500 297.000
28.64000 324.000
28.65500 348.000
28.67000 334.000
28.68500 312.000
28.70000 309.000
28.71500 332.000
28.73000 313.000
28.74500 293.000
28.76000 307.000
28.77500 327.000
28.79000 307.000
28.80500 316.000
28.82000 300.000
28.83500 306.000
28.85000 288.000
28.86500 316.000
28.88000 334.000
28.89500 314.000
28.91000 313.000
28.92500 321.000
28.94000 315.000
28.95500 303.000
28.97000 304.000
28.98500 300.000
29.00000 290.000
29.01500 317.000
29.03000 310.000
29.04500 318.000
29.06000 328.000
29.07500 311.000
29.09000 311.000
29.10500 280.000
29.12000 328.000
29.13500 326.000
29.15000 324.000
29.16500 326.000
29.18000 308.000
29.19500 331.000
29.21000 310.000
29.22500 307.000
29.24000 315.000
29.25500 329.000
29.27000 304.000
29.28500 320.000
29.30000 335.000
29.31500 341.000
29.33000 345.000
29.34500 339.000
29.36000 321.000
29.37500 326.000
29.39000 342.000
29.40500 327.000
29.42000 353.000
29.43500 370.000
29.45000 380.000
29.46500 358.000
29.48000 369.000
29.49500 388.000
29.51000 405.000
29.52500 396.000
29.54000 389.000
29.55500 394.000
29.57000 406.000
29.58500 402.000
29.60000 418.000
29.61500 389.000
29.63000 402.000
29.64500 410.000
29.66000 437.000
29.67500 443.000
29.69000 434.000
29.70500 383.000
29.72000 398.000
29.73500 386.000
29.75000 401.000
29.76500 377.000
29.78000 369.000
29.79500 366.000
29.81000 353.000
29.82500 342.000
29.84000 349.000
29.85500 358.000
29.87000 304.000
29.88500 319.000
29.90000 329.000
29.91500 353.000
29.93000 328.000
29.94500 314.000
29.96000 311.000
29.97500 290.000
29.99000 301.000
30.00500 285.000
30.02000 292.000
30.03500 306.000
30.05000 288.000
30.06500 269.000
30.08000 282.000
30.09500 264.000
30.11000 254.000
30.12500 277.000
30.14000 263.000
30.15500 258.000
30.17000 225.000
30.18500 239.000
30.20000 238.000
30.21500 232.000
30.23000 254.000
30.24500 243.000
30.26000 236.000
30.27500 262.000
30.29000 229.000
30.30500 251.000
30.32000 228.000
30.33500 213.000
30.35000 224.000
30.36500 231.000
30.38000 237.000
30.39500 214.000
30.41000 229.000
30.42500 224.000
30.44000 252.000
30.45500 225.000
30.47000 231.000
30.48500 247.000
30.50000 217.000
30.51500 221.000
30.53000 239.000
30.54500 227.000
30.56000 227.000
30.57500 233.000
30.59000 248.000
30.60500 234.000
30.62000 218.000
30.63500 225.000
30.65000 224.000
30.66500 218.000
30.68000 238.000
30.69500 222.000
30.71000 211.000
30.72500 239.000
30.74000 227.000
30.75500 219.000
30.77000 220.000
30.78500 230.000
30.80000 223.000
30.81500 214.000
30.83000 211.000
30.84500 216.000
30.86000 215.000
30.87500 210.000
30.89000 236.000
30.90500 215.000
30.92000 212.000
30.93500 218.000
30.95000 223.000
30.96500 211.000
30.98000 223.000
30.99500 230.000
31.01000 215.000
31.02500 205.000
31.04000 198.000
31.05500 229.000
31.07000 209.000
31.08500 223.000
31.10000 205.000
31.11500 218.000
31.13000 218.000
31.14500 207.000
31.16000 225.000
31.17500 198.000
31.19000 212.000
31.20500 203.000
31.22000 209.000
31.23500 209.000
31.25000 211.000
31.26500 215.000
31.28000 202.000
31.29500 205.000
31.31000 215.000
31.32500 208.000
31.34000 213.000
31.35500 197.000
31.37000 200.000
31.38500 188.000
31.40000 199.000
31.41500 220.000
31.43000 213.000
31.44500 204.000
31.46000 193.000
31.47500 206.000
31.49000 218.000
31.50500 199.000
31.52000 218.000
31.53500 198.000
31.55000 200.000
31.56500 220.000
31.58000 200.000
31.59500 193.000
31.61000 184.000
31.62500 217.000
31.64000 212.000
31.65500 219.000
31.67000 230.000
31.68500 209.000
31.70000 189.000
31.71500 199.000
31.73000 221.000
31.74500 227.000
31.76000 186.000
31.77500 184.000
31.79000 199.000
31.80500 224.000
31.82000 213.000
31.83500 221.000
31.85000 206.000
31.86500 242.000
31.88000 224.000
31.89500 225.000
31.91000 249.000
31.92500 240.000
31.94000 260.000
31.95500 301.000
31.97000 306.000
31.98500 329.000
32.00000 340.000
32.01500 314.000
32.03000 334.000
32.04500 330.000
32.06000 312.000
32.07500 314.000
32.09000 343.000
32.10500 346.000
32.12000 323.000
32.13500 352.000
32.15000 354.000
32.16500 367.000
32.18000 358.000
32.19500 352.000
32.21000 356.000
32.22500 344.000
32.24000 361.000
32.25500 337.000
32.27000 330.000
32.28500 293.000
32.30000 288.000
32.31500 311.000
32.33000 282.000
32.34500 289.000
32.36000 291.000
32.37500 271.000
32.39000 252.000
32.40500 246.000
32.42000 230.000
32.43500 219.000
32.45000 221.000
32.46500 199.000
32.48000 213.000
32.49500 215.000
32.51000 195.000
32.52500 212.000
32.54000 201.000
32.55500 203.000
32.57000 201.000
32.58500 197.000
32.60000 213.000
32.61500 213.000
32.63000 199.000
32.64500 219.000
32.66000 192.000
32.67500 195.000
32.69000 201.000
32.70500 178.000
32.72000 200.000
32.73500 198.000
32.75000 203.000
32.76500 198.000
32.78000 196.000
32.79500 196.000
32.81000 188.000
32.82500 191.000
32.84000 209.000
32.85500 176.000
32.87000 182.000
32.88500 174.000
32.90000 182.000
32.91500 198.000
32.93000 194.000
32.94500 183.000
32.96000 187.000
32.97500 192.000
32.99000 202.000
33.00500 204.000
33.02000 193.000
33.03500 179.000
33.05000 190.000
33.06500 182.000
33.08000 192.000
33.09500 158.000
33.11000 172.000
33.12500 183.000
33.14000 179.000
33.15500 197.000
33.17000 168.000
33.18500 183.000
33.20000 180.000
33.21500 182.000
33.23000 184.000
33.24500 192.000
33.26000 198.000
33.27500 193.000
33.29000 171.000
33.30500 167.000
33.32000 171.000
33.33500 172.000
33.35000 195.000
33.36500 180.000
33.38000 180.000
33.39500 176.000
33.41000 201.000
33.42500 187.000
33.44000 180.000
33.45500 176.000
33.47000 179.000
33.48500 195.000
33.50000 194.000
33.51500 189.000
33.53000 193.000
33.54500 187.000
33.56000 198.000
33.57500 158.000
33.59000 177.000
33.60500 171.000
33.62000 177.000
33.63500 176.000
33.65000 177.000
33.66500 156.000
33.68000 197.000
33.69500 170.000
33.71000 172.000
33.72500 173.000
33.74000 183.000
33.75500 169.000
33.77000 181.000
33.78500 174.000
33.80000 183.000
33.81500 178.000
33.83000 165.000
33.84500 153.000
33.86000 173.000
33.87500 164.000
33.89000 171.000
33.90500 155.000
33.92000 175.000
33.93500 182.000
33.95000 196.000
33.96500 166.000
33.98000 164.000
33.99500 168.000
34.01000 195.000
34.02500 171.000
34.04000 166.000
34.05500 168.000
34.07000 163.000
34.08500 163.000
34.10000 177.000
34.11500 186.000
34.13000 196.000
34.14500 183.000
34.16000 176.000
34.17500 172.000
34.19000 153.000
34.20500 162.000
34.22000 167.000
34.23500 176.000
34.25000 174.000
34.26500 185.000
34.28000 177.000
34.29500 158.000
34.31000 174.000
34.32500 186.000
34.34000 205.000
34.35500 188.000
34.37000 164.000
34.38500 167.000
34.40000 187.000
34.41500 161.000
34.43000 179.000
34.44500 194.000
34.46000 166.000
34.47500 185.000
34.49000 166.000
34.50500 153.000
34.52000 176.000
34.53500 173.000
34.55000 166.000
34.56500 169.000
34.58000 168.000
34.59500 170.000
34.61000 197.000
34.62500 213.000
34.64000 198.000
34.65500 179.000
34.67000 169.000
34.68500 189.000
34.70000 181.000
34.71500 201.000
34.73000 186.000
34.74500 187.000
34.76000 197.000
34.77500 197.000
34.79000 203.000
34.80500 189.000
34.82000 192.000
34.83500 190.000
34.85000 186.000
34.86500 201.000
34.88000 191.000
34.89500 183.000
34.91000 196.000
34.92500 192.000
34.94000 205.000
34.95500 201.000
34.97000 208.000
34.98500 225.000
35.00000 213.000
35.01500 205.000
35.03000 204.000
35.04500 213.000
35.06000 209.000
35.07500 210.000
35.09000 189.000
35.10500 181.000
35.12000 183.000
35.13500 176.000
35.15000 197.000
35.16500 200.000
35.18000 181.000
35.19500 192.000
35.21000 194.000
35.22500 176.000
35.24000 175.000
35.25500 175.000
35.27000 173.000
35.28500 165.000
35.30000 185.000
35.31500 169.000
35.33000 162.000
35.34500 159.000
35.36000 171.000
35.37500 154.000
35.39000 154.000
35.40500 160.000
35.42000 159.000
35.43500 162.000
35.45000 157.000
35.46500 158.000
35.48000 165.000
35.49500 149.000
35.51000 162.000
35.52500 144.000
35.54000 169.000
35.55500 175.000
35.57000 168.000
35.58500 165.000
35.60000 138.000
35.61500 155.000
35.63000 152.000
35.64500 153.000
35.66000 162.000
35.67500 164.000
35.69000 178.000
35.70500 144.000
35.72000 158.000
35.73500 148.000
35.75000 156.000
35.76500 156.000
35.78000 148.000
35.79500 148.000
35.81000 156.000
35.82500 165.000
35.84000 179.000
35.85500 157.000
35.87000 153.000
35.88500 165.000
35.90000 154.000
35.91500 156.000
35.93000 150.000
35.94500 128.000
35.96000 143.000
35.97500 159.000
35.99000 149.000
36.00500 149.000
36.02000 154.000
36.03500 148.000
36.05000 139.000
36.06500 137.000
36.08000 148.000
36.09500 156.000
36.11000 147.000
36.12500 132.000
36.14000 139.000
36.15500 133.000
36.17000 142.000
36.18500 136.000
36.20000 155.000
36.21500 155.000
36.23000 126.000
36.24500 134.000
36.26000 148.000
36.27500 144.000
36.29000 165.000
36.30500 148.000
36.32000 156.000
36.33500 151.000
36.35000 137.000
36.36500 153.000
36.38000 164.000
36.39500 160.000
36.41000 136.000
36.42500 147.000
36.44000 140.000
36.45500 150.000
36.47000 156.000
36.48500 160.000
36.50000 136.000
36.51500 146.000
36.53000 137.000
36.54500 142.000
36.56000 147.000
36.57500 144.000
36.59000 162.000
36.60500 155.000
36.62000 144.000
36.63500 126.000
36.65000 141.000
36.66500 150.000
36.68000 158.000
36.69500 136.000
36.71000 157.000
36.72500 150.000
36.74000 145.000
36.75500 135.000
36.77000 161.000
36.78500 158.000
36.80000 137.000
36.81500 141.000
36.83000 140.000
36.84500 143.000
36.86000 142.000
36.87500 141.000
36.89000 137.000
36.90500 161.000
36.92000 141.000
36.93500 143.000
36.95000 134.000
36.96500 133.000
36.98000 126.000
36.99500 136.000
37.01000 131.000
37.02500 127.000
37.04000 142.000
37.05500 137.000
37.07000 127.000
37.08500 123.000
37.10000 122.000
37.11500 128.000
37.13000 128.000
37.14500 138.000
37.16000 123.000
37.17500 127.000
37.19000 139.000
37.20500 133.000
37.22000 124.000
37.23500 130.000
37.25000 128.000
37.26500 145.000
37.28000 137.000
37.29500 139.000
37.31000 138.000
37.32500 137.000
37.34000 141.000
37.35500 141.000
37.37000 137.000
37.38500 147.000
37.40000 128.000
37.41500 127.000
37.43000 119.000
37.44500 126.000
37.46000 132.000
37.47500 134.000
37.49000 131.000
37.50500 146.000
37.52000 133.000
37.53500 132.000
37.55000 132.000
37.56500 128.000
37.58000 144.000
37.59500 145.000
37.61000 146.000
37.62500 152.000
37.64000 124.000
37.65500 129.000
37.67000 133.000
37.68500 129.000
37.70000 127.000
37.71500 125.000
37.73000 139.000
37.74500 128.000
37.76000 143.000
37.77500 145.000
37.79000 123.000
37.80500 128.000
37.82000 115.000
37.83500 135.000
37.85000 117.000
37.86500 131.000
37.88000 138.000
37.89500 149.000
37.91000 124.000
37.92500 126.000
37.94000 124.000
37.95500 118.000
37.97000 144.000
37.98500 152.000
38.00000 133.000
38.01500 107.000
38.03000 131.000
38.04500 121.000
38.06000 136.000
38.07500 142.000
38.09000 136.000
38.10500 130.000
38.12000 131.000
38.13500 127.000
38.15000 128.000
38.16500 127.000
38.18000 130.000
38.19500 135.000
38.21000 119.000
38.22500 143.000
38.24000 127.000
38.25500 131.000
38.27000 130.000
38.28500 128.000
38.30000 138.000
38.31500 122.000
38.33000 129.000
38.34500 130.000
38.36000 117.000
38.37500 134.000
38.39000 138.000
38.40500 131.000
38.42000 128.000
38.43500 126.000
38.45000 127.000
38.46500 147.000
38.48000 130.000
38.49500 145.000
38.51000 132.000
38.52500 132.000
38.54000 128.000
38.55500 138.000
38.57000 126.000
38.58500 150.000
38.60000 125.000
38.61500 131.000
38.63000 120.000
38.64500 118.000
38.66000 138.000
38.67500 119.000
38.69000 129.000
38.70500 134.000
38.72000 138.000
38.73500 128.000
38.75000 117.000
38.76500 127.000
38.78000 120.000
38.79500 124.000
38.81000 114.000
38.82500 125.000
38.84000 136.000
38.85500 129.000
38.87000 129.000
38.88500 129.000
38.90000 120.000
38.91500 130.000
38.93000 144.000
38.94500 136.000
38.96000 129.000
38.97500 131.000
38.99000 126.000
39.00500 126.000
39.02000 128.000
39.03500 121.000
39.05000 151.000
39.06500 135.000
39.08000 141.000
39.09500 147.000
39.11000 149.000
39.12500 129.000
39.14000 141.000
39.15500 137.000
39.17000 137.000
39.18500 136.000
39.20000 133.000
39.21500 113.000
39.23000 122.000
39.24500 140.000
39.26000 129.000
39.27500 121.000
39.29000 130.000
39.30500 138.000
39.32000 155.000
39.33500 137.000
39.35000 137.000
39.36500 136.000
39.38000 146.000
39.39500 158.000
39.41000 127.000
39.42500 136.000
39.44000 138.000
39.45500 142.000
39.47000 149.000
39.48500 149.000
39.50000 139.000
39.51500 142.000
39.53000 156.000
39.54500 158.000
39.56000 159.000
39.57500 135.000
39.59000 139.000
39.60500 165.000
39.62000 164.000
39.63500 152.000
39.65000 155.000
39.66500 158.000
39.68000 170.000
39.69500 171.000
39.71000 144.000
39.72500 154.000
39.74000 175.000
39.75500 181.000
39.77000 191.000
39.78500 166.000
39.80000 150.000
39.81500 165.000
39.83000 143.000
39.84500 176.000
39.86000 174.000
39.87500 157.000
39.89000 166.000
39.90500 163.000
39.92000 136.000
39.93500 137.000
39.95000 146.000
39.96500 136.000
39.98000 139.000
39.99500 130.000
40.01000 155.000
40.02500 151.000
40.04000 146.000
40.05500 142.000
40.07000 130.000
40.08500 150.000
40.10000 129.000
40.11500 135.000
40.13000 120.000
40.14500 136.000
40.16000 118.000
40.17500 130.000
40.19000 114.000
40.20500 113.000
40.22000 138.000
40.23500 130.000
40.25000 128.000
40.26500 108.000
40.28000 131.000
40.29500 120.000
40.31000 122.000
40.32500 124.000
40.34000 120.000
40.35500 116.000
40.37000 127.000
40.38500 105.000
40.40000 105.000
40.41500 116.000
40.43000 129.000
40.44500 121.000
40.46000 119.000
40.47500 123.000
40.49000 130.000
40.50500 104.000
40.52000 137.000
40.53500 137.000
40.55000 129.000
40.56500 126.000
40.58000 110.000
40.59500 127.000
40.61000 123.000
40.62500 126.000
40.64000 107.000
40.65500 119.000
40.67000 119.000
40.68500 126.000
40.70000 127.000
40.71500 126.000
40.73000 126.000
40.74500 130.000
40.76000 122.000
40.77500 128.000
40.79000 131.000
40.80500 127.000
40.82000 120.000
40.83500 120.000
40.85000 131.000
40.86500 111.000
40.88000 123.000
40.89500 123.000
40.91000 124.000
40.92500 129.000
40.94000 126.000
40.95500 127.000
40.97000 128.000
40.98500 121.000
41.00000 128.000
41.01500 122.000
41.03000 113.000
41.04500 126.000
41.06000 124.000
41.07500 133.000
41.09000 126.000
41.10500 121.000
41.12000 118.000
41.13500 115.000
41.15000 136.000
41.16500 134.000
41.18000 126.000
41.19500 115.000
41.21000 115.000
41.22500 129.000
41.24000 135.000
41.25500 132.000
41.27000 127.000
41.28500 130.000
41.30000 122.000
41.31500 123.000
41.33000 122.000
41.34500 130.000
41.36000 135.000
41.37500 126.000
41.39000 117.000
41.40500 123.000
41.42000 127.000
41.43500 132.000
41.45000 120.000
41.46500 135.000
41.48000 109.000
41.49500 121.000
41.51000 135.000
41.52500 130.000
41.54000 125.000
41.55500 133.000
41.57000 135.000
41.58500 126.000
41.60000 112.000
41.61500 121.000
41.63000 141.000
41.64500 139.000
41.66000 136.000
41.67500 117.000
41.69000 127.000
41.70500 119.000
41.72000 124.000
41.73500 124.000
41.75000 129.000
41.76500 130.000
41.78000 128.000
41.79500 144.000
41.81000 130.000
41.82500 122.000
41.84000 118.000
41.85500 137.000
41.87000 129.000
41.88500 125.000
41.90000 135.000
41.91500 135.000
41.93000 131.000
41.94500 124.000
41.96000 122.000
41.97500 135.000
41.99000 127.000
42.00500 128.000
42.02000 144.000
42.03500 138.000
42.05000 130.000
42.06500 146.000
42.08000 131.000
42.09500 125.000
42.11000 146.000
42.12500 144.000
42.14000 139.000
42.15500 138.000
42.17000 141.000
42.18500 139.000
42.20000 147.000
42.21500 178.000
42.23000 166.000
42.24500 169.000
42.26000 174.000
42.27500 177.000
42.29000 175.000
42.30500 178.000
42.32000 163.000
42.33500 148.000
42.35000 172.000
42.36500 173.000
42.38000 168.000
42.39500 154.000
42.41000 159.000
42.42500 157.000
42.44000 161.000
42.45500 161.000
42.47000 166.000
42.48500 151.000
42.50000 148.000
42.51500 165.000
42.53000 169.000
42.54500 174.000
42.56000 181.000
42.57500 167.000
42.59000 180.000
42.60500 170.000
42.62000 181.000
42.63500 179.000
42.65000 191.000
42.66500 178.000
42.68000 190.000
42.69500 174.000
42.71000 192.000
42.72500 168.000
42.74000 172.000
42.75500 159.000
42.77000 166.000
42.78500 145.000
42.80000 145.000
42.81500 150.000
42.83000 141.000
42.84500 136.000
42.86000 133.000
42.87500 155.000
42.89000 162.000
42.90500 138.000
42.92000 146.000
42.93500 153.000
42.95000 146.000
42.96500 139.000
42.98000 141.000
42.99500 118.000
43.01000 139.000
43.02500 133.000
43.04000 138.000
43.05500 137.000
43.07000 130.000
43.08500 144.000
43.10000 136.000
43.11500 136.000
43.13000 130.000
43.14500 136.000
43.16000 140.000
43.17500 129.000
43.19000 115.000
43.20500 136.000
43.22000 137.000
43.23500 145.000
43.25000 148.000
43.26500 139.000
43.28000 132.000
43.29500 128.000
43.31000 118.000
43.32500 139.000
43.34000 120.000
43.35500 125.000
43.37000 141.000
43.38500 139.000
43.40000 137.000
43.41500 135.000
43.43000 124.000
43.44500 114.000
43.46000 119.000
43.47500 125.000
43.49000 119.000
43.50500 142.000
43.52000 129.000
43.53500 135.000
43.55000 129.000
43.56500 123.000
43.58000 131.000
43.59500 124.000
43.61000 141.000
43.62500 145.000
43.64000 138.000
43.65500 132.000
43.67000 139.000
43.68500 143.000
43.70000 135.000
43.71500 127.000
43.73000 126.000
43.74500 123.000
43.76000 127.000
43.77500 113.000
43.79000 144.000
43.80500 135.000
43.82000 122.000
43.83500 125.000
43.85000 141.000
43.86500 150.000
43.88000 144.000
43.89500 148.000
43.91000 137.000
43.92500 147.000
43.94000 140.000
43.95500 145.000
43.97000 142.000
43.98500 135.000
44.00000 131.000
44.01500 150.000
44.03000 149.000
44.04500 151.000
44.06000 149.000
44.07500 148.000
44.09000 150.000
44.10500 139.000
44.12000 137.000
44.13500 156.000
44.15000 146.000
44.16500 154.000
44.18000 167.000
44.19500 157.000
44.21000 148.000
44.22500 171.000
44.24000 186.000
44.25500 183.000
44.27000 194.000
44.28500 186.000
44.30000 190.000
44.31500 204.000
44.33000 222.000
44.34500 234.000
44.36000 219.000
44.37500 221.000
44.39000 233.000
44.40500 223.000
44.42000 207.000
44.43500 218.000
44.45000 222.000
44.46500 191.000
44.48000 201.000
44.49500 239.000
44.51000 218.000
44.52500 192.000
44.54000 207.000
44.55500 230.000
44.57000 232.000
44.58500 222.000
44.60000 213.000
44.61500 222.000
44.63000 219.000
44.64500 223.000
44.66000 230.000
44.67500 240.000
44.69000 201.000
44.70500 226.000
44.72000 229.000
44.73500 217.000
44.75000 231.000
44.76500 225.000
44.78000 217.000
44.79500 209.000
44.81000 245.000
44.82500 253.000
44.84000 259.000
44.85500 235.000
44.87000 232.000
44.88500 242.000
44.90000 253.000
44.91500 233.000
44.93000 218.000
44.94500 229.000
44.96000 228.000
44.97500 229.000
44.99000 246.000
45.00500 240.000
45.02000 211.000
45.03500 222.000
45.05000 213.000
45.06500 194.000
45.08000 208.000
45.09500 198.000
45.11000 184.000
45.12500 185.000
45.14000 172.000
45.15500 163.000
45.17000 163.000
45.18500 171.000
45.20000 172.000
45.21500 175.000
45.23000 158.000
45.24500 142.000
45.26000 161.000
45.27500 157.000
45.29000 159.000
45.30500 166.000
45.32000 133.000
45.33500 142.000
45.35000 150.000
45.36500 137.000
45.38000 138.000
45.39500 146.000
45.41000 139.000
45.42500 116.000
45.44000 129.000
45.45500 136.000
45.47000 125.000
45.48500 137.000
45.50000 145.000
45.51500 134.000
45.53000 124.000
45.54500 118.000
45.56000 129.000
45.57500 124.000
45.59000 127.000
45.60500 132.000
45.62000 129.000
45.63500 124.000
45.65000 136.000
45.66500 140.000
45.68000 131.000
45.69500 140.000
45.71000 126.000
45.72500 116.000
45.74000 122.000
45.75500 117.000
45.77000 137.000
45.78500 114.000
45.80000 128.000
45.81500 131.000
45.83000 130.000
45.84500 109.000
45.86000 122.000
45.87500 114.000
45.89000 116.000
45.90500 130.000
45.92000 116.000
45.93500 114.000
45.95000 117.000
45.96500 120.000
45.98000 112.000
45.99500 128.000
46.01000 130.000
46.02500 125.000
46.04000 119.000
46.05500 120.000
46.07000 119.000
46.08500 116.000
46.10000 106.000
46.11500 116.000
46.13000 120.000
46.14500 120.000
46.16000 112.000
46.17500 110.000
46.19000 123.000
46.20500 129.000
46.22000 115.000
46.23500 137.000
46.25000 133.000
46.26500 136.000
46.28000 122.000
46.29500 132.000
46.31000 123.000
46.32500 129.000
46.34000 147.000
46.35500 142.000
46.37000 137.000
46.38500 145.000
46.40000 138.000
46.41500 142.000
46.43000 141.000
46.44500 117.000
46.46000 127.000
46.47500 124.000
46.49000 119.000
46.50500 135.000
46.52000 121.000
46.53500 119.000
46.55000 126.000
46.56500 133.000
46.58000 137.000
46.59500 123.000
46.61000 132.000
46.62500 131.000
46.64000 131.000
46.65500 137.000
46.67000 140.000
46.68500 138.000
46.70000 128.000
46.71500 124.000
46.73000 132.000
46.74500 117.000
46.76000 118.000
46.77500 123.000
46.79000 138.000
46.80500 132.000
46.82000 140.000
46.83500 141.000
46.85000 140.000
46.86500 115.000
46.88000 106.000
46.89500 118.000
46.91000 106.000
46.92500 100.000
46.94000 126.000
46.95500 142.000
46.97000 125.000
46.98500 118.000
47.00000 130.000
47.01500 128.000
47.03000 125.000
47.04500 115.000
47.06000 121.000
47.07500 118.000
47.09000 112.000
47.10500 108.000
47.12000 124.000
47.13500 122.000
47.15000 116.000
47.16500 107.000
47.18000 105.000
47.19500 116.000
47.21000 119.000
47.22500 111.000
47.24000 120.000
47.25500 116.000
47.27000 110.000
47.28500 106.000
47.30000 110.000
47.31500 106.000
47.33000 107.000
47.34500 106.000
47.36000 95.000
47.37500 92.000
47.39000 105.000
47.40500 121.000
47.42000 101.000
47.43500 104.000
47.45000 103.000
47.46500 109.000
47.48000 118.000
47.49500 120.000
47.51000 123.000
47.52500 102.000
47.54000 113.000
47.55500 119.000
47.57000 125.000
47.58500 113.000
47.60000 101.000
47.61500 117.000
47.63000 118.000
47.64500 122.000
47.66000 127.000
47.67500 113.000
47.69000 100.000
47.70500 104.000
47.72000 121.000
47.73500 127.000
47.75000 113.000
47.76500 104.000
47.78000 99.000
47.79500 109.000
47.81000 103.000
47.82500 112.000
47.84000 107.000
47.85500 90.000
47.87000 92.000
47.88500 110.000
47.90000 112.000
47.91500 104.000
47.93000 114.000
47.94500 99.000
47.96000 96.000
47.97500 105.000
47.99000 113.000
48.00500 107.000
48.02000 99.000
48.03500 112.000
48.05000 107.000
48.06500 109.000
48.08000 101.000
48.09500 92.000
48.11000 106.000
48.12500 128.000
48.14000 109.000
48.15500 108.000
48.17000 113.000
48.18500 103.000
48.20000 91.000
48.21500 99.000
48.23000 118.000
48.24500 105.000
48.26000 120.000
48.27500 113.000
48.29000 105.000
48.30500 101.000
48.32000 123.000
48.33500 119.000
48.35000 106.000
48.36500 106.000
48.38000 107.000
48.39500 102.000
48.41000 106.000
48.42500 108.000
48.44000 104.000
48.45500 111.000
48.47000 101.000
48.48500 97.000
48.50000 85.000
48.51500 92.000
48.53000 105.000
48.54500 109.000
48.56000 104.000
48.57500 118.000
48.59000 112.000
48.60500 115.000
48.62000 101.000
48.63500 107.000
48.65000 106.000
48.66500 120.000
48.68000 102.000
48.69500 103.000
48.71000 105.000
48.72500 111.000
48.74000 102.000
48.75500 101.000
48.77000 108.000
48.78500 113.000
48.80000 110.000
48.81500 99.000
48.83000 104.000
48.84500 98.000
48.86000 79.000
48.87500 80.000
48.89000 96.000
48.90500 114.000
48.92000 116.000
48.93500 107.000
48.95000 106.000
48.96500 98.000
48.98000 97.000
48.99500 101.000
49.01000 105.000
49.02500 106.000
49.04000 112.000
49.05500 94.000
49.07000 95.000
49.08500 98.000
49.10000 97.000
49.11500 118.000
49.13000 113.000
49.14500 95.000
49.16000 99.000
49.17500 91.000
49.19000 103.000
49.20500 104.000
49.22000 100.000
49.23500 105.000
49.25000 121.000
49.26500 111.000
49.28000 98.000
49.29500 118.000
49.31000 123.000
49.32500 107.000
49.34000 108.000
49.35500 115.000
49.37000 122.000
49.38500 121.000
49.40000 114.000
49.41500 99.000
49.43000 121.000
49.44500 111.000
49.46000 106.000
49.47500 105.000
49.49000 119.000
49.50500 99.000
49.52000 109.000
49.53500 108.000
49.55000 104.000
49.56500 95.000
49.58000 107.000
49.59500 122.000
49.61000 110.000
49.62500 99.000
49.64000 106.000
49.65500 122.000
49.67000 106.000
49.68500 105.000
49.70000 106.000
49.71500 108.000
49.73000 97.000
49.74500 94.000
49.76000 95.000
49.77500 96.000
49.79000 106.000
49.80500 96.000
49.82000 104.000
49.83500 114.000
49.85000 107.000
49.86500 108.000
49.88000 98.000
49.89500 100.000
49.91000 108.000
49.92500 112.000
49.94000 102.000
49.95500 102.000
49.97000 97.000
49.98500 98.000
50.00000 119.000
50.01500 108.000
50.03000 109.000
50.04500 105.000
50.06000 120.000
50.07500 98.000
50.09000 93.000
50.10500 110.000
50.12000 118.000
50.13500 119.000
50.15000 99.000
50.16500 108.000
50.18000 91.000
50.19500 114.000
50.21000 113.000
50.22500 122.000
50.24000 122.000
50.25500 116.000
50.27000 103.000
50.28500 94.000
50.30000 96.000
50.31500 111.000
50.33000 104.000
50.34500 94.000
50.36000 97.000
50.37500 109.000
50.39000 128.000
50.40500 117.000
50.42000 112.000
50.43500 102.000
50.45000 108.000
50.46500 114.000
50.48000 129.000
50.49500 107.000
50.51000 114.000
50.52500 101.000
50.54000 115.000
50.55500 118.000
50.57000 116.000
50.58500 114.000
50.60000 112.000
50.61500 106.000
50.63000 107.000
50.64500 108.000
50.66000 119.000
50.67500 122.000
50.69000 88.000
50.70500 111.000
50.72000 106.000
50.73500 102.000
50.75000 118.000
50.76500 114.000
50.78000 99.000
50.79500 102.000
50.81000 99.000
50.82500 122.000
50.84000 123.000
50.85500 108.000
50.87000 110.000
50.88500 118.000
50.90000 108.000
50.91500 109.000
50.93000 119.000
50.94500 114.000
50.96000 110.000
50.97500 116.000
50.99000 115.000
51.00500 116.000
51.02000 110.000
51.03500 119.000
51.05000 114.000
51.06500 105.000
51.08000 112.000
51.09500 120.000
51.11000 121.000
51.12500 118.000
51.14000 101.000
51.15500 110.000
51.17000 100.000
51.18500 98.000
51.20000 97.000
51.21500 97.000
51.23000 107.000
51.24500 124.000
51.26000 99.000
51.27500 105.000
51.29000 97.000
51.30500 111.000
51.32000 108.000
51.33500 116.000
51.35000 118.000
51.36500 120.000
51.38000 114.000
51.39500 105.000
51.41000 112.000
51.42500 94.000
51.44000 105.000
51.45500 101.000
51.47000 96.000
51.48500 92.000
51.50000 106.000
51.51500 110.000
51.53000 109.000
51.54500 119.000
51.56000 95.000
51.57500 98.000
51.59000 111.000
51.60500 99.000
51.62000 98.000
51.63500 89.000
51.65000 95.000
51.66500 86.000
51.68000 89.000
51.69500 101.000
51.71000 93.000
51.72500 98.000
51.74000 111.000
51.75500 112.000
51.77000 105.000
51.78500 105.000
51.80000 84.000
51.81500 91.000
51.83000 97.000
51.84500 113.000
51.86000 105.000
51.87500 106.000
51.89000 98.000
51.90500 103.000
51.92000 99.000
51.93500 103.000
51.95000 105.000
51.96500 94.000
51.98000 96.000
51.99500 96.000
52.01000 103.000
52.02500 117.000
52.04000 104.000
52.05500 99.000
52.07000 97.000
52.08500 103.000
52.10000 105.000
52.11500 81.000
52.13000 90.000
52.14500 98.000
52.16000 114.000
52.17500 114.000
52.19000 112.000
52.20500 111.000
52.22000 116.000
52.23500 114.000
52.25000 107.000
52.26500 95.000
52.28000 105.000
52.29500 109.000
52.31000 99.000
52.32500 85.000
52.34000 112.000
52.35500 128.000
52.37000 101.000
52.38500 108.000
52.40000 95.000
52.41500 82.000
52.43000 89.000
52.44500 102.000
52.46000 94.000
52.47500 88.000
52.49000 115.000
52.50500 111.000
52.52000 97.000
52.53500 103.000
52.55000 101.000
52.56500 92.000
52.58000 88.000
52.59500 95.000
52.61000 97.000
52.62500 104.000
52.64000 101.000
52.65500 108.000
52.67000 105.000
52.68500 103.000
52.70000 94.000
52.71500 101.000
52.73000 110.000
52.74500 117.000
52.76000 116.000
52.77500 107.000
52.79000 100.000
52.80500 99.000
52.82000 97.000
52.83500 115.000
52.85000 93.000
52.86500 89.000
52.88000 97.000
52.89500 108.000
52.91000 104.000
52.92500 100.000
52.94000 107.000
52.95500 109.000
52.97000 92.000
52.98500 106.000
53.00000 95.000
53.01500 92.000
53.03000 96.000
53.04500 112.000
53.06000 99.000
53.07500 102.000
53.09000 89.000
53.10500 99.000
53.12000 97.000
53.13500 100.000
53.15000 101.000
53.16500 97.000
53.18000 98.000
53.19500 96.000
53.21000 94.000
53.22500 110.000
53.24000 107.000
53.25500 104.000
53.27000 91.000
53.28500 86.000
53.30000 89.000
53.31500 95.000
53.33000 92.000
53.34500 96.000
53.36000 115.000
53.37500 93.000
53.39000 98.000
53.40500 117.000
53.42000 103.000
53.43500 91.000
53.45000 101.000
53.46500 99.000
53.48000 101.000
53.49500 98.000
53.51000 79.000
53.52500 94.000
53.54000 97.000
53.55500 98.000
53.57000 90.000
53.58500 91.000
53.60000 91.000
53.61500 81.000
53.63000 83.000
53.64500 108.000
53.66000 113.000
53.67500 95.000
53.69000 104.000
53.70500 96.000
53.72000 106.000
53.73500 119.000
53.75000 110.000
53.76500 107.000
53.78000 105.000
53.79500 100.000
53.81000 101.000
53.82500 106.000
53.84000 101.000
53.85500 98.000
53.87000 92.000
53.88500 105.000
53.90000 100.000
53.91500 93.000
53.93000 103.000
53.94500 102.000
53.96000 102.000
53.97500 102.000
53.99000 105.000
54.00500 108.000
54.02000 111.000
54.03500 120.000
54.05000 122.000
54.06500 114.000
54.08000 94.000
54.09500 104.000
54.11000 106.000
54.12500 113.000
54.14000 109.000
54.15500 115.000
54.17000 118.000
54.18500 105.000
54.20000 108.000
54.21500 113.000
54.23000 106.000
54.24500 95.000
54.26000 113.000
54.27500 111.000
54.29000 105.000
54.30500 123.000
54.32000 110.000
54.33500 104.000
54.35000 105.000
54.36500 108.000
54.38000 101.000
54.39500 100.000
54.41000 103.000
54.42500 97.000
54.44000 93.000
54.45500 95.000
54.47000 99.000
54.48500 110.000
54.50000 101.000
54.51500 103.000
54.53000 102.000
54.54500 108.000
54.56000 108.000
54.57500 102.000
54.59000 100.000
54.60500 101.000
54.62000 112.000
54.63500 106.000
54.65000 98.000
54.66500 120.000
54.68000 112.000
54.69500 97.000
54.71000 98.000
54.72500 106.000
54.74000 102.000
54.75500 97.000
54.77000 110.000
54.78500 111.000
54.80000 97.000
54.81500 105.000
54.83000 112.000
54.84500 109.000
54.86000 106.000
54.87500 100.000
54.89000 94.000
54.90500 93.000
54.92000 113.000
54.93500 111.000
54.95000 102.000
54.96500 86.000
54.98000 88.000
54.99500 114.000
55.01000 98.000
55.02500 92.000
55.04000 99.000
55.05500 100.000
55.07000 109.000
55.08500 102.000
55.10000 86.000
55.11500 98.000
55.13000 94.000
55.14500 116.000
55.16000 110.000
55.17500 113.000
55.19000 108.000
55.20500 102.000
55.22000 106.000
55.23500 134.000
55.25000 110.000
55.26500 108.000
55.28000 105.000
55.29500 109.000
55.31000 95.000
55.32500 91.000
55.34000 99.000
55.35500 107.000
55.37000 112.000
55.38500 93.000
55.40000 100.000
55.41500 99.000
55.43000 96.000
55.44500 93.000
55.46000 105.000
55.47500 98.000
55.49000 108.000
55.50500 108.000
55.52000 110.000
55.53500 117.000
55.55000 106.000
55.56500 107.000
55.58000 108.000
55.59500 129.000
55.61000 124.000
55.62500 107.000
55.64000 115.000
55.65500 105.000
55.67000 107.000
55.68500 101.000
55.70000 111.000
55.71500 110.000
55.73000 120.000
55.74500 118.000
55.76000 111.000
55.77500 111.000
55.79000 118.000
55.80500 116.000
55.82000 118.000
55.83500 133.000
55.85000 124.000
55.86500 107.000
55.88000 136.000
55.89500 127.000
55.91000 112.000
55.92500 143.000
55.94000 128.000
55.95500 130.000
55.97000 132.000
55.98500 128.000
56.00000 131.000
56.01500 143.000
56.03000 137.000
56.04500 140.000
56.06000 138.000
56.07500 127.000
56.09000 155.000
56.10500 136.000
56.12000 124.000
56.13500 151.000
56.15000 151.000
56.16500 140.000
56.18000 137.000
56.19500 150.000
56.21000 136.000
56.22500 137.000
56.24000 142.000
56.25500 120.000
56.27000 132.000
56.28500 134.000
56.30000 159.000
56.31500 135.000
56.33000 132.000
56.34500 121.000
56.36000 133.000
56.37500 148.000
56.39000 146.000
56.40500 141.000
56.42000 146.000
56.43500 148.000
56.45000 127.000
56.46500 117.000
56.48000 137.000
56.49500 141.000
56.51000 122.000
56.52500 126.000
56.54000 125.000
56.55500 126.000
56.57000 123.000
56.58500 124.000
56.60000 122.000
56.61500 129.000
56.63000 129.000
56.64500 133.000
56.66000 118.000
56.67500 124.000
56.69000 123.000
56.70500 115.000
56.72000 99.000
56.73500 119.000
56.75000 117.000
56.76500 116.000
56.78000 124.000
56.79500 112.000
56.81000 109.000
56.82500 103.000
56.84000 105.000
56.85500 108.000
56.87000 118.000
56.88500 110.000
56.90000 103.000
56.91500 114.000
56.93000 123.000
56.94500 118.000
56.96000 113.000
56.97500 127.000
56.99000 112.000
57.00500 112.000
57.02000 124.000
57.03500 119.000
57.05000 117.000
57.06500 129.000
57.08000 119.000
57.09500 127.000
57.11000 114.000
57.12500 97.000
57.14000 117.000
57.15500 112.000
57.17000 108.000
57.18500 121.000
57.20000 116.000
57.21500 121.000
57.23000 124.000
57.24500 136.000
57.26000 107.000
57.27500 116.000
57.29000 105.000
57.30500 113.000
57.32000 110.000
57.33500 121.000
57.35000 115.000
57.36500 115.000
57.38000 115.000
57.39500 119.000
57.41000 110.000
57.42500 109.000
57.44000 119.000
57.45500 103.000
57.47000 108.000
57.48500 110.000
57.50000 108.000
57.51500 101.000
57.53000 99.000
57.54500 108.000
57.56000 108.000
57.57500 116.000
57.59000 103.000
57.60500 113.000
57.62000 114.000
57.63500 94.000
57.65000 90.000
57.66500 106.000
57.68000 110.000
57.69500 100.000
57.71000 109.000
57.72500 99.000
57.74000 103.000
57.75500 113.000
57.77000 100.000
57.78500 104.000
57.80000 95.000
57.81500 99.000
57.83000 98.000
57.84500 102.000
57.86000 92.000
57.87500 101.000
57.89000 100.000
57.90500 98.000
57.92000 101.000
57.93500 113.000
57.95000 95.000
57.96500 101.000
57.98000 101.000
57.99500 95.000
58.01000 98.000
58.02500 103.000
58.04000 84.000
58.05500 102.000
58.07000 91.000
58.08500 107.000
58.10000 97.000
58.11500 111.000
58.13000 98.000
58.14500 97.000
58.16000 78.000
58.17500 90.000
58.19000 99.000
58.20500 105.000
58.22000 93.000
58.23500 94.000
58.25000 106.000
58.26500 94.000
58.28000 85.000
58.29500 89.000
58.31000 98.000
58.32500 100.000
58.34000 100.000
58.35500 101.000
58.37000 96.000
58.38500 94.000
58.40000 103.000
58.41500 96.000
58.43000 94.000
58.44500 101.000
58.46000 107.000
58.47500 97.000
58.49000 102.000
58.50500 89.000
58.52000 92.000
58.53500 95.000
58.55000 96.000
58.56500 95.000
58.58000 106.000
58.59500 97.000
58.61000 96.000
58.62500 100.000
58.64000 94.000
58.65500 100.000
58.67000 92.000
58.68500 87.000
58.70000 87.000
58.71500 94.000
58.73000 90.000
58.74500 78.000
58.76000 85.000
58.77500 87.000
58.79000 82.000
58.80500 86.000
58.82000 86.000
58.83500 96.000
58.85000 105.000
58.86500 95.000
58.88000 89.000
58.89500 100.000
58.91000 98.000
58.92500 109.000
58.94000 108.000
58.95500 107.000
58.97000 93.000
58.98500 93.000
59.00000 116.000
59.01500 102.000
59.03000 100.000
59.04500 88.000
59.06000 85.000
59.07500 101.000
59.09000 102.000
59.10500 96.000
59.12000 96.000
59.13500 104.000
59.15000 91.000
59.16500 94.000
59.18000 101.000
59.19500 97.000
59.21000 89.000
59.22500 98.000
59.24000 98.000
59.25500 83.000
59.27000 93.000
59.28500 93.000
59.30000 90.000
59.31500 95.000
59.33000 102.000
59.34500 91.000
59.36000 94.000
59.37500 100.000
59.39000 91.000
59.40500 86.000
59.42000 91.000
59.43500 79.000
59.45000 78.000
59.46500 84.000
59.48000 82.000
59.49500 94.000
59.51000 94.000
59.52500 84.000
59.54000 86.000
59.55500 92.000
59.57000 102.000
59.58500 95.000
59.60000 96.000
59.61500 100.000
59.63000 91.000
59.64500 93.000
59.66000 98.000
59.67500 89.000
59.69000 85.000
59.70500 79.000
59.72000 84.000
59.73500 86.000
59.75000 94.000
59.76500 100.000
59.78000 89.000
59.79500 94.000
59.81000 90.000
59.82500 96.000
59.84000 91.000
59.85500 96.000
59.87000 85.000
59.88500 81.000
59.90000 102.000
59.91500 106.000
59.93000 92.000
59.94500 96.000
59.96000 102.000
59.97500 89.000
59.99000 104.000
60.00500 95.000
60.02000 91.000
60.03500 85.000
60.05000 79.000
60.06500 81.000
60.08000 80.000
60.09500 88.000
60.11000 93.000
60.12500 90.000
60.14000 96.000
60.15500 96.000
60.17000 104.000
60.18500 108.000
60.20000 93.000
60.21500 85.000
60.23000 88.000
60.24500 91.000
60.26000 85.000
60.27500 87.000
60.29000 97.000
60.30500 96.000
60.32000 81.000
60.33500 96.000
60.35000 95.000
60.36500 98.000
60.38000 91.000
60.39500 88.000
60.41000 85.000
60.42500 91.000
60.44000 96.000
60.45500 88.000
60.47000 103.000
60.48500 93.000
60.50000 79.000
60.51500 85.000
60.53000 86.000
60.54500 88.000
60.56000 82.000
60.57500 94.000
60.59000 85.000
60.60500 80.000
60.62000 88.000
60.63500 94.000
60.65000 85.000
60.66500 98.000
60.68000 94.000
60.69500 94.000
60.71000 90.000
60.72500 95.000
60.74000 102.000
60.75500 101.000
60.77000 88.000
60.78500 102.000
60.80000 87.000
60.81500 80.000
60.83000 78.000
60.84500 100.000
60.86000 100.000
60.87500 94.000
60.89000 98.000
60.90500 102.000
60.92000 99.000
60.93500 106.000
60.95000 92.000
60.96500 81.000
60.98000 95.000
60.99500 88.000
61.01000 101.000
61.02500 91.000
61.04000 87.000
61.05500 103.000
61.07000 92.000
61.08500 104.000
61.10000 79.000
61.11500 88.000
61.13000 99.000
61.14500 97.000
61.16000 94.000
61.17500 91.000
61.19000 85.000
61.20500 94.000
61.22000 72.000
61.23500 82.000
61.25000 92.000
61.26500 99.000
61.28000 87.000
61.29500 91.000
61.31000 95.000
61.32500 99.000
61.34000 107.000
61.35500 109.000
61.37000 88.000
61.38500 87.000
61.40000 84.000
61.41500 90.000
61.43000 80.000
61.44500 90.000
61.46000 98.000
61.47500 105.000
61.49000 90.000
61.50500 87.000
61.52000 87.000
61.53500 92.000
61.55000 80.000
61.56500 92.000
61.58000 92.000
61.59500 98.000
61.61000 111.000
61.62500 74.000
61.64000 92.000
61.65500 102.000
61.67000 100.000
61.68500 101.000
61.70000 80.000
61.71500 91.000
61.73000 97.000
61.74500 94.000
61.76000 93.000
61.77500 89.000
61.79000 80.000
61.80500 89.000
61.82000 91.000
61.83500 97.000
61.85000 91.000
61.86500 87.000
61.88000 82.000
61.89500 90.000
61.91000 89.000
61.92500 94.000
61.94000 101.000
61.95500 107.000
61.97000 97.000
61.98500 97.000
