2.00000 9.000
2.01500 9.000
2.03000 9.000
2.04500 14.000
2.06000 10.000
2.07500 7.000
2.09000 12.000
2.10500 13.000
2.12000 10.000
2.13500 12.000
2.15000 17.000
2.16500 13.000
2.18000 5.000
2.19500 6.000
2.21000 9.000
2.22500 9.000
2.24000 13.000
2.25500 12.000
2.27000 11.000
2.28500 11.000
2.30000 11.000
2.31500 14.000
2.33000 12.000
2.34500 10.000
2.36000 14.000
2.37500 9.000
2.39000 10.000
2.40500 15.000
2.42000 12.000
2.43500 9.000
2.45000 7.000
2.46500 4.000
2.48000 4.000
2.49500 6.000
2.51000 8.000
2.52500 12.000
2.54000 10.000
2.55500 8.000
2.57000 9.000
2.58500 13.000
2.60000 4.000
2.61500 7.000
2.63000 9.000
2.64500 10.000
2.66000 9.000
2.67500 8.000
2.69000 9.000
2.70500 10.000
2.72000 10.000
2.73500 7.000
2.75000 10.000
2.76500 9.000
2.78000 9.000
2.79500 7.000
2.81000 9.000
2.82500 10.000
2.84000 6.000
2.85500 9.000
2.87000 13.000
2.88500 11.000
2.90000 12.000
2.91500 14.000
2.93000 10.000
2.94500 10.000
2.96000 8.000
2.97500 11.000
2.99000 9.000
3.00500 10.000
3.02000 16.000
3.03500 21.000
3.05000 27.000
3.06500 34.000
3.08000 55.000
3.09500 92.000
3.11000 161.000
3.12500 240.000
3.14000 318.000
3.15500 452.000
3.17000 583.000
3.18500 713.000
3.20000 789.000
3.21500 894.000
3.23000 991.000
3.24500 993.000
3.26000 1015.000
3.27500 1038.000
3.29000 1008.000
3.30500 1015.000
3.32000 992.000
3.33500 968.000
3.35000 976.000
3.36500 935.000
3.38000 931.000
3.39500 949.000
3.41000 947.000
3.42500 948.000
3.44000 955.000
3.45500 914.000
3.47000 943.000
3.48500 927.000
3.50000 912.000
3.51500 919.000
3.53000 912.000
3.54500 913.000
3.56000 850.000
3.57500 874.000
3.59000 914.000
3.60500 894.000
3.62000 884.000
3.63500 860.000
3.65000 921.000
3.66500 889.000
3.68000 925.000
3.69500 823.000
3.71000 903.000
3.72500 914.000
3.74000 843.000
3.75500 852.000
3.77000 858.000
3.78500 862.000
3.80000 869.000
3.81500 877.000
3.83000 863.000
3.84500 829.000
3.86000 807.000
3.87500 839.000
3.89000 876.000
3.90500 851.000
3.92000 850.000
3.93500 829.000
3.95000 802.000
3.96500 829.000
3.98000 819.000
3.99500 835.000
4.01000 817.000
4.02500 828.000
4.04000 836.000
4.05500 842.000
4.07000 800.000
4.08500 822.000
4.10000 866.000
4.11500 798.000
4.13000 779.000
4.14500 801.000
4.16000 794.000
4.17500 843.000
4.19000 824.000
4.20500 789.000
4.22000 833.000
4.23500 830.000
4.25000 841.000
4.26500 796.000
4.28000 802.000
4.29500 782.000
4.31000 809.000
4.32500 780.000
4.34000 821.000
4.35500 809.000
4.37000 790.000
4.38500 835.000
4.40000 834.000
4.41500 844.000
4.43000 842.000
4.44500 797.000
4.46000 827.000
4.47500 834.000
4.49000 815.000
4.50500 800.000
4.52000 834.000
4.53500 831.000
4.55000 828.000
4.56500 854.000
4.58000 851.000
4.59500 809.000
4.61000 832.000
4.62500 807.000
4.64000 819.000
4.65500 809.000
4.67000 804.000
4.68500 788.000
4.70000 812.000
4.71500 835.000
4.73000 785.000
4.74500 747.000
4.76000 788.000
4.77500 819.000
4.79000 802.000
4.80500 787.000
4.82000 783.000
4.83500 824.000
4.85000 855.000
4.86500 782.000
4.88000 797.000
4.89500 810.000
4.91000 817.000
4.92500 795.000
4.94000 820.000
4.95500 826.000
4.97000 808.000
4.98500 860.000
5.00000 775.000
5.01500 803.000
5.03000 783.000
5.04500 766.000
5.06000 820.000
5.07500 841.000
5.09000 810.000
5.10500 834.000
5.12000 803.000
5.13500 792.000
5.15000 804.000
5.16500 829.000
5.18000 787.000
5.19500 793.000
5.21000 835.000
5.22500 855.000
5.24000 815.000
5.25500 799.000
5.27000 807.000
5.28500 826.000
5.30000 816.000
5.31500 818.000
5.33000 783.000
5.34500 778.000
5.36000 791.000
5.37500 819.000
5.39000 785.000
5.40500 818.000
5.42000 835.000
5.43500 840.000
5.45000 864.000
5.46500 829.000
5.48000 841.000
5.49500 821.000
5.51000 835.000
5.52500 837.000
5.54000 842.000
5.55500 827.000
5.57000 821.000
5.58500 817.000
5.60000 797.000
5.61500 845.000
5.63000 827.000
5.64500 816.000
5.66000 826.000
5.67500 772.000
5.69000 826.000
5.70500 820.000
5.72000 843.000
5.73500 812.000
5.75000 824.000
5.76500 807.000
5.78000 810.000
5.79500 813.000
5.81000 842.000
5.82500 843.000
5.84000 837.000
5.85500 853.000
5.87000 809.000
5.88500 864.000
5.90000 818.000
5.91500 818.000
5.93000 832.000
5.94500 762.000
5.96000 824.000
5.97500 840.000
5.99000 844.000
6.00500 850.000
6.02000 816.000
6.03500 850.000
6.05000 843.000
6.06500 869.000
6.08000 857.000
6.09500 845.000
6.11000 849.000
6.12500 839.000
6.14000 836.000
6.15500 826.000
6.17000 809.000
6.18500 836.000
6.20000 829.000
6.21500 870.000
6.23000 842.000
6.24500 819.000
6.26000 812.000
6.27500 827.000
6.29000 844.000
6.30500 841.000
6.32000 844.000
6.33500 885.000
6.35000 847.000
6.36500 806.000
6.38000 832.000
6.39500 819.000
6.41000 809.000
6.42500 787.000
6.44000 864.000
6.45500 882.000
6.47000 842.000
6.48500 875.000
6.50000 879.000
6.51500 869.000
6.53000 848.000
6.54500 901.000
6.56000 908.000
6.57500 845.000
6.59000 903.000
6.60500 906.000
6.62000 883.000
6.63500 832.000
6.65000 859.000
6.66500 868.000
6.68000 840.000
6.69500 905.000
6.71000 850.000
6.72500 869.000
6.74000 915.000
6.75500 867.000
6.77000 863.000
6.78500 843.000
6.80000 820.000
6.81500 811.000
6.83000 841.000
6.84500 869.000
6.86000 823.000
6.87500 876.000
6.89000 896.000
6.90500 893.000
6.92000 889.000
6.93500 941.000
6.95000 883.000
6.96500 858.000
6.98000 827.000
6.99500 865.000
7.01000 891.000
7.02500 894.000
7.04000 865.000
7.05500 868.000
7.07000 888.000
7.08500 906.000
7.10000 875.000
7.11500 925.000
7.13000 907.000
7.14500 847.000
7.16000 848.000
7.17500 922.000
7.19000 880.000
7.20500 896.000
7.22000 892.000
7.23500 917.000
7.25000 888.000
7.26500 871.000
7.28000 895.000
7.29500 872.000
7.31000 883.000
7.32500 859.000
7.34000 892.000
7.35500 887.000
7.37000 886.000
7.38500 905.000
7.40000 892.000
7.41500 885.000
7.43000 943.000
7.44500 908.000
7.46000 925.000
7.47500 920.000
7.49000 927.000
7.50500 909.000
7.52000 836.000
7.53500 886.000
7.55000 875.000
7.56500 880.000
7.58000 864.000
7.59500 900.000
7.61000 916.000
7.62500 914.000
7.64000 865.000
7.65500 894.000
7.67000 863.000
7.68500 910.000
7.70000 902.000
7.71500 938.000
7.73000 939.000
7.74500 893.000
7.76000 907.000
7.77500 938.000
7.79000 907.000
7.80500 897.000
7.82000 939.000
7.83500 920.000
7.85000 914.000
7.86500 934.000
7.88000 906.000
7.89500 899.000
7.91000 923.000
7.92500 924.000
7.94000 901.000
7.95500 923.000
7.97000 920.000
7.98500 942.000
8.00000 862.000
8.01500 934.000
8.03000 916.000
8.04500 917.000
8.06000 925.000
8.07500 927.000
8.09000 914.000
8.10500 848.000
8.12000 866.000
8.13500 907.000
8.15000 895.000
8.16500 905.000
8.18000 884.000
8.19500 916.000
8.21000 917.000
8.22500 926.000
8.24000 898.000
8.25500 916.000
8.27000 913.000
8.28500 902.000
8.30000 900.000
8.31500 914.000
8.33000 909.000
8.34500 895.000
8.36000 883.000
8.37500 958.000
8.39000 975.000
8.40500 1001.000
8.42000 982.000
8.43500 991.000
8.45000 928.000
8.46500 890.000
8.48000 915.000
8.49500 920.000
8.51000 964.000
8.52500 911.000
8.54000 925.000
8.55500 962.000
8.57000 919.000
8.58500 920.000
8.60000 949.000
8.61500 931.000
8.63000 907.000
8.64500 916.000
8.66000 930.000
8.67500 922.000
8.69000 990.000
8.70500 931.000
8.72000 939.000
8.73500 938.000
8.75000 930.000
8.76500 890.000
8.78000 886.000
8.79500 946.000
8.81000 976.000
8.82500 933.000
8.84000 915.000
8.85500 928.000
8.87000 953.000
8.88500 945.000
8.90000 929.000
8.91500 941.000
8.93000 932.000
8.94500 872.000
8.96000 915.000
8.97500 929.000
8.99000 939.000
9.00500 965.000
9.02000 932.000
9.03500 947.000
9.05000 933.000
9.06500 951.000
9.08000 909.000
9.09500 946.000
9.11000 935.000
9.12500 954.000
9.14000 951.000
9.15500 992.000
9.17000 976.000
9.18500 936.000
9.20000 948.000
9.21500 970.000
9.23000 997.000
9.24500 967.000
9.26000 994.000
9.27500 991.000
9.29000 962.000
9.30500 968.000
9.32000 920.000
9.33500 942.000
9.35000 985.000
9.36500 977.000
9.38000 959.000
9.39500 935.000
9.41000 946.000
9.42500 1014.000
9.44000 991.000
9.45500 984.000
9.47000 958.000
9.48500 979.000
9.50000 950.000
9.51500 990.000
9.53000 951.000
9.54500 975.000
9.56000 980.000
9.57500 935.000
9.59000 962.000
9.60500 981.000
9.62000 979.000
9.63500 964.000
9.65000 1023.000
9.66500 1024.000
9.68000 992.000
9.69500 968.000
9.71000 970.000
9.72500 972.000
9.74000 960.000
9.75500 926.000
9.77000 975.000
9.78500 1027.000
9.80000 979.000
9.81500 943.000
9.83000 1003.000
9.84500 1001.000
9.86000 989.000
9.87500 980.000
9.89000 987.000
9.90500 1040.000
9.92000 1010.000
9.93500 1006.000
9.95000 973.000
9.96500 994.000
9.98000 993.000
9.99500 1074.000
10.01000 1055.000
10.02500 1019.000
10.04000 978.000
10.05500 968.000
10.07000 943.000
10.08500 988.000
10.10000 1028.000
10.11500 1034.000
10.13000 1068.000
10.14500 999.000
10.16000 992.000
10.17500 993.000
10.19000 1043.000
10.20500 1035.000
10.22000 1021.000
10.23500 1041.000
10.25000 1033.000
10.26500 1032.000
10.28000 1009.000
10.29500 1044.000
10.31000 1045.000
10.32500 995.000
10.34000 1034.000
10.35500 1061.000
10.37000 988.000
10.38500 1013.000
10.40000 1030.000
10.41500 1016.000
10.43000 1061.000
10.44500 1047.000
10.46000 1047.000
10.47500 1036.000
10.49000 1034.000
10.50500 1000.000
10.52000 1062.000
10.53500 1085.000
10.55000 1050.000
10.56500 1047.000
10.58000 1038.000
10.59500 1030.000
10.61000 1090.000
10.62500 1115.000
10.64000 1050.000
10.65500 1053.000
10.67000 1089.000
10.68500 1059.000
10.70000 1037.000
10.71500 1051.000
10.73000 1047.000
10.74500 1019.000
10.76000 1088.000
10.77500 1014.000
10.79000 1040.000
10.80500 1031.000
10.82000 1037.000
10.83500 1071.000
10.85000 1038.000
10.86500 993.000
10.88000 1056.000
10.89500 1069.000
10.91000 992.000
10.92500 1023.000
10.94000 1067.000
10.95500 1039.000
10.97000 1069.000
10.98500 1068.000
11.00000 1061.000
11.01500 1068.000
11.03000 1071.000
11.04500 1084.000
11.06000 1084.000
11.07500 1072.000
11.09000 1072.000
11.10500 1081.000
11.12000 1116.000
11.13500 1142.000
11.15000 1096.000
11.16500 1088.000
11.18000 1088.000
11.19500 1159.000
11.21000 1115.000
11.22500 1113.000
11.24000 1050.000
11.25500 1142.000
11.27000 1083.000
11.28500 1086.000
11.30000 1116.000
11.31500 1083.000
11.33000 1084.000
11.34500 1145.000
11.36000 1148.000
11.37500 1150.000
11.39000 1133.000
11.40500 1113.000
11.42000 1111.000
11.43500 1130.000
11.45000 1067.000
11.46500 1115.000
11.48000 1091.000
11.49500 1178.000
11.51000 1162.000
11.52500 1116.000
11.54000 1108.000
11.55500 1170.000
11.57000 1131.000
11.58500 1118.000
11.60000 1147.000
11.61500 1110.000
11.63000 1150.000
11.64500 1125.000
11.66000 1072.000
11.67500 1117.000
11.69000 1118.000
11.70500 1134.000
11.72000 1154.000
11.73500 1136.000
11.75000 1129.000
11.76500 1169.000
11.78000 1164.000
11.79500 1162.000
11.81000 1179.000
11.82500 1197.000
11.84000 1183.000
11.85500 1176.000
11.87000 1172.000
11.88500 1228.000
11.90000 1197.000
11.91500 1167.000
11.93000 1179.000
11.94500 1205.000
11.96000 1171.000
11.97500 1227.000
11.99000 1236.000
12.00500 1251.000
12.02000 1247.000
12.03500 1274.000
12.05000 1210.000
12.06500 1196.000
12.08000 1195.000
12.09500 1166.000
12.11000 1190.000
12.12500 1231.000
12.14000 1199.000
12.15500 1235.000
12.17000 1275.000
12.18500 1268.000
12.20000 1279.000
12.21500 1323.000
12.23000 1280.000
12.24500 1262.000
12.26000 1275.000
12.27500 1329.000
12.29000 1262.000
12.30500 1310.000
12.32000 1361.000
12.33500 1314.000
12.35000 1316.000
12.36500 1337.000
12.38000 1361.000
12.39500 1356.000
12.41000 1398.000
12.42500 1393.000
12.44000 1425.000
12.45500 1373.000
12.47000 1380.000
12.48500 1436.000
12.50000 1445.000
12.51500 1422.000
12.53000 1413.000
12.54500 1508.000
12.56000 1491.000
12.57500 1439.000
12.59000 1591.000
12.60500 1525.000
12.62000 1510.000
12.63500 1518.000
12.65000 1558.000
12.66500 1513.000
12.68000 1534.000
12.69500 1597.000
12.71000 1593.000
12.72500 1540.000
12.74000 1625.000
12.75500 1601.000
12.77000 1597.000
12.78500 1585.000
12.80000 1586.000
12.81500 1537.000
12.83000 1564.000
12.84500 1633.000
12.86000 1588.000
12.87500 1618.000
12.89000 1693.000
12.90500 1617.000
12.92000 1652.000
12.93500 1641.000
12.95000 1637.000
12.96500 1594.000
12.98000 1583.000
12.99500 1631.000
13.01000 1628.000
13.02500 1624.000
13.04000 1669.000
13.05500 1605.000
13.07000 1682.000
13.08500 1684.000
13.10000 1622.000
13.11500 1611.000
13.13000 1607.000
13.14500 1661.000
13.16000 1641.000
13.17500 1653.000
13.19000 1653.000
13.20500 1694.000
13.22000 1677.000
13.23500 1669.000
13.25000 1665.000
13.26500 1684.000
13.28000 1602.000
13.29500 1612.000
13.31000 1622.000
13.32500 1696.000
13.34000 1698.000
13.35500 1729.000
13.37000 1643.000
13.38500 1659.000
13.40000 1655.000
13.41500 1644.000
13.43000 1609.000
13.44500 1624.000
13.46000 1568.000
13.47500 1617.000
13.49000 1625.000
13.50500 1605.000
13.52000 1562.000
13.53500 1578.000
13.55000 1557.000
13.56500 1625.000
13.58000 1604.000
13.59500 1605.000
13.61000 1580.000
13.62500 1525.000
13.64000 1536.000
13.65500 1584.000
13.67000 1621.000
13.68500 1587.000
13.70000 1559.000
13.71500 1588.000
13.73000 1541.000
13.74500 1540.000
13.76000 1606.000
13.77500 1625.000
13.79000 1593.000
13.80500 1550.000
13.82000 1589.000
13.83500 1511.000
13.85000 1525.000
13.86500 1505.000
13.88000 1527.000
13.89500 1582.000
13.91000 1516.000
13.92500 1460.000
13.94000 1537.000
13.95500 1495.000
13.97000 1490.000
13.98500 1480.000
14.00000 1540.000
14.01500 1532.000
14.03000 1535.000
14.04500 1565.000
14.06000 1553.000
14.07500 1486.000
14.09000 1545.000
14.10500 1499.000
14.12000 1490.000
14.13500 1510.000
14.15000 1502.000
14.16500 1557.000
14.18000 1566.000
14.19500 1521.000
14.21000 1524.000
14.22500 1551.000
14.24000 1452.000
14.25500 1470.000
14.27000 1429.000
14.28500 1470.000
14.30000 1429.000
14.31500 1460.000
14.33000 1473.000
14.34500 1509.000
14.36000 1439.000
14.37500 1432.000
14.39000 1467.000
14.40500 1433.000
14.42000 1478.000
14.43500 1500.000
14.45000 1474.000
14.46500 1525.000
14.48000 1465.000
14.49500 1462.000
14.51000 1513.000
14.52500 1476.000
14.54000 1441.000
14.55500 1417.000
14.57000 1457.000
14.58500 1496.000
14.60000 1491.000
14.61500 1409.000
14.63000 1382.000
14.64500 1420.000
14.66000 1436.000
14.67500 1426.000
14.69000 1482.000
14.70500 1429.000
14.72000 1449.000
14.73500 1416.000
14.75000 1450.000
14.76500 1446.000
14.78000 1427.000
14.79500 1411.000
14.81000 1441.000
14.82500 1435.000
14.84000 1447.000
14.85500 1371.000
14.87000 1381.000
14.88500 1436.000
14.90000 1423.000
14.91500 1392.000
14.93000 1410.000
14.94500 1375.000
14.96000 1382.000
14.97500 1404.000
14.99000 1430.000
15.00500 1437.000
15.02000 1444.000
15.03500 1389.000
15.05000 1355.000
15.06500 1385.000
15.08000 1447.000
15.09500 1388.000
15.11000 1399.000
15.12500 1395.000
15.14000 1340.000
15.15500 1410.000
15.17000 1376.000
15.18500 1349.000
15.20000 1375.000
15.21500 1439.000
15.23000 1405.000
15.24500 1374.000
15.26000 1400.000
15.27500 1423.000
15.29000 1354.000
15.30500 1362.000
15.32000 1419.000
15.33500 1407.000
15.35000 1403.000
15.36500 1355.000
15.38000 1375.000
15.39500 1421.000
15.41000 1353.000
15.42500 1337.000
15.44000 1461.000
15.45500 1443.000
15.47000 1357.000
15.48500 1364.000
15.50000 1399.000
15.51500 1404.000
15.53000 1392.000
15.54500 1398.000
15.56000 1364.000
15.57500 1335.000
15.59000 1424.000
15.60500 1424.000
15.62000 1361.000
15.63500 1317.000
15.65000 1385.000
15.66500 1405.000
15.68000 1351.000
15.69500 1381.000
15.71000 1333.000
15.72500 1357.000
15.74000 1362.000
15.75500 1332.000
15.77000 1358.000
15.78500 1381.000
15.80000 1396.000
15.81500 1328.000
15.83000 1332.000
15.84500 1350.000
15.86000 1373.000
15.87500 1305.000
15.89000 1369.000
15.90500 1422.000
15.92000 1399.000
15.93500 1353.000
15.95000 1364.000
15.96500 1320.000
15.98000 1384.000
15.99500 1390.000
16.01000 1425.000
16.02500 1448.000
16.04000 1343.000
16.05500 1310.000
16.07000 1355.000
16.08500 1368.000
16.10000 1379.000
16.11500 1368.000
16.13000 1364.000
16.14500 1331.000
16.16000 1372.000
16.17500 1348.000
16.19000 1349.000
16.20500 1359.000
16.22000 1385.000
16.23500 1416.000
16.25000 1411.000
16.26500 1436.000
16.28000 1311.000
16.29500 1380.000
16.31000 1394.000
16.32500 1380.000
16.34000 1379.000
16.35500 1428.000
16.37000 1352.000
16.38500 1386.000
16.40000 1366.000
16.41500 1306.000
16.43000 1377.000
16.44500 1368.000
16.46000 1400.000
16.47500 1447.000
16.49000 1410.000
16.50500 1311.000
16.52000 1312.000
16.53500 1370.000
16.55000 1375.000
16.56500 1404.000
16.58000 1369.000
16.59500 1349.000
16.61000 1439.000
16.62500 1401.000
16.64000 1363.000
16.65500 1372.000
16.67000 1394.000
16.68500 1350.000
16.70000 1374.000
16.71500 1414.000
16.73000 1352.000
16.74500 1306.000
16.76000 1376.000
16.77500 1396.000
16.79000 1360.000
16.80500 1382.000
16.82000 1396.000
16.83500 1398.000
16.85000 1330.000
16.86500 1349.000
16.88000 1371.000
16.89500 1374.000
16.91000 1395.000
16.92500 1378.000
16.94000 1342.000
16.95500 1375.000
16.97000 1367.000
16.98500 1400.000
17.00000 1341.000
17.01500 1374.000
17.03000 1397.000
17.04500 1364.000
17.06000 1377.000
17.07500 1394.000
17.09000 1420.000
17.10500 1360.000
17.12000 1394.000
17.13500 1330.000
17.15000 1425.000
17.16500 1367.000
17.18000 1432.000
17.19500 1404.000
17.21000 1405.000
17.22500 1442.000
17.24000 1398.000
17.25500 1388.000
17.27000 1353.000
17.28500 1400.000
17.30000 1410.000
17.31500 1391.000
17.33000 1401.000
17.34500 1415.000
17.36000 1408.000
17.37500 1404.000
17.39000 1391.000
17.40500 1416.000
17.42000 1445.000
17.43500 1469.000
17.45000 1422.000
17.46500 1396.000
17.48000 1454.000
17.49500 1492.000
17.51000 1440.000
17.52500 1407.000
17.54000 1409.000
17.55500 1458.000
17.57000 1404.000
17.58500 1418.000
17.60000 1429.000
17.61500 1433.000
17.63000 1457.000
17.64500 1461.000
17.66000 1529.000
17.67500 1479.000
17.69000 1470.000
17.70500 1454.000
17.72000 1495.000
17.73500 1516.000
17.75000 1453.000
17.76500 1470.000
17.78000 1442.000
17.79500 1458.000
17.81000 1433.000
17.82500 1462.000
17.84000 1497.000
17.85500 1489.000
17.87000 1424.000
17.88500 1449.000
17.90000 1461.000
17.91500 1406.000
17.93000 1474.000
17.94500 1493.000
17.96000 1493.000
17.97500 1508.000
17.99000 1524.000
18.00500 1432.000
18.02000 1466.000
18.03500 1453.000
18.05000 1442.000
18.06500 1437.000
18.08000 1410.000
18.09500 1482.000
18.11000 1466.000
18.12500 1441.000
18.14000 1443.000
18.15500 1511.000
18.17000 1463.000
18.18500 1376.000
18.20000 1460.000
18.21500 1474.000
18.23000 1450.000
18.24500 1465.000
18.26000 1445.000
18.27500 1507.000
18.29000 1467.000
18.30500 1430.000
18.32000 1407.000
18.33500 1459.000
18.35000 1418.000
18.36500 1478.000
18.38000 1436.000
18.39500 1435.000
18.41000 1457.000
18.42500 1453.000
18.44000 1489.000
18.45500 1385.000
18.47000 1375.000
18.48500 1373.000
18.50000 1406.000
18.51500 1408.000
18.53000 1423.000
18.54500 1470.000
18.56000 1440.000
18.57500 1469.000
18.59000 1452.000
18.60500 1388.000
18.62000 1430.000
18.63500 1462.000
18.65000 1510.000
18.66500 1453.000
18.68000 1405.000
18.69500 1429.000
18.71000 1468.000
18.72500 1462.000
18.74000 1392.000
18.75500 1431.000
18.77000 1433.000
18.78500 1387.000
18.80000 1426.000
18.81500 1419.000
18.83000 1464.000
18.84500 1422.000
18.86000 1441.000
18.87500 1445.000
18.89000 1389.000
18.90500 1387.000
18.92000 1395.000
18.93500 1396.000
18.95000 1436.000
18.96500 1423.000
18.98000 1417.000
18.99500 1434.000
19.01000 1401.000
19.02500 1486.000
19.04000 1442.000
19.05500 1492.000
19.07000 1441.000
19.08500 1396.000
19.10000 1408.000
19.11500 1429.000
19.13000 1385.000
19.14500 1408.000
19.16000 1383.000
19.17500 1423.000
19.19000 1453.000
19.20500 1435.000
19.22000 1440.000
19.23500 1384.000
19.25000 1404.000
19.26500 1379.000
19.28000 1350.000
19.29500 1392.000
19.31000 1436.000
19.32500 1406.000
19.34000 1429.000
19.35500 1421.000
19.37000 1406.000
19.38500 1392.000
19.40000 1404.000
19.41500 1365.000
19.43000 1355.000
19.44500 1397.000
19.46000 1427.000
19.47500 1407.000
19.49000 1382.000
19.50500 1403.000
19.52000 1360.000
19.53500 1349.000
19.55000 1315.000
19.56500 1321.000
19.58000 1356.000
19.59500 1402.000
19.61000 1392.000
19.62500 1341.000
19.64000 1348.000
19.65500 1393.000
19.67000 1394.000
19.68500 1361.000
19.70000 1397.000
19.71500 1364.000
19.73000 1428.000
19.74500 1345.000
19.76000 1366.000
19.77500 1440.000
19.79000 1465.000
19.80500 1394.000
19.82000 1445.000
19.83500 1391.000
19.85000 1378.000
19.86500 1363.000
19.88000 1350.000
19.89500 1362.000
19.91000 1393.000
19.92500 1378.000
19.94000 1386.000
19.95500 1337.000
19.97000 1365.000
19.98500 1391.000
20.00000 1380.000
20.01500 1334.000
20.03000 1430.000
20.04500 1423.000
20.06000 1397.000
20.07500 1393.000
20.09000 1362.000
20.10500 1316.000
20.12000 1387.000
20.13500 1394.000
20.15000 1382.000
20.16500 1407.000
20.18000 1455.000
20.19500 1369.000
20.21000 1378.000
20.22500 1337.000
20.24000 1347.000
20.25500 1411.000
20.27000 1443.000
20.28500 1372.000
20.30000 1355.000
20.31500 1411.000
20.33000 1367.000
20.34500 1361.000
20.36000 1342.000
20.37500 1380.000
20.39000 1381.000
20.40500 1373.000
20.42000 1382.000
20.43500 1421.000
20.45000 1357.000
20.46500 1292.000
20.48000 1382.000
20.49500 1411.000
20.51000 1423.000
20.52500 1419.000
20.54000 1375.000
20.55500 1374.000
20.57000 1376.000
20.58500 1389.000
20.60000 1381.000
20.61500 1378.000
20.63000 1379.000
20.64500 1404.000
20.66000 1377.000
20.67500 1358.000
20.69000 1388.000
20.70500 1413.000
20.72000 1389.000
20.73500 1401.000
20.75000 1420.000
20.76500 1430.000
20.78000 1393.000
20.79500 1437.000
20.81000 1397.000
20.82500 1413.000
20.84000 1442.000
20.85500 1411.000
20.87000 1409.000
20.88500 1436.000
20.90000 1353.000
20.91500 1324.000
20.93000 1359.000
20.94500 1369.000
20.96000 1333.000
20.97500 1422.000
20.99000 1426.000
21.00500 1439.000
21.02000 1397.000
21.03500 1414.000
21.05000 1343.000
21.06500 1408.000
21.08000 1432.000
21.09500 1410.000
21.11000 1426.000
21.12500 1395.000
21.14000 1437.000
21.15500 1432.000
21.17000 1383.000
21.18500 1417.000
21.20000 1336.000
21.21500 1412.000
21.23000 1425.000
21.24500 1414.000
21.26000 1436.000
21.27500 1422.000
21.29000 1362.000
21.30500 1440.000
21.32000 1455.000
21.33500 1409.000
21.35000 1432.000
21.36500 1369.000
21.38000 1381.000
21.39500 1456.000
21.41000 1376.000
21.42500 1352.000
21.44000 1431.000
21.45500 1475.000
21.47000 1425.000
21.48500 1472.000
21.50000 1432.000
21.51500 1477.000
21.53000 1428.000
21.54500 1424.000
21.56000 1430.000
21.57500 1387.000
21.59000 1400.000
21.60500 1389.000
21.62000 1444.000
21.63500 1416.000
21.65000 1429.000
21.66500 1427.000
21.68000 1465.000
21.69500 1418.000
21.71000 1442.000
21.72500 1383.000
21.74000 1417.000
21.75500 1470.000
21.77000 1425.000
21.78500 1410.000
21.80000 1410.000
21.81500 1438.000
21.83000 1417.000
21.84500 1477.000
21.86000 1467.000
21.87500 1419.000
21.89000 1444.000
21.90500 1404.000
21.92000 1409.000
21.93500 1428.000
21.95000 1403.000
21.96500 1432.000
21.98000 1411.000
21.99500 1498.000
22.01000 1392.000
22.02500 1412.000
22.04000 1446.000
22.05500 1414.000
22.07000 1461.000
22.08500 1459.000
22.10000 1441.000
22.11500 1435.000
22.13000 1451.000
22.14500 1424.000
22.16000 1476.000
22.17500 1477.000
22.19000 1458.000
22.20500 1417.000
22.22000 1402.000
22.23500 1387.000
22.25000 1400.000
22.26500 1410.000
22.28000 1453.000
22.29500 1493.000
22.31000 1382.000
22.32500 1361.000
22.34000 1383.000
22.35500 1418.000
22.37000 1410.000
22.38500 1471.000
22.40000 1432.000
22.41500 1394.000
22.43000 1412.000
22.44500 1460.000
22.46000 1425.000
22.47500 1430.000
22.49000 1415.000
22.50500 1395.000
22.52000 1393.000
22.53500 1400.000
22.55000 1356.000
22.56500 1397.000
22.58000 1420.000
22.59500 1467.000
22.61000 1443.000
22.62500 1375.000
22.64000 1393.000
22.65500 1394.000
22.67000 1388.000
22.68500 1380.000
22.70000 1420.000
22.71500 1417.000
22.73000 1415.000
22.74500 1316.000
22.76000 1431.000
22.77500 1352.000
22.79000 1360.000
22.80500 1354.000
22.82000 1377.000
22.83500 1434.000
22.85000 1401.000
22.86500 1395.000
22.88000 1409.000
22.89500 1345.000
22.91000 1387.000
22.92500 1357.000
22.94000 1403.000
22.95500 1397.000
22.97000 1407.000
22.98500 1410.000
23.00000 1389.000
23.01500 1469.000
23.03000 1447.000
23.04500 1484.000
23.06000 1440.000
23.07500 1437.000
23.09000 1487.000
23.10500 1513.000
23.12000 1422.000
23.13500 1388.000
23.15000 1424.000
23.16500 1391.000
23.18000 1396.000
23.19500 1416.000
23.21000 1380.000
23.22500 1348.000
23.24000 1356.000
23.25500 1371.000
23.27000 1401.000
23.28500 1437.000
23.30000 1358.000
23.31500 1363.000
23.33000 1387.000
23.34500 1385.000
23.36000 1339.000
23.37500 1396.000
23.39000 1394.000
23.40500 1469.000
23.42000 1448.000
23.43500 1412.000
23.45000 1413.000
23.46500 1417.000
23.48000 1414.000
23.49500 1405.000
23.51000 1460.000
23.52500 1410.000
23.54000 1403.000
23.55500 1397.000
23.57000 1420.000
23.58500 1413.000
23.60000 1364.000
23.61500 1385.000
23.63000 1376.000
23.64500 1417.000
23.66000 1393.000
23.67500 1436.000
23.69000 1452.000
23.70500 1385.000
23.72000 1428.000
23.73500 1450.000
23.75000 1399.000
23.76500 1397.000
23.78000 1419.000
23.79500 1426.000
23.81000 1411.000
23.82500 1435.000
23.84000 1437.000
23.85500 1425.000
23.87000 1457.000
23.88500 1440.000
23.90000 1425.000
23.91500 1426.000
23.93000 1454.000
23.94500 1395.000
23.96000 1404.000
23.97500 1436.000
23.99000 1446.000
24.00500 1376.000
24.02000 1369.000
24.03500 1397.000
24.05000 1381.000
24.06500 1337.000
24.08000 1382.000
24.09500 1431.000
24.11000 1393.000
24.12500 1396.000
24.14000 1430.000
24.15500 1458.000
24.17000 1414.000
24.18500 1411.000
24.20000 1471.000
24.21500 1451.000
24.23000 1460.000
24.24500 1427.000
24.26000 1389.000
24.27500 1390.000
24.29000 1398.000
24.30500 1419.000
24.32000 1464.000
24.33500 1412.000
24.35000 1361.000
24.36500 1441.000
24.38000 1418.000
24.39500 1365.000
24.41000 1393.000
24.42500 1396.000
24.44000 1426.000
24.45500 1437.000
24.47000 1408.000
24.48500 1463.000
24.50000 1474.000
24.51500 1482.000
24.53000 1469.000
24.54500 1423.000
24.56000 1436.000
24.57500 1488.000
24.59000 1549.000
24.60500 1485.000
24.62000 1473.000
24.63500 1450.000
24.65000 1458.000
24.66500 1481.000
24.68000 1516.000
24.69500 1550.000
24.71000 1558.000
24.72500 1532.000
24.74000 1404.000
24.75500 1447.000
24.77000 1465.000
24.78500 1519.000
24.80000 1530.000
24.81500 1515.000
24.83000 1462.000
24.84500 1489.000
24.86000 1487.000
24.87500 1497.000
24.89000 1507.000
24.90500 1498.000
24.92000 1497.000
24.93500 1547.000
24.95000 1494.000
24.96500 1545.000
24.98000 1525.000
24.99500 1571.000
25.01000 1548.000
25.02500 1539.000
25.04000 1516.000
25.05500 1562.000
25.07000 1577.000
25.08500 1614.000
25.10000 1598.000
25.11500 1587.000
25.13000 1583.000
25.14500 1593.000
25.16000 1573.000
25.17500 1590.000
25.19000 1554.000
25.20500 1608.000
25.22000 1645.000
25.23500 1673.000
25.25000 1590.000
25.26500 1609.000
25.28000 1580.000
25.29500 1609.000
25.31000 1597.000
25.32500 1669.000
25.34000 1704.000
25.35500 1679.000
25.37000 1600.000
25.38500 1641.000
25.40000 1684.000
25.41500 1640.000
25.43000 1688.000
25.44500 1666.000
25.46000 1679.000
25.47500 1714.000
25.49000 1660.000
25.50500 1650.000
25.52000 1668.000
25.53500 1721.000
25.55000 1744.000
25.56500 1769.000
25.58000 1808.000
25.59500 1754.000
25.61000 1779.000
25.62500 1808.000
25.64000 1789.000
25.65500 1871.000
25.67000 1809.000
25.68500 1748.000
25.70000 1778.000
25.71500 1750.000
25.73000 1824.000
25.74500 1823.000
25.76000 1917.000
25.77500 1906.000
25.79000 1913.000
25.80500 1943.000
25.82000 1929.000
25.83500 1936.000
25.85000 1909.000
25.86500 1984.000
25.88000 1975.000
25.89500 1901.000
25.91000 1900.000
25.92500 1955.000
25.94000 1999.000
25.95500 1957.000
25.97000 2028.000
25.98500 2013.000
26.00000 1954.000
26.01500 2113.000
26.03000 2051.000
26.04500 2078.000
26.06000 2052.000
26.07500 1994.000
26.09000 2063.000
26.10500 2162.000
26.12000 2160.000
26.13500 2234.000
26.15000 2206.000
26.16500 2145.000
26.18000 2161.000
26.19500 2222.000
26.21000 2308.000
26.22500 2301.000
26.24000 2254.000
26.25500 2320.000
26.27000 2333.000
26.28500 2408.000
26.30000 2433.000
26.31500 2460.000
26.33000 2433.000
26.34500 2453.000
26.36000 2479.000
26.37500 2488.000
26.39000 2501.000
26.40500 2555.000
26.42000 2546.000
26.43500 2606.000
26.45000 2632.000
26.46500 2590.000
26.48000 2604.000
26.49500 2702.000
26.51000 2835.000
26.52500 2837.000
26.54000 2752.000
26.55500 2857.000
26.57000 2853.000
26.58500 2896.000
26.60000 2990.000
26.61500 2972.000
26.63000 2976.000
26.64500 3016.000
26.66000 3113.000
26.67500 3127.000
26.69000 3075.000
26.70500 3175.000
26.72000 3264.000
26.73500 3211.000
26.75000 3363.000
26.76500 3422.000
26.78000 3420.000
26.79500 3389.000
26.81000 3415.000
26.82500 3467.000
26.84000 3503.000
26.85500 3637.000
26.87000 3618.000
26.88500 3751.000
26.90000 3757.000
26.91500 3813.000
26.93000 3924.000
26.94500 3872.000
26.96000 3920.000
26.97500 4021.000
26.99000 4141.000
27.00500 4090.000
27.02000 4207.000
27.03500 4330.000
27.05000 4356.000
27.06500 4322.000
27.08000 4288.000
27.09500 4476.000
27.11000 4527.000
27.12500 4585.000
27.14000 4580.000
27.15500 4728.000
27.17000 4720.000
27.18500 4775.000
27.20000 4826.000
27.21500 4960.000
27.23000 4992.000
27.24500 5095.000
27.26000 5032.000
27.27500 5093.000
27.29000 5146.000
27.30500 5247.000
27.32000 5278.000
27.33500 5332.000
27.35000 5368.000
27.36500 5397.000
27.38000 5470.000
27.39500 5603.000
27.41000 5712.000
27.42500 5787.000
27.44000 6016.000
27.45500 5910.000
27.47000 5710.000
27.48500 5772.000
27.50000 5699.000
27.51500 5680.000
27.53000 5583.000
27.54500 5613.000
27.56000 5596.000
27.57500 5444.000
27.59000 5627.000
27.60500 5611.000
27.62000 5558.000
27.63500 5446.000
27.65000 5575.000
27.66500 5456.000
27.68000 5384.000
27.69500 5365.000
27.71000 5372.000
27.72500 5234.000
27.74000 5103.000
27.75500 5029.000
27.77000 4946.000
27.78500 4917.000
27.80000 4748.000
27.81500 4714.000
27.83000 4606.000
27.84500 4532.000
27.86000 4400.000
27.87500 4433.000
27.89000 4415.000
27.90500 4284.000
27.92000 4182.000
27.93500 4023.000
27.95000 3912.000
27.96500 3927.000
27.98000 3814.000
27.99500 3789.000
28.01000 3658.000
28.02500 3605.000
28.04000 3493.000
28.05500 3406.000
28.07000 3374.000
28.08500 3428.000
28.10000 3360.000
28.11500 3265.000
28.13000 3024.000
28.14500 2908.000
28.16000 2950.000
28.17500 2890.000
28.19000 2940.000
28.20500 2823.000
28.22000 2718.000
28.23500 2723.000
28.25000 2698.000
28.26500 2645.000
28.28000 2625.000
28.29500 2513.000
28.31000 2498.000
28.32500 2557.000
28.34000 2466.000
28.35500 2345.000
28.37000 2387.000
28.38500 2425.000
28.40000 2358.000
28.41500 2318.000
28.43000 2237.000
28.44500 2233.000
28.46000 2156.000
28.47500 2152.000
28.49000 2187.000
28.50500 2036.000
28.52000 2018.000
28.53500 2086.000
28.55000 2028.000
28.56500 2017.000
28.58000 1944.000
28.59500 1906.000
28.61000 1946.000
28.62500 1978.000
28.64000 1964.000
28.65500 1890.000
28.67000 1824.000
28.68500 1787.000
28.70000 1782.000
28.71500 1876.000
28.73000 1921.000
28.74500 1829.000
28.76000 1791.000
28.77500 1762.000
28.79000 1743.000
28.80500 1739.000
28.82000 1670.000
28.83500 1680.000
28.85000 1711.000
28.86500 1694.000
28.88000 1675.000
28.89500 1646.000
28.91000 1617.000
28.92500 1606.000
28.94000 1608.000
28.95500 1595.000
28.97000 1629.000
28.98500 1562.000
29.00000 1556.000
29.01500 1519.000
29.03000 1449.000
29.04500 1512.000
29.06000 1545.000
29.07500 1564.000
29.09000 1555.000
29.10500 1535.000
29.12000 1521.000
29.13500 1499.000
29.15000 1467.000
29.16500 1527.000
29.18000 1455.000
29.19500 1437.000
29.21000 1466.000
29.22500 1457.000
29.24000 1484.000
29.25500 1518.000
29.27000 1426.000
29.28500 1443.000
29.30000 1473.000
29.31500 1542.000
29.33000 1486.000
29.34500 1574.000
29.36000 1615.000
29.37500 1734.000
29.39000 1996.000
29.40500 2118.000
29.42000 1942.000
29.43500 1801.000
29.45000 1591.000
29.46500 1581.000
29.48000 1552.000
29.49500 1463.000
29.51000 1414.000
29.52500 1375.000
29.54000 1376.000
29.55500 1353.000
29.57000 1393.000
29.58500 1358.000
29.60000 1377.000
29.61500 1329.000
29.63000 1325.000
29.64500 1319.000
29.66000 1325.000
29.67500 1267.000
29.69000 1239.000
29.70500 1258.000
29.72000 1279.000
29.73500 1270.000
29.75000 1312.000
29.76500 1283.000
29.78000 1235.000
29.79500 1237.000
29.81000 1250.000
29.82500 1279.000
29.84000 1267.000
29.85500 1298.000
29.87000 1251.000
29.88500 1276.000
29.90000 1245.000
29.91500 1208.000
29.93000 1193.000
29.94500 1197.000
29.96000 1219.000
29.97500 1242.000
29.99000 1208.000
30.00500 1184.000
30.02000 1177.000
30.03500 1163.000
30.05000 1197.000
30.06500 1160.000
30.08000 1144.000
30.09500 1159.000
30.11000 1184.000
30.12500 1160.000
30.14000 1216.000
30.15500 1165.000
30.17000 1154.000
30.18500 1191.000
30.20000 1193.000
30.21500 1241.000
30.23000 1121.000
30.24500 1133.000
30.26000 1135.000
30.27500 1184.000
30.29000 1233.000
30.30500 1189.000
30.32000 1195.000
30.33500 1165.000
30.35000 1161.000
30.36500 1147.000
30.38000 1109.000
30.39500 1112.000
30.41000 1164.000
30.42500 1150.000
30.44000 1164.000
30.45500 1167.000
30.47000 1135.000
30.48500 1126.000
30.50000 1149.000
30.51500 1132.000
30.53000 1143.000
30.54500 1139.000
30.56000 1168.000
30.57500 1143.000
30.59000 1133.000
30.60500 1124.000
30.62000 1101.000
30.63500 1092.000
30.65000 1086.000
30.66500 1124.000
30.68000 1126.000
30.69500 1145.000
30.71000 1095.000
30.72500 1106.000
30.74000 1140.000
30.75500 1061.000
30.77000 1046.000
30.78500 1057.000
30.80000 1066.000
30.81500 1084.000
30.83000 1065.000
30.84500 1086.000
30.86000 1090.000
30.87500 1052.000
30.89000 1084.000
30.90500 1122.000
30.92000 1135.000
30.93500 1065.000
30.95000 1099.000
30.96500 1074.000
30.98000 1079.000
30.99500 1109.000
31.01000 1038.000
31.02500 1069.000
31.04000 1105.000
31.05500 1095.000
31.07000 1111.000
31.08500 1093.000
31.10000 1048.000
31.11500 1046.000
31.13000 1043.000
31.14500 988.000
31.16000 1029.000
31.17500 1049.000
31.19000 1033.000
31.20500 1014.000
31.22000 1036.000
31.23500 1037.000
31.25000 1024.000
31.26500 1031.000
31.28000 1000.000
31.29500 1025.000
31.31000 1044.000
31.32500 1007.000
31.34000 1012.000
31.35500 1008.000
31.37000 1000.000
31.38500 1034.000
31.40000 1021.000
31.41500 1030.000
31.43000 1050.000
31.44500 995.000
31.46000 1010.000
31.47500 995.000
31.49000 980.000
31.50500 948.000
31.52000 994.000
31.53500 1022.000
31.55000 1008.000
31.56500 957.000
31.58000 971.000
31.59500 991.000
31.61000 1059.000
31.62500 1032.000
31.64000 958.000
31.65500 994.000
31.67000 1021.000
31.68500 958.000
31.70000 972.000
31.71500 969.000
31.73000 963.000
31.74500 966.000
31.76000 975.000
31.77500 1015.000
31.79000 961.000
31.80500 899.000
31.82000 904.000
31.83500 962.000
31.85000 979.000
31.86500 972.000
31.88000 965.000
31.89500 930.000
31.91000 920.000
31.92500 944.000
31.94000 984.000
31.95500 975.000
31.97000 973.000
31.98500 989.000
32.00000 963.000
32.01500 983.000
32.03000 983.000
32.04500 973.000
32.06000 951.000
32.07500 951.000
32.09000 975.000
32.10500 977.000
32.12000 929.000
32.13500 941.000
32.15000 944.000
32.16500 914.000
32.18000 957.000
32.19500 966.000
32.21000 951.000
32.22500 915.000
32.24000 968.000
32.25500 918.000
32.27000 935.000
32.28500 933.000
32.30000 931.000
32.31500 895.000
32.33000 949.000
32.34500 877.000
32.36000 893.000
32.37500 906.000
32.39000 903.000
32.40500 880.000
32.42000 916.000
32.43500 927.000
32.45000 875.000
32.46500 907.000
32.48000 883.000
32.49500 858.000
32.51000 875.000
32.52500 895.000
32.54000 888.000
32.55500 898.000
32.57000 922.000
32.58500 924.000
32.60000 921.000
32.61500 861.000
32.63000 879.000
32.64500 867.000
32.66000 839.000
32.67500 864.000
32.69000 877.000
32.70500 866.000
32.72000 852.000
32.73500 881.000
32.75000 856.000
32.76500 842.000
32.78000 918.000
32.79500 880.000
32.81000 862.000
32.82500 857.000
32.84000 923.000
32.85500 893.000
32.87000 880.000
32.88500 883.000
32.90000 850.000
32.91500 874.000
32.93000 842.000
32.94500 838.000
32.96000 828.000
32.97500 838.000
32.99000 836.000
33.00500 816.000
33.02000 866.000
33.03500 895.000
33.05000 830.000
33.06500 804.000
33.08000 837.000
33.09500 848.000
33.11000 877.000
33.12500 840.000
33.14000 850.000
33.15500 849.000
33.17000 807.000
33.18500 830.000
33.20000 802.000
33.21500 855.000
33.23000 841.000
33.24500 777.000
33.26000 823.000
33.27500 835.000
33.29000 862.000
33.30500 899.000
33.32000 832.000
33.33500 797.000
33.35000 821.000
33.36500 778.000
33.38000 781.000
33.39500 820.000
33.41000 841.000
33.42500 818.000
33.44000 819.000
33.45500 802.000
33.47000 807.000
33.48500 793.000
33.50000 829.000
33.51500 814.000
33.53000 808.000
33.54500 855.000
33.56000 862.000
33.57500 817.000
33.59000 867.000
33.60500 772.000
33.62000 811.000
33.63500 825.000
33.65000 799.000
33.66500 868.000
33.68000 816.000
33.69500 813.000
33.71000 810.000
33.72500 769.000
33.74000 795.000
33.75500 808.000
33.77000 786.000
33.78500 803.000
33.80000 792.000
33.81500 834.000
33.83000 770.000
33.84500 787.000
33.86000 797.000
33.87500 780.000
33.89000 812.000
33.90500 805.000
33.92000 832.000
33.93500 827.000
33.95000 789.000
33.96500 829.000
33.98000 833.000
33.99500 802.000
34.01000 788.000
34.02500 803.000
34.04000 803.000
34.05500 802.000
34.07000 813.000
34.08500 816.000
34.10000 804.000
34.11500 776.000
34.13000 755.000
34.14500 760.000
34.16000 772.000
34.17500 755.000
34.19000 800.000
34.20500 799.000
34.22000 755.000
34.23500 760.000
34.25000 780.000
34.26500 785.000
34.28000 797.000
34.29500 812.000
34.31000 755.000
34.32500 750.000
34.34000 766.000
34.35500 743.000
34.37000 784.000
34.38500 769.000
34.40000 793.000
34.41500 779.000
34.43000 818.000
34.44500 805.000
34.46000 810.000
34.47500 794.000
34.49000 732.000
34.50500 748.000
34.52000 747.000
34.53500 741.000
34.55000 765.000
34.56500 776.000
34.58000 741.000
34.59500 753.000
34.61000 751.000
34.62500 741.000
34.64000 725.000
34.65500 777.000
34.67000 787.000
34.68500 747.000
34.70000 754.000
34.71500 773.000
34.73000 746.000
34.74500 730.000
34.76000 702.000
34.77500 799.000
34.79000 758.000
34.80500 785.000
34.82000 769.000
34.83500 763.000
34.85000 749.000
34.86500 743.000
34.88000 712.000
34.89500 702.000
34.91000 737.000
34.92500 761.000
34.94000 762.000
34.95500 762.000
34.97000 729.000
34.98500 755.000
35.00000 737.000
35.01500 690.000
35.03000 772.000
35.04500 762.000
35.06000 778.000
35.07500 763.000
35.09000 749.000
35.10500 728.000
35.12000 726.000
35.13500 714.000
35.15000 764.000
35.16500 750.000
35.18000 749.000
35.19500 711.000
35.21000 706.000
35.22500 727.000
35.24000 695.000
35.25500 727.000
35.27000 720.000
35.28500 761.000
35.30000 739.000
35.31500 723.000
35.33000 715.000
35.34500 734.000
35.36000 712.000
35.37500 697.000
35.39000 717.000
35.40500 737.000
35.42000 742.000
35.43500 735.000
35.45000 698.000
35.46500 726.000
35.48000 711.000
35.49500 712.000
35.51000 786.000
35.52500 738.000
35.54000 723.000
35.55500 780.000
35.57000 744.000
35.58500 752.000
35.60000 740.000
35.61500 680.000
35.63000 709.000
35.64500 730.000
35.66000 723.000
35.67500 700.000
35.69000 745.000
35.70500 749.000
35.72000 724.000
35.73500 720.000
35.75000 698.000
35.76500 677.000
35.78000 709.000
35.79500 752.000
35.81000 702.000
35.82500 690.000
35.84000 721.000
35.85500 759.000
35.87000 702.000
35.88500 731.000
35.90000 750.000
35.91500 718.000
35.93000 753.000
35.94500 722.000
35.96000 745.000
35.97500 770.000
35.99000 788.000
36.00500 784.000
36.02000 830.000
36.03500 789.000
36.05000 806.000
36.06500 841.000
36.08000 872.000
36.09500 831.000
36.11000 822.000
36.12500 758.000
36.14000 729.000
36.15500 758.000
36.17000 728.000
36.18500 708.000
36.20000 729.000
36.21500 707.000
36.23000 694.000
36.24500 690.000
36.26000 648.000
36.27500 663.000
36.29000 700.000
36.30500 683.000
36.32000 713.000
36.33500 675.000
36.35000 666.000
36.36500 679.000
36.38000 681.000
36.39500 680.000
36.41000 672.000
36.42500 689.000
36.44000 679.000
36.45500 667.000
36.47000 690.000
36.48500 698.000
36.50000 637.000
36.51500 675.000
36.53000 687.000
36.54500 664.000
36.56000 677.000
36.57500 724.000
36.59000 672.000
36.60500 694.000
36.62000 703.000
36.63500 699.000
36.65000 672.000
36.66500 668.000
36.68000 714.000
36.69500 668.000
36.71000 700.000
36.72500 700.000
36.74000 680.000
36.75500 648.000
36.77000 646.000
36.78500 655.000
36.80000 659.000
36.81500 624.000
36.83000 615.000
36.84500 611.000
36.86000 671.000
36.87500 642.000
36.89000 663.000
36.90500 643.000
36.92000 666.000
36.93500 676.000
36.95000 683.000
36.96500 677.000
36.98000 632.000
36.99500 631.000
37.01000 663.000
37.02500 704.000
37.04000 673.000
37.05500 668.000
37.07000 654.000
37.08500 638.000
37.10000 655.000
37.11500 697.000
37.13000 658.000
37.14500 631.000
37.16000 636.000
37.17500 669.000
37.19000 647.000
37.20500 660.000
37.22000 674.000
37.23500 723.000
37.25000 637.000
37.26500 635.000
37.28000 639.000
37.29500 675.000
37.31000 626.000
37.32500 645.000
37.34000 703.000
37.35500 694.000
37.37000 657.000
37.38500 670.000
37.40000 630.000
37.41500 665.000
37.43000 674.000
37.44500 655.000
37.46000 656.000
37.47500 621.000
37.49000 674.000
37.50500 686.000
37.52000 675.000
37.53500 654.000
37.55000 622.000
37.56500 609.000
37.58000 639.000
37.59500 679.000
37.61000 624.000
37.62500 656.000
37.64000 634.000
37.65500 661.000
37.67000 656.000
37.68500 651.000
37.70000 671.000
37.71500 647.000
37.73000 682.000
37.74500 672.000
37.76000 617.000
37.77500 654.000
37.79000 593.000
37.80500 643.000
37.82000 643.000
37.83500 638.000
37.85000 622.000
37.86500 637.000
37.88000 598.000
37.89500 626.000
37.91000 648.000
37.92500 664.000
37.94000 677.000
37.95500 677.000
37.97000 646.000
37.98500 644.000
38.00000 601.000
38.01500 618.000
38.03000 639.000
38.04500 643.000
38.06000 622.000
38.07500 615.000
38.09000 649.000
38.10500 622.000
38.12000 636.000
38.13500 627.000
38.15000 604.000
38.16500 599.000
38.18000 627.000
38.19500 617.000
38.21000 641.000
38.22500 638.000
38.24000 629.000
38.25500 646.000
38.27000 677.000
38.28500 636.000
38.30000 632.000
38.31500 632.000
38.33000 661.000
38.34500 654.000
38.36000 640.000
38.37500 607.000
38.39000 607.000
38.40500 636.000
38.42000 647.000
38.43500 645.000
38.45000 647.000
38.46500 632.000
38.48000 620.000
38.49500 612.000
38.51000 646.000
38.52500 671.000
38.54000 665.000
38.55500 649.000
38.57000 643.000
38.58500 664.000
38.60000 628.000
38.61500 666.000
38.63000 624.000
38.64500 618.000
38.66000 613.000
38.67500 649.000
38.69000 611.000
38.70500 602.000
38.72000 619.000
38.73500 651.000
38.75000 606.000
38.76500 638.000
38.78000 625.000
38.79500 595.000
38.81000 618.000
38.82500 639.000
38.84000 645.000
38.85500 643.000
38.87000 660.000
38.88500 652.000
38.90000 639.000
38.91500 609.000
38.93000 640.000
38.94500 624.000
38.96000 625.000
38.97500 638.000
38.99000 592.000
39.00500 618.000
39.02000 635.000
39.03500 651.000
39.05000 647.000
39.06500 656.000
39.08000 620.000
39.09500 630.000
39.11000 634.000
39.12500 622.000
39.14000 638.000
39.15500 641.000
39.17000 645.000
39.18500 653.000
39.20000 671.000
39.21500 676.000
39.23000 650.000
39.24500 675.000
39.26000 631.000
39.27500 626.000
39.29000 666.000
39.30500 668.000
39.32000 661.000
39.33500 652.000
39.35000 630.000
39.36500 710.000
39.38000 716.000
39.39500 708.000
39.41000 685.000
39.42500 727.000
39.44000 703.000
39.45500 733.000
39.47000 695.000
39.48500 697.000
39.50000 645.000
39.51500 620.000
39.53000 642.000
39.54500 646.000
39.56000 639.000
39.57500 627.000
39.59000 655.000
39.60500 641.000
39.62000 633.000
39.63500 625.000
39.65000 659.000
39.66500 650.000
39.68000 630.000
39.69500 588.000
39.71000 591.000
39.72500 649.000
39.74000 648.000
39.75500 620.000
39.77000 609.000
39.78500 636.000
39.80000 624.000
39.81500 624.000
39.83000 640.000
39.84500 618.000
39.86000 667.000
39.87500 622.000
39.89000 660.000
39.90500 660.000
39.92000 648.000
39.93500 646.000
39.95000 616.000
39.96500 606.000
39.98000 592.000
39.99500 658.000
40.01000 615.000
40.02500 592.000
40.04000 627.000
40.05500 628.000
40.07000 605.000
40.08500 657.000
40.10000 645.000
40.11500 581.000
40.13000 589.000
40.14500 587.000
40.16000 642.000
40.17500 653.000
40.19000 636.000
40.20500 625.000
40.22000 650.000
40.23500 668.000
40.25000 616.000
40.26500 603.000
40.28000 610.000
40.29500 618.000
40.31000 636.000
40.32500 610.000
40.34000 620.000
40.35500 619.000
40.37000 617.000
40.38500 630.000
40.40000 653.000
40.41500 612.000
40.43000 635.000
40.44500 639.000
40.46000 645.000
40.47500 649.000
40.49000 634.000
40.50500 641.000
40.52000 670.000
40.53500 668.000
40.55000 630.000
40.56500 625.000
40.58000 593.000
40.59500 622.000
40.61000 616.000
40.62500 611.000
40.64000 619.000
40.65500 628.000
40.67000 597.000
40.68500 625.000
40.70000 621.000
40.71500 648.000
40.73000 632.000
40.74500 616.000
40.76000 594.000
40.77500 639.000
40.79000 651.000
40.80500 636.000
40.82000 622.000
40.83500 626.000
40.85000 621.000
40.86500 619.000
40.88000 596.000
40.89500 584.000
40.91000 628.000
40.92500 626.000
40.94000 621.000
40.95500 645.000
40.97000 608.000
40.98500 580.000
41.00000 651.000
41.01500 628.000
41.03000 620.000
41.04500 592.000
41.06000 614.000
41.07500 628.000
41.09000 645.000
41.10500 628.000
41.12000 614.000
41.13500 656.000
41.15000 652.000
41.16500 616.000
41.18000 635.000
41.19500 668.000
41.21000 641.000
41.22500 725.000
41.24000 720.000
41.25500 682.000
41.27000 662.000
41.28500 630.000
41.30000 624.000
41.31500 605.000
41.33000 595.000
41.34500 618.000
41.36000 656.000
41.37500 637.000
41.39000 638.000
41.40500 660.000
41.42000 615.000
41.43500 612.000
41.45000 631.000
41.46500 627.000
41.48000 644.000
41.49500 660.000
41.51000 616.000
41.52500 625.000
41.54000 647.000
41.55500 603.000
41.57000 626.000
41.58500 639.000
41.60000 576.000
41.61500 611.000
41.63000 617.000
41.64500 610.000
41.66000 592.000
41.67500 600.000
41.69000 618.000
41.70500 607.000
41.72000 610.000
41.73500 625.000
41.75000 620.000
41.76500 630.000
41.78000 646.000
41.79500 652.000
41.81000 613.000
41.82500 601.000
41.84000 631.000
41.85500 658.000
41.87000 606.000
41.88500 582.000
41.90000 616.000
41.91500 622.000
41.93000 623.000
41.94500 621.000
41.96000 640.000
41.97500 619.000
41.99000 615.000
42.00500 628.000
42.02000 628.000
42.03500 636.000
42.05000 590.000
42.06500 632.000
42.08000 579.000
42.09500 604.000
42.11000 614.000
42.12500 668.000
42.14000 656.000
42.15500 613.000
42.17000 614.000
42.18500 640.000
42.20000 636.000
42.21500 668.000
42.23000 639.000
42.24500 626.000
42.26000 633.000
42.27500 626.000
42.29000 622.000
42.30500 618.000
42.32000 603.000
42.33500 597.000
42.35000 628.000
42.36500 629.000
42.38000 640.000
42.39500 632.000
42.41000 586.000
42.42500 627.000
42.44000 606.000
42.45500 606.000
42.47000 655.000
42.48500 621.000
42.50000 595.000
42.51500 636.000
42.53000 577.000
42.54500 656.000
42.56000 639.000
42.57500 647.000
42.59000 603.000
42.60500 634.000
42.62000 610.000
42.63500 648.000
42.65000 665.000
42.66500 664.000
42.68000 680.000
42.69500 649.000
42.71000 644.000
42.72500 647.000
42.74000 654.000
42.75500 655.000
42.77000 634.000
42.78500 647.000
42.80000 639.000
42.81500 644.000
42.83000 596.000
42.84500 628.000
42.86000 647.000
42.87500 649.000
42.89000 648.000
42.90500 629.000
42.92000 655.000
42.93500 652.000
42.95000 621.000
42.96500 646.000
42.98000 654.000
42.99500 637.000
43.01000 662.000
43.02500 678.000
43.04000 660.000
43.05500 626.000
43.07000 664.000
43.08500 709.000
43.10000 677.000
43.11500 717.000
43.13000 706.000
43.14500 725.000
43.16000 763.000
43.17500 738.000
43.19000 719.000
43.20500 682.000
43.22000 656.000
43.23500 712.000
43.25000 697.000
43.26500 690.000
43.28000 704.000
43.29500 646.000
43.31000 670.000
43.32500 701.000
43.34000 685.000
43.35500 646.000
43.37000 644.000
43.38500 665.000
43.40000 691.000
43.41500 693.000
43.43000 642.000
43.44500 651.000
43.46000 721.000
43.47500 700.000
43.49000 657.000
43.50500 650.000
43.52000 662.000
43.53500 729.000
43.55000 698.000
43.56500 678.000
43.58000 666.000
43.59500 659.000
43.61000 652.000
43.62500 656.000
43.64000 690.000
43.65500 693.000
43.67000 700.000
43.68500 671.000
43.70000 681.000
43.71500 659.000
43.73000 691.000
43.74500 709.000
43.76000 712.000
43.77500 669.000
43.79000 688.000
43.80500 671.000
43.82000 706.000
43.83500 727.000
43.85000 693.000
43.86500 691.000
43.88000 676.000
43.89500 662.000
43.91000 709.000
43.92500 705.000
43.94000 710.000
43.95500 744.000
43.97000 729.000
43.98500 702.000
44.00000 688.000
44.01500 709.000
44.03000 715.000
44.04500 711.000
44.06000 706.000
44.07500 752.000
44.09000 697.000
44.10500 686.000
44.12000 705.000
44.13500 699.000
44.15000 696.000
44.16500 691.000
44.18000 690.000
44.19500 676.000
44.21000 694.000
44.22500 711.000
44.24000 699.000
44.25500 687.000
44.27000 684.000
44.28500 667.000
44.30000 700.000
44.31500 697.000
44.33000 711.000
44.34500 688.000
44.36000 687.000
44.37500 686.000
44.39000 707.000
44.40500 687.000
44.42000 674.000
44.43500 698.000
44.45000 688.000
44.46500 670.000
44.48000 721.000
44.49500 719.000
44.51000 685.000
44.52500 672.000
44.54000 721.000
44.55500 714.000
44.57000 731.000
44.58500 724.000
44.60000 689.000
44.61500 720.000
44.63000 673.000
44.64500 716.000
44.66000 705.000
44.67500 680.000
44.69000 665.000
44.70500 701.000
44.72000 735.000
44.73500 720.000
44.75000 668.000
44.76500 694.000
44.78000 688.000
44.79500 710.000
44.81000 721.000
44.82500 711.000
44.84000 697.000
44.85500 705.000
44.87000 679.000
44.88500 711.000
44.90000 710.000
44.91500 667.000
44.93000 704.000
44.94500 679.000
44.96000 681.000
44.97500 670.000
44.99000 638.000
45.00500 638.000
45.02000 643.000
45.03500 665.000
45.05000 670.000
45.06500 677.000
45.08000 675.000
45.09500 659.000
45.11000 705.000
45.12500 692.000
45.14000 683.000
45.15500 655.000
45.17000 676.000
45.18500 644.000
45.20000 642.000
45.21500 661.000
45.23000 680.000
45.24500 673.000
45.26000 658.000
45.27500 658.000
45.29000 662.000
45.30500 660.000
45.32000 663.000
45.33500 643.000
45.35000 680.000
45.36500 646.000
45.38000 703.000
45.39500 677.000
45.41000 669.000
45.42500 675.000
45.44000 662.000
45.45500 634.000
45.47000 622.000
45.48500 670.000
45.50000 645.000
45.51500 681.000
45.53000 669.000
45.54500 673.000
45.56000 663.000
45.57500 642.000
45.59000 649.000
45.60500 640.000
45.62000 634.000
45.63500 640.000
45.65000 671.000
45.66500 711.000
45.68000 667.000
45.69500 637.000
45.71000 649.000
45.72500 684.000
45.74000 696.000
45.75500 659.000
45.77000 653.000
45.78500 658.000
45.80000 666.000
45.81500 684.000
45.83000 658.000
45.84500 675.000
45.86000 625.000
45.87500 634.000
45.89000 661.000
45.90500 649.000
45.92000 643.000
45.93500 647.000
45.95000 633.000
45.96500 631.000
45.98000 649.000
45.99500 658.000
46.01000 647.000
46.02500 645.000
46.04000 631.000
46.05500 649.000
46.07000 632.000
46.08500 641.000
46.10000 626.000
46.11500 655.000
46.13000 638.000
46.14500 642.000
46.16000 657.000
46.17500 650.000
46.19000 685.000
46.20500 663.000
46.22000 660.000
46.23500 661.000
46.25000 656.000
46.26500 651.000
46.28000 648.000
46.29500 642.000
46.31000 631.000
46.32500 661.000
46.34000 687.000
46.35500 652.000
46.37000 631.000
46.38500 642.000
46.40000 614.000
46.41500 597.000
46.43000 614.000
46.44500 625.000
46.46000 621.000
46.47500 631.000
46.49000 644.000
46.50500 630.000
46.52000 609.000
46.53500 620.000
46.55000 620.000
46.56500 601.000
46.58000 661.000
46.59500 657.000
46.61000 578.000
46.62500 617.000
46.64000 607.000
46.65500 634.000
46.67000 632.000
46.68500 610.000
46.70000 614.000
46.71500 611.000
46.73000 629.000
46.74500 589.000
46.76000 617.000
46.77500 611.000
46.79000 587.000
46.80500 634.000
46.82000 616.000
46.83500 607.000
46.85000 632.000
46.86500 617.000
46.88000 585.000
46.89500 561.000
46.91000 595.000
46.92500 620.000
46.94000 589.000
46.95500 624.000
46.97000 597.000
46.98500 624.000
47.00000 625.000
47.01500 606.000
47.03000 652.000
47.04500 626.000
47.06000 628.000
47.07500 620.000
47.09000 622.000
47.10500 575.000
47.12000 578.000
47.13500 628.000
47.15000 646.000
47.16500 626.000
47.18000 607.000
47.19500 616.000
47.21000 625.000
47.22500 607.000
47.24000 606.000
47.25500 613.000
47.27000 585.000
47.28500 608.000
47.30000 587.000
47.31500 596.000
47.33000 622.000
47.34500 623.000
47.36000 598.000
47.37500 637.000
47.39000 585.000
47.40500 555.000
47.42000 603.000
47.43500 651.000
47.45000 640.000
47.46500 595.000
47.48000 622.000
47.49500 645.000
47.51000 678.000
47.52500 682.000
47.54000 665.000
47.55500 668.000
47.57000 642.000
47.58500 585.000
47.60000 593.000
47.61500 616.000
47.63000 611.000
47.64500 602.000
47.66000 587.000
47.67500 632.000
47.69000 628.000
47.70500 583.000
47.72000 590.000
47.73500 612.000
47.75000 595.000
47.76500 584.000
47.78000 606.000
47.79500 612.000
47.81000 608.000
47.82500 574.000
47.84000 569.000
47.85500 568.000
47.87000 594.000
47.88500 603.000
47.90000 566.000
47.91500 588.000
47.93000 604.000
47.94500 598.000
47.96000 621.000
47.97500 564.000
47.99000 580.000
48.00500 613.000
48.02000 548.000
48.03500 556.000
48.05000 564.000
48.06500 567.000
48.08000 588.000
48.09500 592.000
48.11000 575.000
48.12500 583.000
48.14000 569.000
48.15500 585.000
48.17000 599.000
48.18500 583.000
48.20000 588.000
48.21500 587.000
48.23000 569.000
48.24500 578.000
48.26000 598.000
48.27500 589.000
48.29000 574.000
48.30500 607.000
48.32000 556.000
48.33500 567.000
48.35000 599.000
48.36500 574.000
48.38000 582.000
48.39500 552.000
48.41000 571.000
48.42500 587.000
48.44000 626.000
48.45500 587.000
48.47000 629.000
48.48500 639.000
48.50000 638.000
48.51500 644.000
48.53000 674.000
48.54500 656.000
48.56000 625.000
48.57500 614.000
48.59000 645.000
48.60500 602.000
48.62000 622.000
48.63500 575.000
48.65000 582.000
48.66500 554.000
48.68000 588.000
48.69500 580.000
48.71000 581.000
48.72500 575.000
48.74000 582.000
48.75500 590.000
48.77000 604.000
48.78500 577.000
48.80000 563.000
48.81500 574.000
48.83000 561.000
48.84500 551.000
48.86000 584.000
48.87500 601.000
48.89000 568.000
48.90500 559.000
48.92000 548.000
48.93500 536.000
48.95000 559.000
48.96500 547.000
48.98000 587.000
48.99500 566.000
49.01000 553.000
49.02500 583.000
49.04000 594.000
49.05500 545.000
49.07000 553.000
49.08500 583.000
49.10000 550.000
49.11500 542.000
49.13000 519.000
49.14500 554.000
49.16000 553.000
49.17500 546.000
49.19000 566.000
49.20500 530.000
49.22000 548.000
49.23500 557.000
49.25000 553.000
49.26500 515.000
49.28000 557.000
49.29500 533.000
49.31000 549.000
49.32500 583.000
49.34000 545.000
49.35500 507.000
49.37000 505.000
49.38500 550.000
49.40000 538.000
49.41500 532.000
49.43000 563.000
49.44500 551.000
49.46000 537.000
49.47500 543.000
49.49000 552.000
49.50500 554.000
49.52000 576.000
49.53500 560.000
49.55000 556.000
49.56500 572.000
49.58000 539.000
49.59500 581.000
49.61000 543.000
49.62500 526.000
49.64000 532.000
49.65500 511.000
49.67000 553.000
49.68500 571.000
49.70000 538.000
49.71500 568.000
49.73000 549.000
49.74500 544.000
49.76000 526.000
49.77500 510.000
49.79000 541.000
49.80500 550.000
49.82000 576.000
49.83500 529.000
49.85000 552.000
49.86500 516.000
49.88000 566.000
49.89500 558.000
49.91000 530.000
49.92500 555.000
49.94000 572.000
49.95500 498.000
49.97000 569.000
49.98500 552.000
50.00000 577.000
50.01500 558.000
50.03000 546.000
50.04500 556.000
50.06000 547.000
50.07500 546.000
50.09000 547.000
50.10500 542.000
50.12000 554.000
50.13500 563.000
50.15000 545.000
50.16500 530.000
50.18000 495.000
50.19500 554.000
50.21000 570.000
50.22500 605.000
50.24000 577.000
50.25500 553.000
50.27000 532.000
50.28500 530.000
50.30000 536.000
50.31500 549.000
50.33000 544.000
50.34500 488.000
50.36000 508.000
50.37500 518.000
50.39000 528.000
50.40500 551.000
50.42000 540.000
50.43500 559.000
50.45000 527.000
50.46500 504.000
50.48000 528.000
50.49500 533.000
50.51000 559.000
50.52500 536.000
50.54000 540.000
50.55500 544.000
50.57000 542.000
50.58500 557.000
50.60000 519.000
50.61500 525.000
50.63000 547.000
50.64500 531.000
50.66000 539.000
50.67500 533.000
50.69000 516.000
50.70500 500.000
50.72000 502.000
50.73500 538.000
50.75000 565.000
50.76500 529.000
50.78000 555.000
50.79500 532.000
50.81000 526.000
50.82500 534.000
50.84000 536.000
50.85500 557.000
50.87000 515.000
50.88500 538.000
50.90000 573.000
50.91500 567.000
50.93000 549.000
50.94500 538.000
50.96000 535.000
50.97500 552.000
50.99000 554.000
51.00500 517.000
51.02000 489.000
51.03500 500.000
51.05000 544.000
51.06500 538.000
51.08000 521.000
51.09500 548.000
51.11000 522.000
51.12500 533.000
51.14000 542.000
51.15500 570.000
51.17000 541.000
51.18500 523.000
51.20000 544.000
51.21500 539.000
51.23000 530.000
51.24500 504.000
51.26000 523.000
51.27500 527.000
51.29000 541.000
51.30500 552.000
51.32000 525.000
51.33500 554.000
51.35000 497.000
51.36500 583.000
51.38000 526.000
51.39500 522.000
51.41000 530.000
51.42500 532.000
51.44000 525.000
51.45500 512.000
51.47000 519.000
51.48500 567.000
51.50000 581.000
51.51500 511.000
51.53000 536.000
51.54500 534.000
51.56000 569.000
51.57500 520.000
51.59000 530.000
51.60500 534.000
51.62000 520.000
51.63500 511.000
51.65000 524.000
51.66500 547.000
51.68000 498.000
51.69500 526.000
51.71000 534.000
51.72500 563.000
51.74000 527.000
51.75500 514.000
51.77000 531.000
51.78500 532.000
51.80000 506.000
51.81500 512.000
51.83000 506.000
51.84500 500.000
51.86000 546.000
51.87500 552.000
51.89000 529.000
51.90500 526.000
51.92000 540.000
51.93500 514.000
51.95000 512.000
51.96500 526.000
51.98000 506.000
51.99500 518.000
52.01000 570.000
52.02500 527.000
52.04000 532.000
52.05500 530.000
52.07000 527.000
52.08500 553.000
52.10000 565.000
52.11500 527.000
52.13000 498.000
52.14500 513.000
52.16000 524.000
52.17500 506.000
52.19000 540.000
52.20500 540.000
52.22000 510.000
52.23500 517.000
52.25000 519.000
52.26500 524.000
52.28000 542.000
52.29500 504.000
52.31000 556.000
52.32500 531.000
52.34000 520.000
52.35500 526.000
52.37000 499.000
52.38500 512.000
52.40000 514.000
52.41500 531.000
52.43000 548.000
52.44500 505.000
52.46000 498.000
52.47500 522.000
52.49000 521.000
52.50500 503.000
52.52000 545.000
52.53500 525.000
52.55000 527.000
52.56500 511.000
52.58000 512.000
52.59500 502.000
52.61000 520.000
52.62500 521.000
52.64000 508.000
52.65500 512.000
52.67000 534.000
52.68500 532.000
52.70000 489.000
52.71500 499.000
52.73000 515.000
52.74500 512.000
52.76000 532.000
52.77500 528.000
52.79000 532.000
52.80500 556.000
52.82000 547.000
52.83500 535.000
52.85000 520.000
52.86500 517.000
52.88000 509.000
52.89500 508.000
52.91000 481.000
52.92500 526.000
52.94000 521.000
52.95500 476.000
52.97000 501.000
52.98500 498.000
53.00000 526.000
53.01500 548.000
53.03000 557.000
53.04500 532.000
53.06000 511.000
53.07500 513.000
53.09000 517.000
53.10500 488.000
53.12000 512.000
53.13500 518.000
53.15000 513.000
53.16500 517.000
53.18000 505.000
53.19500 489.000
53.21000 534.000
53.22500 529.000
53.24000 496.000
53.25500 506.000
53.27000 526.000
53.28500 530.000
53.30000 489.000
53.31500 516.000
53.33000 516.000
53.34500 509.000
53.36000 542.000
53.37500 525.000
53.39000 536.000
53.40500 509.000
53.42000 476.000
53.43500 503.000
53.45000 484.000
53.46500 502.000
53.48000 504.000
53.49500 516.000
53.51000 513.000
53.52500 509.000
53.54000 495.000
53.55500 497.000
53.57000 516.000
53.58500 524.000
53.60000 535.000
53.61500 514.000
53.63000 498.000
53.64500 482.000
53.66000 492.000
53.67500 479.000
53.69000 497.000
53.70500 519.000
53.72000 512.000
53.73500 489.000
53.75000 486.000
53.76500 512.000
53.78000 490.000
53.79500 509.000
53.81000 524.000
53.82500 532.000
53.84000 491.000
53.85500 500.000
53.87000 504.000
53.88500 489.000
53.90000 488.000
53.91500 492.000
53.93000 501.000
53.94500 513.000
53.96000 521.000
53.97500 501.000
53.99000 483.000
54.00500 492.000
54.02000 533.000
54.03500 504.000
54.05000 523.000
54.06500 498.000
54.08000 484.000
54.09500 511.000
54.11000 524.000
54.12500 515.000
54.14000 504.000
54.15500 504.000
54.17000 485.000
54.18500 473.000
54.20000 472.000
54.21500 505.000
54.23000 513.000
54.24500 524.000
54.26000 526.000
54.27500 577.000
54.29000 637.000
54.30500 670.000
54.32000 677.000
54.33500 707.000
54.35000 661.000
54.36500 598.000
54.38000 551.000
54.39500 512.000
54.41000 494.000
54.42500 505.000
54.44000 498.000
54.45500 480.000
54.47000 502.000
54.48500 538.000
54.50000 496.000
54.51500 495.000
54.53000 501.000
54.54500 503.000
54.56000 509.000
54.57500 497.000
54.59000 501.000
54.60500 503.000
54.62000 494.000
54.63500 505.000
54.65000 514.000
54.66500 479.000
54.68000 522.000
54.69500 479.000
54.71000 488.000
54.72500 531.000
54.74000 502.000
54.75500 495.000
54.77000 501.000
54.78500 505.000
54.80000 489.000
54.81500 501.000
54.83000 502.000
54.84500 507.000
54.86000 499.000
54.87500 469.000
54.89000 486.000
54.90500 505.000
54.92000 471.000
54.93500 487.000
54.95000 488.000
54.96500 464.000
54.98000 497.000
54.99500 490.000
55.01000 520.000
55.02500 502.000
55.04000 468.000
55.05500 544.000
55.07000 545.000
55.08500 536.000
55.10000 505.000
55.11500 503.000
55.13000 494.000
55.14500 482.000
55.16000 506.000
55.17500 482.000
55.19000 490.000
55.20500 489.000
55.22000 476.000
55.23500 506.000
55.25000 539.000
55.26500 490.000
55.28000 485.000
55.29500 507.000
55.31000 511.000
55.32500 502.000
55.34000 513.000
55.35500 500.000
55.37000 501.000
55.38500 511.000
55.40000 539.000
55.41500 490.000
55.43000 515.000
55.44500 512.000
55.46000 494.000
55.47500 518.000
55.49000 512.000
55.50500 508.000
55.52000 548.000
55.53500 502.000
55.55000 506.000
55.56500 510.000
55.58000 493.000
55.59500 516.000
55.61000 523.000
55.62500 505.000
55.64000 521.000
55.65500 493.000
55.67000 511.000
55.68500 478.000
55.70000 512.000
55.71500 519.000
55.73000 545.000
55.74500 540.000
55.76000 548.000
55.77500 540.000
55.79000 520.000
55.80500 526.000
55.82000 515.000
55.83500 560.000
55.85000 526.000
55.86500 497.000
55.88000 480.000
55.89500 510.000
55.91000 524.000
55.92500 512.000
55.94000 518.000
55.95500 510.000
55.97000 531.000
55.98500 522.000
56.00000 504.000
56.01500 562.000
56.03000 572.000
56.04500 524.000
56.06000 499.000
56.07500 518.000
56.09000 553.000
56.10500 522.000
56.12000 522.000
56.13500 505.000
56.15000 487.000
56.16500 541.000
56.18000 525.000
56.19500 552.000
56.21000 550.000
56.22500 559.000
56.24000 584.000
56.25500 558.000
56.27000 529.000
56.28500 546.000
56.30000 533.000
56.31500 520.000
56.33000 501.000
56.34500 511.000
56.36000 516.000
56.37500 538.000
56.39000 559.000
56.40500 568.000
56.42000 568.000
56.43500 550.000
56.45000 536.000
56.46500 542.000
56.48000 541.000
56.49500 568.000
56.51000 550.000
56.52500 561.000
56.54000 580.000
56.55500 550.000
56.57000 564.000
56.58500 599.000
56.60000 635.000
56.61500 612.000
56.63000 583.000
56.64500 619.000
56.66000 611.000
56.67500 573.000
56.69000 538.000
56.70500 525.000
56.72000 536.000
56.73500 559.000
56.75000 515.000
56.76500 545.000
56.78000 577.000
56.79500 564.000
56.81000 529.000
56.82500 575.000
56.84000 543.000
56.85500 552.000
56.87000 539.000
56.88500 542.000
56.90000 558.000
56.91500 548.000
56.93000 546.000
56.94500 533.000
56.96000 521.000
56.97500 530.000
56.99000 548.000
57.00500 534.000
57.02000 491.000
57.03500 536.000
57.05000 529.000
57.06500 586.000
57.08000 570.000
57.09500 555.000
57.11000 522.000
57.12500 513.000
57.14000 528.000
57.15500 530.000
57.17000 535.000
57.18500 541.000
57.20000 541.000
57.21500 537.000
57.23000 551.000
57.24500 540.000
57.26000 537.000
57.27500 545.000
57.29000 542.000
57.30500 528.000
57.32000 536.000
57.33500 535.000
57.35000 541.000
57.36500 510.000
57.38000 563.000
57.39500 583.000
57.41000 574.000
57.42500 583.000
57.44000 552.000
57.45500 542.000
57.47000 546.000
57.48500 566.000
57.50000 532.000
57.51500 540.000
57.53000 508.000
57.54500 508.000
57.56000 505.000
57.57500 486.000
57.59000 533.000
57.60500 522.000
57.62000 485.000
57.63500 481.000
57.65000 507.000
57.66500 518.000
57.68000 515.000
57.69500 497.000
57.71000 511.000
57.72500 510.000
57.74000 507.000
57.75500 514.000
57.77000 462.000
57.78500 464.000
57.80000 463.000
57.81500 504.000
57.83000 490.000
57.84500 462.000
57.86000 455.000
57.87500 482.000
57.89000 482.000
57.90500 485.000
57.92000 458.000
57.93500 466.000
57.95000 448.000
57.96500 452.000
57.98000 482.000
57.99500 477.000
58.01000 513.000
58.02500 489.000
58.04000 449.000
58.05500 484.000
58.07000 465.000
58.08500 488.000
58.10000 468.000
58.11500 460.000
58.13000 449.000
58.14500 476.000
58.16000 488.000
58.17500 514.000
58.19000 487.000
58.20500 459.000
58.22000 477.000
58.23500 449.000
58.25000 449.000
58.26500 451.000
58.28000 440.000
58.29500 437.000
58.31000 471.000
58.32500 459.000
58.34000 433.000
58.35500 434.000
58.37000 439.000
58.38500 443.000
58.40000 460.000
58.41500 460.000
58.43000 457.000
58.44500 466.000
58.46000 491.000
58.47500 470.000
58.49000 446.000
58.50500 430.000
58.52000 445.000
58.53500 448.000
58.55000 425.000
58.56500 410.000
58.58000 430.000
58.59500 458.000
58.61000 434.000
58.62500 432.000
58.64000 421.000
58.65500 431.000
58.67000 454.000
58.68500 433.000
58.70000 412.000
58.71500 397.000
58.73000 431.000
58.74500 417.000
58.76000 436.000
58.77500 452.000
58.79000 453.000
58.80500 454.000
58.82000 449.000
58.83500 425.000
58.85000 426.000
58.86500 424.000
58.88000 408.000
58.89500 430.000
58.91000 448.000
58.92500 421.000
58.94000 413.000
58.95500 431.000
58.97000 447.000
58.98500 447.000
59.00000 438.000
59.01500 418.000
59.03000 428.000
59.04500 429.000
59.06000 447.000
59.07500 455.000
59.09000 453.000
59.10500 429.000
59.12000 454.000
59.13500 466.000
59.15000 445.000
59.16500 399.000
59.18000 428.000
59.19500 408.000
59.21000 419.000
59.22500 416.000
59.24000 400.000
59.25500 399.000
59.27000 399.000
59.28500 415.000
59.30000 444.000
59.31500 448.000
59.33000 407.000
59.34500 400.000
59.36000 402.000
59.37500 382.000
59.39000 392.000
59.40500 410.000
59.42000 436.000
59.43500 432.000
59.45000 430.000
59.46500 426.000
59.48000 419.000
59.49500 420.000
59.51000 414.000
59.52500 425.000
59.54000 428.000
59.55500 398.000
59.57000 399.000
59.58500 429.000
59.60000 399.000
59.61500 396.000
59.63000 395.000
59.64500 403.000
59.66000 395.000
59.67500 399.000
59.69000 438.000
59.70500 409.000
59.72000 418.000
59.73500 403.000
59.75000 410.000
59.76500 404.000
59.78000 408.000
59.79500 411.000
59.81000 394.000
59.82500 410.000
59.84000 424.000
59.85500 416.000
59.87000 416.000
59.88500 422.000
59.90000 402.000
59.91500 378.000
59.93000 380.000
59.94500 395.000
59.96000 391.000
59.97500 428.000
59.99000 413.000
60.00500 413.000
60.02000 391.000
60.03500 385.000
60.05000 377.000
60.06500 377.000
60.08000 399.000
60.09500 400.000
60.11000 431.000
60.12500 395.000
60.14000 409.000
60.15500 414.000
60.17000 406.000
60.18500 415.000
60.20000 410.000
60.21500 393.000
60.23000 389.000
60.24500 369.000
60.26000 365.000
60.27500 385.000
60.29000 404.000
60.30500 407.000
60.32000 384.000
60.33500 395.000
60.35000 428.000
60.36500 384.000
60.38000 407.000
60.39500 409.000
60.41000 408.000
60.42500 404.000
60.44000 393.000
60.45500 383.000
60.47000 368.000
60.48500 398.000
60.50000 399.000
60.51500 390.000
60.53000 387.000
60.54500 420.000
60.56000 396.000
60.57500 387.000
60.59000 422.000
60.60500 396.000
60.62000 416.000
60.63500 433.000
60.65000 413.000
60.66500 430.000
60.68000 424.000
60.69500 382.000
60.71000 437.000
60.72500 424.000
60.74000 398.000
60.75500 406.000
60.77000 404.000
60.78500 410.000
60.80000 424.000
60.81500 390.000
60.83000 368.000
60.84500 392.000
60.86000 404.000
60.87500 383.000
60.89000 385.000
60.90500 409.000
60.92000 384.000
60.93500 383.000
60.95000 360.000
60.96500 359.000
60.98000 352.000
60.99500 410.000
61.01000 388.000
61.02500 397.000
61.04000 429.000
61.05500 413.000
61.07000 398.000
61.08500 378.000
61.10000 390.000
61.11500 383.000
61.13000 368.000
61.14500 363.000
61.16000 377.000
61.17500 374.000
61.19000 363.000
61.20500 361.000
61.22000 376.000
61.23500 390.000
61.25000 404.000
61.26500 375.000
61.28000 380.000
61.29500 400.000
61.31000 386.000
61.32500 417.000
61.34000 383.000
61.35500 375.000
61.37000 372.000
61.38500 385.000
61.40000 389.000
61.41500 385.000
61.43000 388.000
61.44500 403.000
61.46000 371.000
61.47500 391.000
61.49000 350.000
61.50500 365.000
61.52000 368.000
61.53500 380.000
61.55000 358.000
61.56500 379.000
61.58000 395.000
61.59500 374.000
61.61000 386.000
61.62500 359.000
61.64000 373.000
61.65500 411.000
61.67000 392.000
61.68500 397.000
61.70000 382.000
61.71500 406.000
61.73000 399.000
61.74500 388.000
61.76000 383.000
61.77500 352.000
61.79000 374.000
61.80500 384.000
61.82000 377.000
61.83500 381.000
61.85000 377.000
61.86500 376.000
61.88000 387.000
61.89500 388.000
61.91000 380.000
61.92500 357.000
61.94000 402.000
61.95500 354.000
61.97000 355.000
61.98500 380.000
