2.00000 629.000
2.01500 592.000
2.03000 623.000
2.04500 585.000
2.06000 568.000
2.07500 541.000
2.09000 558.000
2.10500 536.000
2.12000 550.000
2.13500 537.000
2.15000 578.000
2.16500 537.000
2.18000 556.000
2.19500 538.000
2.21000 512.000
2.22500 514.000
2.24000 493.000
2.25500 486.000
2.27000 495.000
2.28500 465.000
2.30000 455.000
2.31500 504.000
2.33000 485.000
2.34500 442.000
2.36000 444.000
2.37500 444.000
2.39000 443.000
2.40500 437.000
2.42000 457.000
2.43500 414.000
2.45000 429.000
2.46500 415.000
2.48000 406.000
2.49500 430.000
2.51000 441.000
2.52500 436.000
2.54000 413.000
2.55500 411.000
2.57000 410.000
2.58500 416.000
2.60000 392.000
2.61500 396.000
2.63000 403.000
2.64500 394.000
2.66000 406.000
2.67500 405.000
2.69000 376.000
2.70500 382.000
2.72000 374.000
2.73500 386.000
2.75000 383.000
2.76500 363.000
2.78000 380.000
2.79500 350.000
2.81000 363.000
2.82500 401.000
2.84000 389.000
2.85500 359.000
2.87000 344.000
2.88500 342.000
2.90000 357.000
2.91500 344.000
2.93000 329.000
2.94500 365.000
2.96000 373.000
2.97500 372.000
2.99000 363.000
3.00500 370.000
3.02000 330.000
3.03500 350.000
3.05000 360.000
3.06500 334.000
3.08000 326.000
3.09500 357.000
3.11000 327.000
3.12500 365.000
3.14000 343.000
3.15500 347.000
3.17000 335.000
3.18500 334.000
3.20000 319.000
3.21500 335.000
3.23000 341.000
3.24500 339.000
3.26000 329.000
3.27500 322.000
3.29000 335.000
3.30500 350.000
3.32000 321.000
3.33500 334.000
3.35000 354.000
3.36500 330.000
3.38000 346.000
3.39500 364.000
3.41000 333.000
3.42500 330.000
3.44000 321.000
3.45500 338.000
3.47000 319.000
3.48500 328.000
3.50000 338.000
3.51500 306.000
3.53000 318.000
3.54500 313.000
3.56000 315.000
3.57500 298.000
3.59000 316.000
3.60500 292.000
3.62000 323.000
3.63500 331.000
3.65000 291.000
3.66500 285.000
3.68000 308.000
3.69500 299.000
3.71000 307.000
3.72500 306.000
3.74000 297.000
3.75500 319.000
3.77000 322.000
3.78500 299.000
3.80000 325.000
3.81500 333.000
3.83000 334.000
3.84500 315.000
3.86000 298.000
3.87500 317.000
3.89000 312.000
3.90500 297.000
3.92000 299.000
3.93500 319.000
3.95000 322.000
3.96500 312.000
3.98000 287.000
3.99500 330.000
4.01000 326.000
4.02500 319.000
4.04000 323.000
4.05500 288.000
4.07000 313.000
4.08500 314.000
4.10000 311.000
4.11500 303.000
4.13000 315.000
4.14500 299.000
4.16000 297.000
4.17500 279.000
4.19000 305.000
4.20500 300.000
4.22000 317.000
4.23500 317.000
4.25000 300.000
4.26500 292.000
4.28000 314.000
4.29500 307.000
4.31000 299.000
4.32500 271.000
4.34000 312.000
4.35500 343.000
4.37000 292.000
4.38500 289.000
4.40000 292.000
4.41500 302.000
4.43000 320.000
4.44500 305.000
4.46000 289.000
4.47500 289.000
4.49000 298.000
4.50500 292.000
4.52000 307.000
4.53500 313.000
4.55000 292.000
4.56500 310.000
4.58000 303.000
4.59500 299.000
4.61000 314.000
4.62500 304.000
4.64000 300.000
4.65500 295.000
4.67000 306.000
4.68500 282.000
4.70000 257.000
4.71500 281.000
4.73000 292.000
4.74500 315.000
4.76000 285.000
4.77500 308.000
4.79000 300.000
4.80500 303.000
4.82000 307.000
4.83500 297.000
4.85000 312.000
4.86500 304.000
4.88000 313.000
4.89500 298.000
4.91000 269.000
4.92500 297.000
4.94000 308.000
4.95500 309.000
4.97000 288.000
4.98500 286.000
5.00000 314.000
5.01500 317.000
5.03000 291.000
5.04500 309.000
5.06000 280.000
5.07500 334.000
5.09000 328.000
5.10500 310.000
5.12000 280.000
5.13500 294.000
5.15000 287.000
5.16500 305.000
5.18000 300.000
5.19500 322.000
5.21000 302.000
5.22500 321.000
5.24000 315.000
5.25500 285.000
5.27000 301.000
5.28500 298.000
5.30000 276.000
5.31500 306.000
5.33000 299.000
5.34500 280.000
5.36000 288.000
5.37500 292.000
5.39000 296.000
5.40500 305.000
5.42000 297.000
5.43500 307.000
5.45000 322.000
5.46500 296.000
5.48000 309.000
5.49500 293.000
5.51000 302.000
5.52500 307.000
5.54000 295.000
5.55500 279.000
5.57000 326.000
5.58500 300.000
5.60000 325.000
5.61500 297.000
5.63000 303.000
5.64500 305.000
5.66000 308.000
5.67500 322.000
5.69000 316.000
5.70500 304.000
5.72000 311.000
5.73500 339.000
5.75000 322.000
5.76500 322.000
5.78000 299.000
5.79500 309.000
5.81000 314.000
5.82500 301.000
5.84000 294.000
5.85500 303.000
5.87000 303.000
5.88500 305.000
5.90000 328.000
5.91500 308.000
5.93000 305.000
5.94500 313.000
5.96000 300.000
5.97500 319.000
5.99000 291.000
6.00500 304.000
6.02000 305.000
6.03500 315.000
6.05000 289.000
6.06500 327.000
6.08000 300.000
6.09500 313.000
6.11000 317.000
6.12500 315.000
6.14000 304.000
6.15500 308.000
6.17000 298.000
6.18500 297.000
6.20000 307.000
6.21500 316.000
6.23000 305.000
6.24500 319.000
6.26000 318.000
6.27500 307.000
6.29000 294.000
6.30500 315.000
6.32000 292.000
6.33500 321.000
6.35000 332.000
6.36500 309.000
6.38000 297.000
6.39500 318.000
6.41000 324.000
6.42500 302.000
6.44000 313.000
6.45500 317.000
6.47000 318.000
6.48500 326.000
6.50000 314.000
6.51500 324.000
6.53000 367.000
6.54500 324.000
6.56000 335.000
6.57500 321.000
6.59000 298.000
6.60500 321.000
6.62000 326.000
6.63500 323.000
6.65000 322.000
6.66500 330.000
6.68000 350.000
6.69500 328.000
6.71000 297.000
6.72500 303.000
6.74000 298.000
6.75500 339.000
6.77000 315.000
6.78500 320.000
6.80000 323.000
6.81500 311.000
6.83000 287.000
6.84500 319.000
6.86000 335.000
6.87500 345.000
6.89000 318.000
6.90500 313.000
6.92000 349.000
6.93500 341.000
6.95000 307.000
6.96500 275.000
6.98000 286.000
6.99500 320.000
7.01000 329.000
7.02500 290.000
7.04000 318.000
7.05500 298.000
7.07000 301.000
7.08500 337.000
7.10000 309.000
7.11500 323.000
7.13000 335.000
7.14500 345.000
7.16000 322.000
7.17500 343.000
7.19000 326.000
7.20500 308.000
7.22000 335.000
7.23500 324.000
7.25000 315.000
7.26500 313.000
7.28000 328.000
7.29500 338.000
7.31000 337.000
7.32500 338.000
7.34000 328.000
7.35500 345.000
7.37000 302.000
7.38500 329.000
7.40000 327.000
7.41500 302.000
7.43000 357.000
7.44500 344.000
7.46000 337.000
7.47500 329.000
7.49000 341.000
7.50500 336.000
7.52000 336.000
7.53500 336.000
7.55000 326.000
7.56500 323.000
7.58000 320.000
7.59500 310.000
7.61000 322.000
7.62500 340.000
7.64000 347.000
7.65500 324.000
7.67000 332.000
7.68500 327.000
7.70000 332.000
7.71500 333.000
7.73000 339.000
7.74500 312.000
7.76000 345.000
7.77500 324.000
7.79000 317.000
7.80500 332.000
7.82000 331.000
7.83500 321.000
7.85000 326.000
7.86500 327.000
7.88000 329.000
7.89500 320.000
7.91000 311.000
7.92500 331.000
7.94000 340.000
7.95500 339.000
7.97000 348.000
7.98500 356.000
8.00000 330.000
8.01500 364.000
8.03000 334.000
8.04500 335.000
8.06000 339.000
8.07500 319.000
8.09000 322.000
8.10500 346.000
8.12000 350.000
8.13500 342.000
8.15000 358.000
8.16500 353.000
8.18000 371.000
8.19500 350.000
8.21000 345.000
8.22500 363.000
8.24000 362.000
8.25500 331.000
8.27000 366.000
8.28500 329.000
8.30000 341.000
8.31500 360.000
8.33000 368.000
8.34500 380.000
8.36000 361.000
8.37500 377.000
8.39000 381.000
8.40500 385.000
8.42000 380.000
8.43500 350.000
8.45000 348.000
8.46500 373.000
8.48000 364.000
8.49500 368.000
8.51000 357.000
8.52500 381.000
8.54000 375.000
8.55500 374.000
8.57000 373.000
8.58500 360.000
8.60000 354.000
8.61500 363.000
8.63000 349.000
8.64500 336.000
8.66000 344.000
8.67500 347.000
8.69000 332.000
8.70500 338.000
8.72000 353.000
8.73500 362.000
8.75000 387.000
8.76500 367.000
8.78000 366.000
8.79500 351.000
8.81000 358.000
8.82500 378.000
8.84000 359.000
8.85500 342.000
8.87000 366.000
8.88500 386.000
8.90000 384.000
8.91500 354.000
8.93000 337.000
8.94500 338.000
8.96000 345.000
8.97500 343.000
8.99000 354.000
9.00500 325.000
9.02000 325.000
9.03500 360.000
9.05000 330.000
9.06500 362.000
9.08000 357.000
9.09500 359.000
9.11000 372.000
9.12500 341.000
9.14000 353.000
9.15500 335.000
9.17000 331.000
9.18500 331.000
9.20000 348.000
9.21500 335.000
9.23000 332.000
9.24500 362.000
9.26000 372.000
9.27500 339.000
9.29000 331.000
9.30500 331.000
9.32000 348.000
9.33500 344.000
9.35000 354.000
9.36500 354.000
9.38000 358.000
9.39500 346.000
9.41000 341.000
9.42500 365.000
9.44000 355.000
9.45500 372.000
9.47000 344.000
9.48500 349.000
9.50000 362.000
9.51500 343.000
9.53000 327.000
9.54500 343.000
9.56000 351.000
9.57500 353.000
9.59000 331.000
9.60500 333.000
9.62000 351.000
9.63500 373.000
9.65000 357.000
9.66500 353.000
9.68000 344.000
9.69500 359.000
9.71000 333.000
9.72500 369.000
9.74000 389.000
9.75500 364.000
9.77000 347.000
9.78500 342.000
9.80000 373.000
9.81500 346.000
9.83000 374.000
9.84500 348.000
9.86000 366.000
9.87500 353.000
9.89000 357.000
9.90500 332.000
9.92000 351.000
9.93500 383.000
9.95000 368.000
9.96500 386.000
9.98000 390.000
9.99500 398.000
10.01000 377.000
10.02500 409.000
10.04000 436.000
10.05500 439.000
10.07000 430.000
10.08500 456.000
10.10000 495.000
10.11500 481.000
10.13000 471.000
10.14500 491.000
10.16000 435.000
10.17500 382.000
10.19000 427.000
10.20500 372.000
10.22000 394.000
10.23500 409.000
10.25000 358.000
10.26500 355.000
10.28000 366.000
10.29500 365.000
10.31000 380.000
10.32500 384.000
10.34000 402.000
10.35500 391.000
10.37000 396.000
10.38500 376.000
10.40000 364.000
10.41500 391.000
10.43000 403.000
10.44500 395.000
10.46000 386.000
10.47500 420.000
10.49000 431.000
10.50500 422.000
10.52000 423.000
10.53500 433.000
10.55000 439.000
10.56500 428.000
10.58000 477.000
10.59500 504.000
10.61000 540.000
10.62500 557.000
10.64000 569.000
10.65500 627.000
10.67000 689.000
10.68500 809.000
10.70000 860.000
10.71500 869.000
10.73000 878.000
10.74500 772.000
10.76000 670.000
10.77500 561.000
10.79000 494.000
10.80500 490.000
10.82000 472.000
10.83500 444.000
10.85000 466.000
10.86500 452.000
10.88000 451.000
10.89500 440.000
10.91000 440.000
10.92500 429.000
10.94000 451.000
10.95500 450.000
10.97000 459.000
10.98500 463.000
11.00000 480.000
11.01500 425.000
11.03000 439.000
11.04500 419.000
11.06000 467.000
11.07500 455.000
11.09000 440.000
11.10500 447.000
11.12000 464.000
11.13500 486.000
11.15000 449.000
11.16500 472.000
11.18000 496.000
11.19500 508.000
11.21000 475.000
11.22500 471.000
11.24000 468.000
11.25500 466.000
11.27000 469.000
11.28500 457.000
11.30000 457.000
11.31500 476.000
11.33000 490.000
11.34500 479.000
11.36000 470.000
11.37500 519.000
11.39000 507.000
11.40500 482.000
11.42000 488.000
11.43500 501.000
11.45000 477.000
11.46500 485.000
11.48000 500.000
11.49500 493.000
11.51000 473.000
11.52500 459.000
11.54000 523.000
11.55500 529.000
11.57000 511.000
11.58500 487.000
11.60000 468.000
11.61500 464.000
11.63000 461.000
11.64500 477.000
11.66000 465.000
11.67500 471.000
11.69000 477.000
11.70500 444.000
11.72000 458.000
11.73500 454.000
11.75000 450.000
11.76500 455.000
11.78000 442.000
11.79500 449.000
11.81000 457.000
11.82500 484.000
11.84000 464.000
11.85500 454.000
11.87000 465.000
11.88500 492.000
11.90000 527.000
11.91500 502.000
11.93000 539.000
11.94500 568.000
11.96000 602.000
11.97500 664.000
11.99000 719.000
12.00500 806.000
12.02000 839.000
12.03500 937.000
12.05000 953.000
12.06500 956.000
12.08000 889.000
12.09500 739.000
12.11000 612.000
12.12500 530.000
12.14000 471.000
12.15500 405.000
12.17000 389.000
12.18500 391.000
12.20000 376.000
12.21500 355.000
12.23000 384.000
12.24500 384.000
12.26000 337.000
12.27500 356.000
12.29000 360.000
12.30500 362.000
12.32000 342.000
12.33500 339.000
12.35000 311.000
12.36500 330.000
12.38000 345.000
12.39500 329.000
12.41000 335.000
12.42500 337.000
12.44000 336.000
12.45500 340.000
12.47000 322.000
12.48500 342.000
12.50000 344.000
12.51500 329.000
12.53000 346.000
12.54500 356.000
12.56000 366.000
12.57500 349.000
12.59000 336.000
12.60500 364.000
12.62000 323.000
12.63500 355.000
12.65000 411.000
12.66500 424.000
12.68000 431.000
12.69500 444.000
12.71000 488.000
12.72500 510.000
12.74000 483.000
12.75500 477.000
12.77000 446.000
12.78500 420.000
12.80000 406.000
12.81500 381.000
12.83000 375.000
12.84500 395.000
12.86000 381.000
12.87500 372.000
12.89000 360.000
12.90500 378.000
12.92000 324.000
12.93500 326.000
12.95000 334.000
12.96500 321.000
12.98000 321.000
12.99500 354.000
13.01000 351.000
13.02500 320.000
13.04000 323.000
13.05500 336.000
13.07000 341.000
13.08500 333.000
13.10000 328.000
13.11500 313.000
13.13000 306.000
13.14500 308.000
13.16000 343.000
13.17500 333.000
13.19000 341.000
13.20500 314.000
13.22000 318.000
13.23500 314.000
13.25000 298.000
13.26500 321.000
13.28000 330.000
13.29500 323.000
13.31000 336.000
13.32500 308.000
13.34000 307.000
13.35500 314.000
13.37000 322.000
13.38500 325.000
13.40000 294.000
13.41500 313.000
13.43000 315.000
13.44500 307.000
13.46000 311.000
13.47500 300.000
13.49000 304.000
13.50500 313.000
13.52000 314.000
13.53500 303.000
13.55000 309.000
13.56500 306.000
13.58000 330.000
13.59500 294.000
13.61000 309.000
13.62500 336.000
13.64000 287.000
13.65500 277.000
13.67000 294.000
13.68500 289.000
13.70000 306.000
13.71500 298.000
13.73000 315.000
13.74500 288.000
13.76000 317.000
13.77500 318.000
13.79000 319.000
13.80500 317.000
13.82000 290.000
13.83500 293.000
13.85000 308.000
13.86500 290.000
13.88000 302.000
13.89500 306.000
13.91000 305.000
13.92500 288.000
13.94000 285.000
13.95500 271.000
13.97000 304.000
13.98500 300.000
14.00000 300.000
14.01500 305.000
14.03000 278.000
14.04500 300.000
14.06000 295.000
14.07500 296.000
14.09000 292.000
14.10500 276.000
14.12000 290.000
14.13500 286.000
14.15000 305.000
14.16500 319.000
14.18000 310.000
14.19500 312.000
14.21000 316.000
14.22500 323.000
14.24000 298.000
14.25500 297.000
14.27000 275.000
14.28500 308.000
14.30000 286.000
14.31500 308.000
14.33000 291.000
14.34500 309.000
14.36000 302.000
14.37500 296.000
14.39000 277.000
14.40500 306.000
14.42000 299.000
14.43500 300.000
14.45000 279.000
14.46500 320.000
14.48000 313.000
14.49500 315.000
14.51000 328.000
14.52500 315.000
14.54000 277.000
14.55500 315.000
14.57000 322.000
14.58500 308.000
14.60000 306.000
14.61500 309.000
14.63000 306.000
14.64500 280.000
14.66000 307.000
14.67500 308.000
14.69000 299.000
14.70500 286.000
14.72000 314.000
14.73500 307.000
14.75000 283.000
14.76500 306.000
14.78000 281.000
14.79500 286.000
14.81000 275.000
14.82500 288.000
14.84000 292.000
14.85500 305.000
14.87000 285.000
14.88500 276.000
14.90000 287.000
14.91500 285.000
14.93000 295.000
14.94500 291.000
14.96000 297.000
14.97500 279.000
14.99000 274.000
15.00500 292.000
15.02000 287.000
15.03500 273.000
15.05000 295.000
15.06500 284.000
15.08000 296.000
15.09500 293.000
15.11000 299.000
15.12500 290.000
15.14000 282.000
15.15500 272.000
15.17000 290.000
15.18500 252.000
15.20000 276.000
15.21500 289.000
15.23000 303.000
15.24500 274.000
15.26000 289.000
15.27500 275.000
15.29000 279.000
15.30500 275.000
15.32000 280.000
15.33500 290.000
15.35000 269.000
15.36500 283.000
15.38000 287.000
15.39500 297.000
15.41000 287.000
15.42500 294.000
15.44000 272.000
15.45500 302.000
15.47000 289.000
15.48500 275.000
15.50000 251.000
15.51500 288.000
15.53000 291.000
15.54500 309.000
15.56000 290.000
15.57500 293.000
15.59000 297.000
15.60500 305.000
15.62000 302.000
15.63500 276.000
15.65000 275.000
15.66500 299.000
15.68000 276.000
15.69500 307.000
15.71000 298.000
15.72500 283.000
15.74000 280.000
15.75500 279.000
15.77000 289.000
15.78500 284.000
15.80000 267.000
15.81500 274.000
15.83000 285.000
15.84500 290.000
15.86000 299.000
15.87500 319.000
15.89000 312.000
15.90500 313.000
15.92000 283.000
15.93500 302.000
15.95000 302.000
15.96500 301.000
15.98000 303.000
15.99500 288.000
16.01000 278.000
16.02500 304.000
16.04000 283.000
16.05500 302.000
16.07000 310.000
16.08500 297.000
16.10000 297.000
16.11500 257.000
16.13000 295.000
16.14500 306.000
16.16000 302.000
16.17500 310.000
16.19000 310.000
16.20500 313.000
16.22000 313.000
16.23500 344.000
16.25000 325.000
16.26500 332.000
16.28000 325.000
16.29500 320.000
16.31000 340.000
16.32500 330.000
16.34000 342.000
16.35500 342.000
16.37000 303.000
16.38500 320.000
16.40000 324.000
16.41500 298.000
16.43000 293.000
16.44500 292.000
16.46000 278.000
16.47500 305.000
16.49000 317.000
16.50500 317.000
16.52000 311.000
16.53500 306.000
16.55000 283.000
16.56500 264.000
16.58000 300.000
16.59500 275.000
16.61000 281.000
16.62500 305.000
16.64000 286.000
16.65500 269.000
16.67000 294.000
16.68500 256.000
16.70000 278.000
16.71500 288.000
16.73000 296.000
16.74500 295.000
16.76000 282.000
16.77500 279.000
16.79000 309.000
16.80500 299.000
16.82000 293.000
16.83500 280.000
16.85000 275.000
16.86500 290.000
16.88000 280.000
16.89500 291.000
16.91000 298.000
16.92500 285.000
16.94000 290.000
16.95500 315.000
16.97000 309.000
16.98500 312.000
17.00000 275.000
17.01500 315.000
17.03000 317.000
17.04500 301.000
17.06000 306.000
17.07500 300.000
17.09000 300.000
17.10500 318.000
17.12000 304.000
17.13500 298.000
17.15000 307.000
17.16500 318.000
17.18000 293.000
17.19500 322.000
17.21000 331.000
17.22500 321.000
17.24000 327.000
17.25500 343.000
17.27000 311.000
17.28500 338.000
17.30000 340.000
17.31500 362.000
17.33000 357.000
17.34500 347.000
17.36000 317.000
17.37500 318.000
17.39000 308.000
17.40500 336.000
17.42000 352.000
17.43500 313.000
17.45000 313.000
17.46500 305.000
17.48000 286.000
17.49500 331.000
17.51000 318.000
17.52500 297.000
17.54000 314.000
17.55500 334.000
17.57000 317.000
17.58500 307.000
17.60000 288.000
17.61500 290.000
17.63000 292.000
17.64500 297.000
17.66000 298.000
17.67500 307.000
17.69000 289.000
17.70500 319.000
17.72000 317.000
17.73500 333.000
17.75000 335.000
17.76500 340.000
17.78000 289.000
17.79500 304.000
17.81000 303.000
17.82500 316.000
17.84000 318.000
17.85500 325.000
17.87000 305.000
17.88500 288.000
17.90000 299.000
17.91500 282.000
17.93000 313.000
17.94500 329.000
17.96000 307.000
17.97500 312.000
17.99000 291.000
18.00500 298.000
18.02000 277.000
18.03500 298.000
18.05000 303.000
18.06500 333.000
18.08000 305.000
18.09500 329.000
18.11000 332.000
18.12500 310.000
18.14000 299.000
18.15500 312.000
18.17000 313.000
18.18500 283.000
18.20000 308.000
18.21500 313.000
18.23000 275.000
18.24500 311.000
18.26000 298.000
18.27500 343.000
18.29000 315.000
18.30500 295.000
18.32000 316.000
18.33500 328.000
18.35000 301.000
18.36500 281.000
18.38000 285.000
18.39500 293.000
18.41000 338.000
18.42500 361.000
18.44000 328.000
18.45500 315.000
18.47000 321.000
18.48500 321.000
18.50000 301.000
18.51500 313.000
18.53000 306.000
18.54500 292.000
18.56000 326.000
18.57500 305.000
18.59000 312.000
18.60500 279.000
18.62000 312.000
18.63500 317.000
18.65000 312.000
18.66500 307.000
18.68000 332.000
18.69500 346.000
18.71000 346.000
18.72500 341.000
18.74000 318.000
18.75500 312.000
18.77000 328.000
18.78500 327.000
18.80000 330.000
18.81500 327.000
18.83000 322.000
18.84500 321.000
18.86000 330.000
18.87500 341.000
18.89000 339.000
18.90500 336.000
18.92000 286.000
18.93500 327.000
18.95000 324.000
18.96500 324.000
18.98000 327.000
18.99500 318.000
19.01000 300.000
19.02500 322.000
19.04000 337.000
19.05500 328.000
19.07000 345.000
19.08500 324.000
19.10000 338.000
19.11500 354.000
19.13000 334.000
19.14500 332.000
19.16000 347.000
19.17500 345.000
19.19000 335.000
19.20500 326.000
19.22000 330.000
19.23500 329.000
19.25000 325.000
19.26500 316.000
19.28000 316.000
19.29500 336.000
19.31000 311.000
19.32500 315.000
19.34000 334.000
19.35500 362.000
19.37000 333.000
19.38500 337.000
19.40000 334.000
19.41500 313.000
19.43000 326.000
19.44500 321.000
19.46000 312.000
19.47500 307.000
19.49000 339.000
19.50500 322.000
19.52000 342.000
19.53500 329.000
19.55000 322.000
19.56500 319.000
19.58000 335.000
19.59500 324.000
19.61000 316.000
19.62500 317.000
19.64000 330.000
19.65500 339.000
19.67000 341.000
19.68500 332.000
19.70000 311.000
19.71500 353.000
19.73000 346.000
19.74500 352.000
19.76000 328.000
19.77500 341.000
19.79000 349.000
19.80500 372.000
19.82000 371.000
19.83500 388.000
19.85000 398.000
19.86500 381.000
19.88000 405.000
19.89500 399.000
19.91000 368.000
19.92500 354.000
19.94000 373.000
19.95500 397.000
19.97000 356.000
19.98500 342.000
20.00000 336.000
20.01500 366.000
20.03000 347.000
20.04500 352.000
20.06000 338.000
20.07500 369.000
20.09000 374.000
20.10500 340.000
20.12000 327.000
20.13500 369.000
20.15000 364.000
20.16500 348.000
20.18000 352.000
20.19500 351.000
20.21000 355.000
20.22500 338.000
20.24000 331.000
20.25500 335.000
20.27000 345.000
20.28500 354.000
20.30000 351.000
20.31500 327.000
20.33000 345.000
20.34500 346.000
20.36000 345.000
20.37500 354.000
20.39000 359.000
20.40500 360.000
20.42000 343.000
20.43500 338.000
20.45000 357.000
20.46500 313.000
20.48000 372.000
20.49500 361.000
20.51000 334.000
20.52500 372.000
20.54000 348.000
20.55500 345.000
20.57000 349.000
20.58500 342.000
20.60000 373.000
20.61500 366.000
20.63000 345.000
20.64500 344.000
20.66000 379.000
20.67500 387.000
20.69000 359.000
20.70500 348.000
20.72000 368.000
20.73500 357.000
20.75000 372.000
20.76500 353.000
20.78000 345.000
20.79500 377.000
20.81000 358.000
20.82500 365.000
20.84000 390.000
20.85500 391.000
20.87000 370.000
20.88500 337.000
20.90000 303.000
20.91500 349.000
20.93000 374.000
20.94500 378.000
20.96000 351.000
20.97500 369.000
20.99000 347.000
21.00500 346.000
21.02000 358.000
21.03500 371.000
21.05000 370.000
21.06500 381.000
21.08000 364.000
21.09500 352.000
21.11000 394.000
21.12500 385.000
21.14000 356.000
21.15500 361.000
21.17000 392.000
21.18500 361.000
21.20000 356.000
21.21500 395.000
21.23000 371.000
21.24500 358.000
21.26000 390.000
21.27500 369.000
21.29000 368.000
21.30500 362.000
21.32000 382.000
21.33500 402.000
21.35000 382.000
21.36500 398.000
21.38000 399.000
21.39500 409.000
21.41000 364.000
21.42500 379.000
21.44000 395.000
21.45500 370.000
21.47000 396.000
21.48500 385.000
21.50000 400.000
21.51500 377.000
21.53000 384.000
21.54500 370.000
21.56000 397.000
21.57500 380.000
21.59000 381.000
21.60500 371.000
21.62000 355.000
21.63500 356.000
21.65000 389.000
21.66500 392.000
21.68000 415.000
21.69500 416.000
21.71000 402.000
21.72500 373.000
21.74000 360.000
21.75500 369.000
21.77000 411.000
21.78500 359.000
21.80000 357.000
21.81500 391.000
21.83000 390.000
21.84500 416.000
21.86000 412.000
21.87500 408.000
21.89000 384.000
21.90500 381.000
21.92000 400.000
21.93500 382.000
21.95000 382.000
21.96500 360.000
21.98000 388.000
21.99500 410.000
22.01000 382.000
22.02500 373.000
22.04000 373.000
22.05500 375.000
22.07000 373.000
22.08500 367.000
22.10000 381.000
22.11500 393.000
22.13000 402.000
22.14500 389.000
22.16000 378.000
22.17500 383.000
22.19000 385.000
22.20500 371.000
22.22000 389.000
22.23500 364.000
22.25000 374.000
22.26500 399.000
22.28000 414.000
22.29500 403.000
22.31000 420.000
22.32500 397.000
22.34000 409.000
22.35500 408.000
22.37000 363.000
22.38500 385.000
22.40000 369.000
22.41500 405.000
22.43000 426.000
22.44500 380.000
22.46000 385.000
22.47500 400.000
22.49000 382.000
22.50500 410.000
22.52000 427.000
22.53500 419.000
22.55000 417.000
22.56500 436.000
22.58000 431.000
22.59500 458.000
22.61000 469.000
22.62500 484.000
22.64000 466.000
22.65500 463.000
22.67000 489.000
22.68500 492.000
22.70000 496.000
22.71500 456.000
22.73000 454.000
22.74500 437.000
22.76000 458.000
22.77500 437.000
22.79000 432.000
22.80500 425.000
22.82000 444.000
22.83500 456.000
22.85000 424.000
22.86500 445.000
22.88000 456.000
22.89500 493.000
22.91000 439.000
22.92500 412.000
22.94000 469.000
22.95500 458.000
22.97000 448.000
22.98500 466.000
23.00000 473.000
23.01500 441.000
23.03000 442.000
23.04500 453.000
23.06000 432.000
23.07500 415.000
23.09000 435.000
23.10500 426.000
23.12000 450.000
23.13500 443.000
23.15000 466.000
23.16500 464.000
23.18000 461.000
23.19500 452.000
23.21000 457.000
23.22500 426.000
23.24000 457.000
23.25500 466.000
23.27000 436.000
23.28500 431.000
23.30000 444.000
23.31500 439.000
23.33000 414.000
23.34500 450.000
23.36000 453.000
23.37500 430.000
23.39000 415.000
23.40500 414.000
23.42000 413.000
23.43500 447.000
23.45000 432.000
23.46500 443.000
23.48000 442.000
23.49500 412.000
23.51000 450.000
23.52500 426.000
23.54000 429.000
23.55500 444.000
23.57000 452.000
23.58500 431.000
23.60000 439.000
23.61500 440.000
23.63000 411.000
23.64500 423.000
23.66000 424.000
23.67500 417.000
23.69000 443.000
23.70500 464.000
23.72000 436.000
23.73500 427.000
23.75000 439.000
23.76500 416.000
23.78000 439.000
23.79500 428.000
23.81000 434.000
23.82500 437.000
23.84000 448.000
23.85500 453.000
23.87000 458.000
23.88500 443.000
23.90000 436.000
23.91500 455.000
23.93000 443.000
23.94500 447.000
23.96000 465.000
23.97500 438.000
23.99000 410.000
24.00500 424.000
24.02000 449.000
24.03500 444.000
24.05000 415.000
24.06500 450.000
24.08000 440.000
24.09500 432.000
24.11000 473.000
24.12500 451.000
24.14000 442.000
24.15500 439.000
24.17000 411.000
24.18500 458.000
24.20000 493.000
24.21500 506.000
24.23000 487.000
24.24500 460.000
24.26000 459.000
24.27500 476.000
24.29000 466.000
24.30500 442.000
24.32000 445.000
24.33500 470.000
24.35000 468.000
24.36500 471.000
24.38000 453.000
24.39500 457.000
24.41000 462.000
24.42500 440.000
24.44000 464.000
24.45500 476.000
24.47000 489.000
24.48500 493.000
24.50000 462.000
24.51500 469.000
24.53000 462.000
24.54500 503.000
24.56000 486.000
24.57500 466.000
24.59000 467.000
24.60500 497.000
24.62000 496.000
24.63500 487.000
24.65000 494.000
24.66500 510.000
24.68000 511.000
24.69500 513.000
24.71000 479.000
24.72500 509.000
24.74000 483.000
24.75500 494.000
24.77000 519.000
24.78500 540.000
24.80000 541.000
24.81500 560.000
24.83000 556.000
24.84500 571.000
24.86000 542.000
24.87500 591.000
24.89000 600.000
24.90500 601.000
24.92000 646.000
24.93500 656.000
24.95000 690.000
24.96500 713.000
24.98000 709.000
24.99500 749.000
25.01000 749.000
25.02500 744.000
25.04000 732.000
25.05500 675.000
25.07000 671.000
25.08500 678.000
25.10000 628.000
25.11500 599.000
25.13000 576.000
25.14500 599.000
25.16000 563.000
25.17500 611.000
25.19000 605.000
25.20500 586.000
25.22000 596.000
25.23500 599.000
25.25000 573.000
25.26500 578.000
25.28000 608.000
25.29500 632.000
25.31000 616.000
25.32500 601.000
25.34000 640.000
25.35500 632.000
25.37000 667.000
25.38500 637.000
25.40000 623.000
25.41500 657.000
25.43000 670.000
25.44500 674.000
25.46000 688.000
25.47500 688.000
25.49000 698.000
25.50500 678.000
25.52000 653.000
25.53500 682.000
25.55000 710.000
25.56500 699.000
25.58000 719.000
25.59500 688.000
25.61000 723.000
25.62500 685.000
25.64000 700.000
25.65500 682.000
25.67000 622.000
25.68500 612.000
25.70000 626.000
25.71500 619.000
25.73000 583.000
25.74500 587.000
25.76000 636.000
25.77500 608.000
25.79000 617.000
25.80500 630.000
25.82000 625.000
25.83500 614.000
25.85000 605.000
25.86500 608.000
25.88000 626.000
25.89500 603.000
25.91000 611.000
25.92500 590.000
25.94000 629.000
25.95500 612.000
25.97000 566.000
25.98500 602.000
26.00000 571.000
26.01500 604.000
26.03000 613.000
26.04500 587.000
26.06000 586.000
26.07500 611.000
26.09000 590.000
26.10500 591.000
26.12000 590.000
26.13500 580.000
26.15000 582.000
26.16500 610.000
26.18000 627.000
26.19500 596.000
26.21000 580.000
26.22500 624.000
26.24000 636.000
26.25500 606.000
26.27000 594.000
26.28500 610.000
26.30000 616.000
26.31500 627.000
26.33000 593.000
26.34500 606.000
26.36000 640.000
26.37500 589.000
26.39000 590.000
26.40500 628.000
26.42000 597.000
26.43500 597.000
26.45000 597.000
26.46500 597.000
26.48000 599.000
26.49500 584.000
26.51000 620.000
26.52500 602.000
26.54000 610.000
26.55500 626.000
26.57000 692.000
26.58500 681.000
26.60000 682.000
26.61500 687.000
26.63000 673.000
26.64500 649.000
26.66000 671.000
26.67500 663.000
26.69000 639.000
26.70500 694.000
26.72000 683.000
26.73500 701.000
26.75000 687.000
26.76500 718.000
26.78000 682.000
26.79500 678.000
26.81000 719.000
26.82500 750.000
26.84000 723.000
26.85500 752.000
26.87000 750.000
26.88500 781.000
26.90000 770.000
26.91500 738.000
26.93000 810.000
26.94500 871.000
26.96000 889.000
26.97500 906.000
26.99000 970.000
27.00500 1002.000
27.02000 1053.000
27.03500 1094.000
27.05000 1204.000
27.06500 1318.000
27.08000 1476.000
27.09500 1590.000
27.11000 1733.000
27.12500 1774.000
27.14000 1850.000
27.15500 1865.000
27.17000 1741.000
27.18500 1640.000
27.20000 1518.000
27.21500 1345.000
27.23000 1246.000
27.24500 1133.000
27.26000 1057.000
27.27500 996.000
27.29000 972.000
27.30500 945.000
27.32000 879.000
27.33500 830.000
27.35000 828.000
27.36500 771.000
27.38000 731.000
27.39500 750.000
27.41000 727.000
27.42500 702.000
27.44000 669.000
27.45500 693.000
27.47000 678.000
27.48500 631.000
27.50000 641.000
27.51500 580.000
27.53000 570.000
27.54500 596.000
27.56000 597.000
27.57500 589.000
27.59000 582.000
27.60500 571.000
27.62000 563.000
27.63500 567.000
27.65000 551.000
27.66500 565.000
27.68000 540.000
27.69500 541.000
27.71000 528.000
27.72500 515.000
27.74000 554.000
27.75500 549.000
27.77000 533.000
27.78500 505.000
27.80000 536.000
27.81500 491.000
27.83000 479.000
27.84500 484.000
27.86000 468.000
27.87500 473.000
27.89000 482.000
27.90500 506.000
27.92000 469.000
27.93500 454.000
27.95000 452.000
27.96500 416.000
27.98000 420.000
27.99500 437.000
28.01000 464.000
28.02500 446.000
28.04000 432.000
28.05500 439.000
28.07000 444.000
28.08500 446.000
28.10000 440.000
28.11500 446.000
28.13000 402.000
28.14500 428.000
28.16000 456.000
28.17500 408.000
28.19000 398.000
28.20500 423.000
28.22000 412.000
28.23500 421.000
28.25000 429.000
28.26500 403.000
28.28000 397.000
28.29500 403.000
28.31000 424.000
28.32500 408.000
28.34000 452.000
28.35500 470.000
28.37000 452.000
28.38500 422.000
28.40000 417.000
28.41500 399.000
28.43000 353.000
28.44500 389.000
28.46000 380.000
28.47500 378.000
28.49000 386.000
28.50500 386.000
28.52000 382.000
28.53500 387.000
28.55000 395.000
28.56500 391.000
28.58000 360.000
28.59500 366.000
28.61000 384.000
28.62500 368.000
28.64000 388.000
28.65500 371.000
28.67000 380.000
28.68500 384.000
28.70000 356.000
28.71500 352.000
28.73000 381.000
28.74500 380.000
28.76000 389.000
28.77500 404.000
28.79000 384.000
28.80500 373.000
28.82000 378.000
28.83500 381.000
28.85000 367.000
28.86500 365.000
28.88000 364.000
28.89500 372.000
28.91000 365.000
28.92500 353.000
28.94000 359.000
28.95500 361.000
28.97000 364.000
28.98500 350.000
29.00000 333.000
29.01500 357.000
29.03000 345.000
29.04500 331.000
29.06000 361.000
29.07500 359.000
29.09000 353.000
29.10500 353.000
29.12000 333.000
29.13500 330.000
29.15000 344.000
29.16500 347.000
29.18000 365.000
29.19500 360.000
29.21000 362.000
29.22500 377.000
29.24000 343.000
29.25500 329.000
29.27000 329.000
29.28500 340.000
29.30000 358.000
29.31500 344.000
29.33000 381.000
29.34500 351.000
29.36000 356.000
29.37500 339.000
29.39000 358.000
29.40500 370.000
29.42000 335.000
29.43500 320.000
29.45000 332.000
29.46500 341.000
29.48000 324.000
29.49500 305.000
29.51000 324.000
29.52500 335.000
29.54000 343.000
29.55500 356.000
29.57000 346.000
29.58500 338.000
29.60000 339.000
29.61500 343.000
29.63000 363.000
29.64500 365.000
29.66000 357.000
29.67500 295.000
29.69000 320.000
29.70500 341.000
29.72000 341.000
29.73500 348.000
29.75000 336.000
29.76500 348.000
29.78000 364.000
29.79500 336.000
29.81000 356.000
29.82500 382.000
29.84000 379.000
29.85500 368.000
29.87000 329.000
29.88500 330.000
29.90000 351.000
29.91500 376.000
29.93000 378.000
29.94500 388.000
29.96000 360.000
29.97500 351.000
29.99000 346.000
30.00500 357.000
30.02000 332.000
30.03500 341.000
30.05000 343.000
30.06500 368.000
30.08000 360.000
30.09500 353.000
30.11000 342.000
30.12500 364.000
30.14000 363.000
30.15500 344.000
30.17000 349.000
30.18500 360.000
30.20000 378.000
30.21500 390.000
30.23000 409.000
30.24500 372.000
30.26000 399.000
30.27500 386.000
30.29000 380.000
30.30500 386.000
30.32000 394.000
30.33500 416.000
30.35000 433.000
30.36500 458.000
30.38000 491.000
30.39500 495.000
30.41000 484.000
30.42500 496.000
30.44000 512.000
30.45500 482.000
30.47000 491.000
30.48500 459.000
30.50000 427.000
30.51500 409.000
30.53000 413.000
30.54500 383.000
30.56000 381.000
30.57500 339.000
30.59000 354.000
30.60500 345.000
30.62000 350.000
30.63500 391.000
30.65000 329.000
30.66500 323.000
30.68000 316.000
30.69500 338.000
30.71000 337.000
30.72500 336.000
30.74000 320.000
30.75500 317.000
30.77000 305.000
30.78500 315.000
30.80000 340.000
30.81500 321.000
30.83000 304.000
30.84500 302.000
30.86000 303.000
30.87500 306.000
30.89000 319.000
30.90500 309.000
30.92000 326.000
30.93500 328.000
30.95000 306.000
30.96500 293.000
30.98000 313.000
30.99500 301.000
31.01000 329.000
31.02500 337.000
31.04000 338.000
31.05500 317.000
31.07000 330.000
31.08500 321.000
31.10000 342.000
31.11500 323.000
31.13000 327.000
31.14500 327.000
31.16000 330.000
31.17500 289.000
31.19000 282.000
31.20500 290.000
31.22000 320.000
31.23500 304.000
31.25000 294.000
31.26500 288.000
31.28000 283.000
31.29500 304.000
31.31000 303.000
31.32500 296.000
31.34000 301.000
31.35500 318.000
31.37000 297.000
31.38500 305.000
31.40000 288.000
31.41500 270.000
31.43000 287.000
31.44500 285.000
31.46000 288.000
31.47500 312.000
31.49000 309.000
31.50500 305.000
31.52000 278.000
31.53500 268.000
31.55000 293.000
31.56500 299.000
31.58000 296.000
31.59500 293.000
31.61000 299.000
31.62500 284.000
31.64000 281.000
31.65500 296.000
31.67000 301.000
31.68500 288.000
31.70000 267.000
31.71500 269.000
31.73000 275.000
31.74500 279.000
31.76000 276.000
31.77500 300.000
31.79000 260.000
31.80500 273.000
31.82000 272.000
31.83500 276.000
31.85000 284.000
31.86500 275.000
31.88000 322.000
31.89500 284.000
31.91000 268.000
31.92500 282.000
31.94000 283.000
31.95500 270.000
31.97000 292.000
31.98500 288.000
32.00000 272.000
32.01500 259.000
32.03000 263.000
32.04500 257.000
32.06000 264.000
32.07500 284.000
32.09000 304.000
32.10500 253.000
32.12000 272.000
32.13500 253.000
32.15000 270.000
32.16500 261.000
32.18000 265.000
32.19500 272.000
32.21000 277.000
32.22500 265.000
32.24000 263.000
32.25500 287.000
32.27000 260.000
32.28500 274.000
32.30000 272.000
32.31500 283.000
32.33000 294.000
32.34500 278.000
32.36000 265.000
32.37500 258.000
32.39000 273.000
32.40500 276.000
32.42000 251.000
32.43500 242.000
32.45000 261.000
32.46500 258.000
32.48000 253.000
32.49500 258.000
32.51000 229.000
32.52500 239.000
32.54000 247.000
32.55500 274.000
32.57000 281.000
32.58500 264.000
32.60000 271.000
32.61500 244.000
32.63000 234.000
32.64500 234.000
32.66000 237.000
32.67500 245.000
32.69000 277.000
32.70500 268.000
32.72000 243.000
32.73500 268.000
32.75000 297.000
32.76500 254.000
32.78000 266.000
32.79500 249.000
32.81000 258.000
32.82500 276.000
32.84000 244.000
32.85500 248.000
32.87000 275.000
32.88500 245.000
32.90000 248.000
32.91500 252.000
32.93000 264.000
32.94500 272.000
32.96000 262.000
32.97500 262.000
32.99000 265.000
33.00500 258.000
33.02000 253.000
33.03500 254.000
33.05000 233.000
33.06500 256.000
33.08000 236.000
33.09500 275.000
33.11000 264.000
33.12500 258.000
33.14000 259.000
33.15500 244.000
33.17000 245.000
33.18500 261.000
33.20000 245.000
33.21500 252.000
33.23000 240.000
33.24500 262.000
33.26000 240.000
33.27500 239.000
33.29000 263.000
33.30500 233.000
33.32000 256.000
33.33500 262.000
33.35000 261.000
33.36500 268.000
33.38000 287.000
33.39500 280.000
33.41000 250.000
33.42500 260.000
33.44000 269.000
33.45500 267.000
33.47000 253.000
33.48500 257.000
33.50000 256.000
33.51500 253.000
33.53000 257.000
33.54500 260.000
33.56000 225.000
33.57500 238.000
33.59000 265.000
33.60500 244.000
33.62000 236.000
33.63500 254.000
33.65000 255.000
33.66500 262.000
33.68000 256.000
33.69500 253.000
33.71000 238.000
33.72500 235.000
33.74000 240.000
33.75500 253.000
33.77000 251.000
33.78500 226.000
33.80000 217.000
33.81500 225.000
33.83000 243.000
33.84500 234.000
33.86000 236.000
33.87500 218.000
33.89000 260.000
33.90500 265.000
33.92000 242.000
33.93500 249.000
33.95000 236.000
33.96500 246.000
33.98000 237.000
33.99500 235.000
34.01000 242.000
34.02500 248.000
34.04000 242.000
34.05500 220.000
34.07000 232.000
34.08500 262.000
34.10000 233.000
34.11500 229.000
34.13000 239.000
34.14500 242.000
34.16000 223.000
34.17500 235.000
34.19000 240.000
34.20500 235.000
34.22000 234.000
34.23500 235.000
34.25000 221.000
34.26500 233.000
34.28000 218.000
34.29500 237.000
34.31000 246.000
34.32500 213.000
34.34000 242.000
34.35500 259.000
34.37000 247.000
34.38500 252.000
34.40000 233.000
34.41500 226.000
34.43000 230.000
34.44500 226.000
34.46000 225.000
34.47500 238.000
34.49000 217.000
34.50500 228.000
34.52000 244.000
34.53500 246.000
34.55000 242.000
34.56500 227.000
34.58000 241.000
34.59500 239.000
34.61000 242.000
34.62500 222.000
34.64000 253.000
34.65500 244.000
34.67000 238.000
34.68500 243.000
34.70000 272.000
34.71500 248.000
34.73000 270.000
34.74500 256.000
34.76000 264.000
34.77500 277.000
34.79000 268.000
34.80500 254.000
34.82000 237.000
34.83500 238.000
34.85000 270.000
34.86500 234.000
34.88000 243.000
34.89500 251.000
34.91000 229.000
34.92500 230.000
34.94000 241.000
34.95500 240.000
34.97000 229.000
34.98500 233.000
35.00000 240.000
35.01500 274.000
35.03000 251.000
35.04500 256.000
35.06000 243.000
35.07500 227.000
35.09000 226.000
35.10500 244.000
35.12000 227.000
35.13500 229.000
35.15000 250.000
35.16500 231.000
35.18000 212.000
35.19500 218.000
35.21000 232.000
35.22500 231.000
35.24000 225.000
35.25500 250.000
35.27000 235.000
35.28500 212.000
35.30000 228.000
35.31500 217.000
35.33000 219.000
35.34500 231.000
35.36000 197.000
35.37500 194.000
35.39000 203.000
35.40500 218.000
35.42000 211.000
35.43500 212.000
35.45000 220.000
35.46500 217.000
35.48000 198.000
35.49500 222.000
35.51000 210.000
35.52500 213.000
35.54000 230.000
35.55500 215.000
35.57000 197.000
35.58500 197.000
35.60000 204.000
35.61500 213.000
35.63000 194.000
35.64500 197.000
35.66000 188.000
35.67500 217.000
35.69000 209.000
35.70500 186.000
35.72000 202.000
35.73500 211.000
35.75000 209.000
35.76500 217.000
35.78000 202.000
35.79500 192.000
35.81000 188.000
35.82500 198.000
35.84000 189.000
35.85500 197.000
35.87000 202.000
35.88500 191.000
35.90000 217.000
35.91500 191.000
35.93000 213.000
35.94500 192.000
35.96000 181.000
35.97500 188.000
35.99000 200.000
36.00500 200.000
36.02000 193.000
36.03500 186.000
36.05000 193.000
36.06500 198.000
36.08000 188.000
36.09500 206.000
36.11000 181.000
36.12500 212.000
36.14000 209.000
36.15500 187.000
36.17000 185.000
36.18500 175.000
36.20000 193.000
36.21500 197.000
36.23000 201.000
36.24500 201.000
36.26000 196.000
36.27500 208.000
36.29000 212.000
36.30500 189.000
36.32000 198.000
36.33500 187.000
36.35000 172.000
36.36500 189.000
36.38000 190.000
36.39500 192.000
36.41000 188.000
36.42500 180.000
36.44000 188.000
36.45500 216.000
36.47000 198.000
36.48500 201.000
36.50000 170.000
36.51500 174.000
36.53000 185.000
36.54500 198.000
36.56000 194.000
36.57500 173.000
36.59000 197.000
36.60500 205.000
36.62000 189.000
36.63500 188.000
36.65000 197.000
36.66500 198.000
36.68000 203.000
36.69500 198.000
36.71000 185.000
36.72500 185.000
36.74000 204.000
36.75500 188.000
36.77000 186.000
36.78500 202.000
36.80000 184.000
36.81500 185.000
36.83000 199.000
36.84500 187.000
36.86000 190.000
36.87500 200.000
36.89000 187.000
36.90500 190.000
36.92000 181.000
36.93500 210.000
36.95000 222.000
36.96500 176.000
36.98000 199.000
36.99500 216.000
37.01000 197.000
37.02500 212.000
37.04000 195.000
37.05500 166.000
37.07000 171.000
37.08500 175.000
37.10000 184.000
37.11500 192.000
37.13000 196.000
37.14500 177.000
37.16000 171.000
37.17500 183.000
37.19000 184.000
37.20500 183.000
37.22000 196.000
37.23500 194.000
37.25000 188.000
37.26500 201.000
37.28000 199.000
37.29500 198.000
37.31000 178.000
37.32500 186.000
37.34000 189.000
37.35500 179.000
37.37000 196.000
37.38500 198.000
37.40000 169.000
37.41500 167.000
37.43000 172.000
37.44500 171.000
37.46000 196.000
37.47500 197.000
37.49000 192.000
37.50500 191.000
37.52000 176.000
37.53500 181.000
37.55000 184.000
37.56500 191.000
37.58000 199.000
37.59500 183.000
37.61000 186.000
37.62500 182.000
37.64000 176.000
37.65500 183.000
37.67000 181.000
37.68500 182.000
37.70000 177.000
37.71500 171.000
37.73000 168.000
37.74500 185.000
37.76000 170.000
37.77500 181.000
37.79000 178.000
37.80500 183.000
37.82000 170.000
37.83500 159.000
37.85000 189.000
37.86500 197.000
37.88000 163.000
37.89500 175.000
37.91000 193.000
37.92500 181.000
37.94000 179.000
37.95500 180.000
37.97000 161.000
37.98500 166.000
38.00000 193.000
38.01500 169.000
38.03000 184.000
38.04500 159.000
38.06000 173.000
38.07500 172.000
38.09000 189.000
38.10500 197.000
38.12000 187.000
38.13500 183.000
38.15000 192.000
38.16500 195.000
38.18000 205.000
38.19500 170.000
38.21000 186.000
38.22500 199.000
38.24000 180.000
38.25500 182.000
38.27000 192.000
38.28500 167.000
38.30000 182.000
38.31500 168.000
38.33000 201.000
38.34500 184.000
38.36000 187.000
38.37500 188.000
38.39000 220.000
38.40500 210.000
38.42000 183.000
38.43500 186.000
38.45000 199.000
38.46500 199.000
38.48000 190.000
38.49500 187.000
38.51000 187.000
38.52500 174.000
38.54000 171.000
38.55500 181.000
38.57000 191.000
38.58500 175.000
38.60000 167.000
38.61500 173.000
38.63000 191.000
38.64500 181.000
38.66000 177.000
38.67500 173.000
38.69000 195.000
38.70500 171.000
38.72000 186.000
38.73500 195.000
38.75000 196.000
38.76500 197.000
38.78000 196.000
38.79500 176.000
38.81000 191.000
38.82500 174.000
38.84000 171.000
38.85500 174.000
38.87000 190.000
38.88500 196.000
38.90000 178.000
38.91500 177.000
38.93000 175.000
38.94500 173.000
38.96000 169.000
38.97500 169.000
38.99000 195.000
39.00500 186.000
39.02000 189.000
39.03500 187.000
39.05000 173.000
39.06500 169.000
39.08000 172.000
39.09500 181.000
39.11000 180.000
39.12500 195.000
39.14000 169.000
39.15500 172.000
39.17000 166.000
39.18500 180.000
39.20000 172.000
39.21500 167.000
39.23000 165.000
39.24500 165.000
39.26000 199.000
39.27500 184.000
39.29000 173.000
39.30500 179.000
39.32000 179.000
39.33500 194.000
39.35000 171.000
39.36500 172.000
39.38000 179.000
39.39500 173.000
39.41000 182.000
39.42500 183.000
39.44000 191.000
39.45500 198.000
39.47000 195.000
39.48500 201.000
39.50000 172.000
39.51500 167.000
39.53000 181.000
39.54500 184.000
39.56000 169.000
39.57500 194.000
39.59000 179.000
39.60500 198.000
39.62000 185.000
39.63500 211.000
39.65000 199.000
39.66500 200.000
39.68000 196.000
39.69500 207.000
39.71000 200.000
39.72500 218.000
39.74000 217.000
39.75500 186.000
39.77000 185.000
39.78500 215.000
39.80000 200.000
39.81500 212.000
39.83000 197.000
39.84500 209.000
39.86000 227.000
39.87500 219.000
39.89000 238.000
39.90500 207.000
39.92000 209.000
39.93500 218.000
39.95000 203.000
39.96500 198.000
39.98000 205.000
39.99500 218.000
40.01000 216.000
40.02500 190.000
40.04000 185.000
40.05500 191.000
40.07000 173.000
40.08500 191.000
40.10000 190.000
40.11500 205.000
40.13000 195.000
40.14500 191.000
40.16000 195.000
40.17500 190.000
40.19000 186.000
40.20500 204.000
40.22000 205.000
40.23500 186.000
40.25000 194.000
40.26500 203.000
40.28000 195.000
40.29500 186.000
40.31000 196.000
40.32500 207.000
40.34000 183.000
40.35500 205.000
40.37000 196.000
40.38500 205.000
40.40000 186.000
40.41500 195.000
40.43000 186.000
40.44500 199.000
40.46000 182.000
40.47500 179.000
40.49000 183.000
40.50500 216.000
40.52000 183.000
40.53500 197.000
40.55000 194.000
40.56500 182.000
40.58000 195.000
40.59500 185.000
40.61000 171.000
40.62500 187.000
40.64000 174.000
40.65500 168.000
40.67000 187.000
40.68500 191.000
40.70000 180.000
40.71500 181.000
40.73000 196.000
40.74500 206.000
40.76000 210.000
40.77500 194.000
40.79000 182.000
40.80500 202.000
40.82000 200.000
40.83500 203.000
40.85000 193.000
40.86500 181.000
40.88000 195.000
40.89500 186.000
40.91000 202.000
40.92500 205.000
40.94000 214.000
40.95500 189.000
40.97000 200.000
40.98500 182.000
41.00000 193.000
41.01500 217.000
41.03000 196.000
41.04500 205.000
41.06000 199.000
41.07500 189.000
41.09000 182.000
41.10500 190.000
41.12000 191.000
41.13500 209.000
41.15000 188.000
41.16500 195.000
41.18000 190.000
41.19500 183.000
41.21000 197.000
41.22500 170.000
41.24000 191.000
41.25500 198.000
41.27000 196.000
41.28500 179.000
41.30000 198.000
41.31500 205.000
41.33000 191.000
41.34500 179.000
41.36000 189.000
41.37500 187.000
41.39000 185.000
41.40500 197.000
41.42000 193.000
41.43500 207.000
41.45000 210.000
41.46500 193.000
41.48000 181.000
41.49500 176.000
41.51000 184.000
41.52500 195.000
41.54000 200.000
41.55500 178.000
41.57000 168.000
41.58500 180.000
41.60000 183.000
41.61500 180.000
41.63000 180.000
41.64500 182.000
41.66000 201.000
41.67500 193.000
41.69000 194.000
41.70500 194.000
41.72000 190.000
41.73500 179.000
41.75000 200.000
41.76500 201.000
41.78000 198.000
41.79500 172.000
41.81000 183.000
41.82500 197.000
41.84000 195.000
41.85500 183.000
41.87000 166.000
41.88500 185.000
41.90000 191.000
41.91500 212.000
41.93000 214.000
41.94500 186.000
41.96000 198.000
41.97500 209.000
41.99000 197.000
42.00500 185.000
42.02000 188.000
42.03500 207.000
42.05000 202.000
42.06500 204.000
42.08000 197.000
42.09500 174.000
42.11000 173.000
42.12500 201.000
42.14000 178.000
42.15500 168.000
42.17000 165.000
42.18500 179.000
42.20000 183.000
42.21500 175.000
42.23000 169.000
42.24500 173.000
42.26000 192.000
42.27500 174.000
42.29000 184.000
42.30500 183.000
42.32000 178.000
42.33500 180.000
42.35000 175.000
42.36500 174.000
42.38000 171.000
42.39500 177.000
42.41000 177.000
42.42500 187.000
42.44000 187.000
42.45500 168.000
42.47000 177.000
42.48500 179.000
42.50000 172.000
42.51500 174.000
42.53000 176.000
42.54500 185.000
42.56000 174.000
42.57500 166.000
42.59000 159.000
42.60500 172.000
42.62000 187.000
42.63500 199.000
42.65000 174.000
42.66500 163.000
42.68000 173.000
42.69500 174.000
42.71000 165.000
42.72500 171.000
42.74000 164.000
42.75500 166.000
42.77000 174.000
42.78500 186.000
42.80000 171.000
42.81500 176.000
42.83000 185.000
42.84500 164.000
42.86000 157.000
42.87500 176.000
42.89000 172.000
42.90500 175.000
42.92000 177.000
42.93500 183.000
42.95000 170.000
42.96500 181.000
42.98000 180.000
42.99500 177.000
43.01000 176.000
43.02500 198.000
43.04000 208.000
43.05500 197.000
43.07000 206.000
43.08500 196.000
43.10000 184.000
43.11500 182.000
43.13000 199.000
43.14500 190.000
43.16000 182.000
43.17500 192.000
43.19000 177.000
43.20500 197.000
43.22000 193.000
43.23500 175.000
43.25000 186.000
43.26500 194.000
43.28000 189.000
43.29500 171.000
43.31000 179.000
43.32500 169.000
43.34000 177.000
43.35500 180.000
43.37000 163.000
43.38500 164.000
43.40000 166.000
43.41500 161.000
43.43000 150.000
43.44500 169.000
43.46000 178.000
43.47500 160.000
43.49000 156.000
43.50500 159.000
43.52000 175.000
43.53500 192.000
43.55000 173.000
43.56500 169.000
43.58000 161.000
43.59500 152.000
43.61000 163.000
43.62500 181.000
43.64000 167.000
43.65500 167.000
43.67000 146.000
43.68500 147.000
43.70000 170.000
43.71500 160.000
43.73000 148.000
43.74500 158.000
43.76000 182.000
43.77500 151.000
43.79000 167.000
43.80500 162.000
43.82000 165.000
43.83500 189.000
43.85000 161.000
43.86500 154.000
43.88000 164.000
43.89500 147.000
43.91000 156.000
43.92500 164.000
43.94000 158.000
43.95500 157.000
43.97000 159.000
43.98500 170.000
44.00000 169.000
44.01500 171.000
44.03000 182.000
44.04500 166.000
44.06000 166.000
44.07500 163.000
44.09000 168.000
44.10500 164.000
44.12000 159.000
44.13500 166.000
44.15000 159.000
44.16500 171.000
44.18000 164.000
44.19500 162.000
44.21000 172.000
44.22500 172.000
44.24000 153.000
44.25500 160.000
44.27000 167.000
44.28500 150.000
44.30000 191.000
44.31500 170.000
44.33000 152.000
44.34500 182.000
44.36000 177.000
44.37500 156.000
44.39000 161.000
44.40500 151.000
44.42000 159.000
44.43500 192.000
44.45000 174.000
44.46500 160.000
44.48000 147.000
44.49500 149.000
44.51000 177.000
44.52500 163.000
44.54000 151.000
44.55500 138.000
44.57000 163.000
44.58500 191.000
44.60000 182.000
44.61500 160.000
44.63000 155.000
44.64500 161.000
44.66000 171.000
44.67500 167.000
44.69000 164.000
44.70500 155.000
44.72000 166.000
44.73500 169.000
44.75000 181.000
44.76500 181.000
44.78000 163.000
44.79500 179.000
44.81000 175.000
44.82500 166.000
44.84000 156.000
44.85500 180.000
44.87000 173.000
44.88500 173.000
44.90000 163.000
44.91500 190.000
44.93000 179.000
44.94500 161.000
44.96000 148.000
44.97500 160.000
44.99000 182.000
45.00500 182.000
45.02000 149.000
45.03500 170.000
45.05000 173.000
45.06500 181.000
45.08000 154.000
45.09500 160.000
45.11000 160.000
45.12500 159.000
45.14000 150.000
45.15500 159.000
45.17000 179.000
45.18500 167.000
45.20000 172.000
45.21500 167.000
45.23000 190.000
45.24500 170.000
45.26000 147.000
45.27500 160.000
45.29000 169.000
45.30500 178.000
45.32000 167.000
45.33500 171.000
45.35000 175.000
45.36500 161.000
45.38000 164.000
45.39500 183.000
45.41000 190.000
45.42500 181.000
45.44000 178.000
45.45500 171.000
45.47000 185.000
45.48500 195.000
45.50000 182.000
45.51500 167.000
45.53000 173.000
45.54500 167.000
45.56000 178.000
45.57500 182.000
45.59000 167.000
45.60500 165.000
45.62000 161.000
45.63500 165.000
45.65000 174.000
45.66500 179.000
45.68000 167.000
45.69500 178.000
45.71000 193.000
45.72500 172.000
45.74000 173.000
45.75500 184.000
45.77000 170.000
45.78500 179.000
45.80000 189.000
45.81500 169.000
45.83000 167.000
45.84500 165.000
45.86000 182.000
45.87500 180.000
45.89000 172.000
45.90500 161.000
45.92000 177.000
45.93500 176.000
45.95000 165.000
45.96500 172.000
45.98000 168.000
45.99500 177.000
46.01000 180.000
46.02500 175.000
46.04000 166.000
46.05500 177.000
46.07000 167.000
46.08500 177.000
46.10000 168.000
46.11500 156.000
46.13000 158.000
46.14500 140.000
46.16000 147.000
46.17500 156.000
46.19000 173.000
46.20500 172.000
46.22000 174.000
46.23500 157.000
46.25000 161.000
46.26500 156.000
46.28000 170.000
46.29500 151.000
46.31000 171.000
46.32500 183.000
46.34000 166.000
46.35500 166.000
46.37000 168.000
46.38500 178.000
46.40000 175.000
46.41500 172.000
46.43000 168.000
46.44500 146.000
46.46000 169.000
46.47500 167.000
46.49000 167.000
46.50500 159.000
46.52000 158.000
46.53500 183.000
46.55000 173.000
46.56500 162.000
46.58000 140.000
46.59500 159.000
46.61000 193.000
46.62500 165.000
46.64000 171.000
46.65500 163.000
46.67000 164.000
46.68500 161.000
46.70000 150.000
46.71500 147.000
46.73000 160.000
46.74500 153.000
46.76000 158.000
46.77500 170.000
46.79000 166.000
46.80500 176.000
46.82000 181.000
46.83500 159.000
46.85000 157.000
46.86500 159.000
46.88000 168.000
46.89500 150.000
46.91000 159.000
46.92500 145.000
46.94000 149.000
46.95500 183.000
46.97000 170.000
46.98500 155.000
47.00000 164.000
47.01500 186.000
47.03000 146.000
47.04500 147.000
47.06000 152.000
47.07500 173.000
47.09000 158.000
47.10500 143.000
47.12000 171.000
47.13500 168.000
47.15000 174.000
47.16500 174.000
47.18000 160.000
47.19500 157.000
47.21000 148.000
47.22500 156.000
47.24000 152.000
47.25500 163.000
47.27000 154.000
47.28500 151.000
47.30000 141.000
47.31500 164.000
47.33000 163.000
47.34500 160.000
47.36000 130.000
47.37500 139.000
47.39000 153.000
47.40500 145.000
47.42000 153.000
47.43500 143.000
47.45000 142.000
47.46500 152.000
47.48000 148.000
47.49500 168.000
47.51000 158.000
47.52500 157.000
47.54000 169.000
47.55500 157.000
47.57000 166.000
47.58500 160.000
47.60000 154.000
47.61500 140.000
47.63000 163.000
47.64500 149.000
47.66000 139.000
47.67500 136.000
47.69000 164.000
47.70500 147.000
47.72000 135.000
47.73500 145.000
47.75000 186.000
47.76500 159.000
47.78000 169.000
47.79500 162.000
47.81000 157.000
47.82500 162.000
47.84000 163.000
47.85500 142.000
47.87000 170.000
47.88500 165.000
47.90000 156.000
47.91500 135.000
47.93000 163.000
47.94500 163.000
47.96000 147.000
47.97500 157.000
47.99000 169.000
48.00500 161.000
48.02000 164.000
48.03500 178.000
48.05000 162.000
48.06500 157.000
48.08000 166.000
48.09500 142.000
48.11000 159.000
48.12500 167.000
48.14000 184.000
48.15500 169.000
48.17000 165.000
48.18500 146.000
48.20000 160.000
48.21500 154.000
48.23000 183.000
48.24500 165.000
48.26000 169.000
48.27500 166.000
48.29000 175.000
48.30500 150.000
48.32000 151.000
48.33500 150.000
48.35000 170.000
48.36500 148.000
48.38000 157.000
48.39500 169.000
48.41000 163.000
48.42500 151.000
48.44000 149.000
48.45500 166.000
48.47000 161.000
48.48500 133.000
48.50000 138.000
48.51500 147.000
48.53000 135.000
48.54500 150.000
48.56000 146.000
48.57500 143.000
48.59000 131.000
48.60500 134.000
48.62000 147.000
48.63500 133.000
48.65000 153.000
48.66500 140.000
48.68000 152.000
48.69500 146.000
48.71000 163.000
48.72500 139.000
48.74000 157.000
48.75500 158.000
48.77000 153.000
48.78500 154.000
48.80000 134.000
48.81500 145.000
48.83000 164.000
48.84500 147.000
48.86000 139.000
48.87500 149.000
48.89000 153.000
48.90500 158.000
48.92000 143.000
48.93500 134.000
48.95000 131.000
48.96500 134.000
48.98000 141.000
48.99500 145.000
49.01000 143.000
49.02500 135.000
49.04000 151.000
49.05500 153.000
49.07000 155.000
49.08500 158.000
49.10000 156.000
49.11500 141.000
49.13000 141.000
49.14500 152.000
49.16000 148.000
49.17500 141.000
49.19000 162.000
49.20500 149.000
49.22000 164.000
49.23500 139.000
49.25000 141.000
49.26500 159.000
49.28000 148.000
49.29500 146.000
49.31000 140.000
49.32500 135.000
49.34000 123.000
49.35500 139.000
49.37000 131.000
49.38500 133.000
49.40000 126.000
49.41500 122.000
49.43000 122.000
49.44500 147.000
49.46000 144.000
49.47500 143.000
49.49000 158.000
49.50500 156.000
49.52000 163.000
49.53500 137.000
49.55000 148.000
49.56500 135.000
49.58000 143.000
49.59500 138.000
49.61000 137.000
49.62500 142.000
49.64000 131.000
49.65500 148.000
49.67000 136.000
49.68500 132.000
49.70000 148.000
49.71500 152.000
49.73000 138.000
49.74500 147.000
49.76000 145.000
49.77500 158.000
49.79000 162.000
49.80500 127.000
49.82000 139.000
49.83500 145.000
49.85000 140.000
49.86500 148.000
49.88000 139.000
49.89500 140.000
49.91000 133.000
49.92500 127.000
49.94000 130.000
49.95500 134.000
49.97000 138.000
49.98500 157.000
50.00000 134.000
50.01500 121.000
50.03000 140.000
50.04500 137.000
50.06000 130.000
50.07500 143.000
50.09000 126.000
50.10500 130.000
50.12000 139.000
50.13500 140.000
50.15000 152.000
50.16500 135.000
50.18000 131.000
50.19500 137.000
50.21000 151.000
50.22500 159.000
50.24000 137.000
50.25500 137.000
50.27000 136.000
50.28500 133.000
50.30000 127.000
50.31500 139.000
50.33000 127.000
50.34500 140.000
50.36000 151.000
50.37500 146.000
50.39000 135.000
50.40500 139.000
50.42000 126.000
50.43500 133.000
50.45000 152.000
50.46500 136.000
50.48000 134.000
50.49500 144.000
50.51000 132.000
50.52500 133.000
50.54000 133.000
50.55500 149.000
50.57000 145.000
50.58500 140.000
50.60000 147.000
50.61500 141.000
50.63000 151.000
50.64500 142.000
50.66000 130.000
50.67500 145.000
50.69000 140.000
50.70500 131.000
50.72000 147.000
50.73500 147.000
50.75000 135.000
50.76500 131.000
50.78000 137.000
50.79500 123.000
50.81000 125.000
50.82500 143.000
50.84000 143.000
50.85500 138.000
50.87000 126.000
50.88500 131.000
50.90000 143.000
50.91500 155.000
50.93000 150.000
50.94500 150.000
50.96000 146.000
50.97500 142.000
50.99000 143.000
51.00500 134.000
51.02000 144.000
51.03500 130.000
51.05000 132.000
51.06500 152.000
51.08000 149.000
51.09500 144.000
51.11000 146.000
51.12500 155.000
51.14000 151.000
51.15500 130.000
51.17000 129.000
51.18500 132.000
51.20000 141.000
51.21500 141.000
51.23000 145.000
51.24500 140.000
51.26000 146.000
51.27500 152.000
51.29000 151.000
51.30500 150.000
51.32000 145.000
51.33500 135.000
51.35000 136.000
51.36500 126.000
51.38000 137.000
51.39500 146.000
51.41000 138.000
51.42500 141.000
51.44000 143.000
51.45500 148.000
51.47000 149.000
51.48500 135.000
51.50000 124.000
51.51500 154.000
51.53000 135.000
51.54500 143.000
51.56000 152.000
51.57500 147.000
51.59000 136.000
51.60500 139.000
51.62000 137.000
51.63500 146.000
51.65000 143.000
51.66500 141.000
51.68000 160.000
51.69500 136.000
51.71000 139.000
51.72500 143.000
51.74000 143.000
51.75500 151.000
51.77000 146.000
51.78500 151.000
51.80000 144.000
51.81500 148.000
51.83000 133.000
51.84500 135.000
51.86000 142.000
51.87500 147.000
51.89000 138.000
51.90500 126.000
51.92000 128.000
51.93500 126.000
51.95000 141.000
51.96500 143.000
51.98000 143.000
51.99500 144.000
52.01000 119.000
52.02500 120.000
52.04000 141.000
52.05500 146.000
52.07000 129.000
52.08500 146.000
52.10000 170.000
52.11500 147.000
52.13000 137.000
52.14500 140.000
52.16000 125.000
52.17500 133.000
52.19000 141.000
52.20500 153.000
52.22000 152.000
52.23500 150.000
52.25000 152.000
52.26500 161.000
52.28000 127.000
52.29500 131.000
52.31000 161.000
52.32500 166.000
52.34000 140.000
52.35500 140.000
52.37000 127.000
52.38500 151.000
52.40000 161.000
52.41500 161.000
52.43000 153.000
52.44500 146.000
52.46000 137.000
52.47500 157.000
52.49000 144.000
52.50500 143.000
52.52000 144.000
52.53500 143.000
52.55000 151.000
52.56500 149.000
52.58000 152.000
52.59500 146.000
52.61000 144.000
52.62500 128.000
52.64000 149.000
52.65500 163.000
52.67000 132.000
52.68500 137.000
52.70000 140.000
52.71500 137.000
52.73000 145.000
52.74500 136.000
52.76000 131.000
52.77500 139.000
52.79000 132.000
52.80500 134.000
52.82000 146.000
52.83500 144.000
52.85000 136.000
52.86500 144.000
52.88000 140.000
52.89500 150.000
52.91000 147.000
52.92500 140.000
52.94000 138.000
52.95500 133.000
52.97000 138.000
52.98500 140.000
53.00000 123.000
53.01500 160.000
53.03000 154.000
53.04500 160.000
53.06000 138.000
53.07500 158.000
53.09000 146.000
53.10500 130.000
53.12000 148.000
53.13500 150.000
53.15000 148.000
53.16500 144.000
53.18000 149.000
53.19500 142.000
53.21000 139.000
53.22500 146.000
53.24000 149.000
53.25500 150.000
53.27000 144.000
53.28500 145.000
53.30000 152.000
53.31500 145.000
53.33000 132.000
53.34500 154.000
53.36000 170.000
53.37500 150.000
53.39000 151.000
53.40500 145.000
53.42000 140.000
53.43500 158.000
53.45000 160.000
53.46500 138.000
53.48000 155.000
53.49500 161.000
53.51000 147.000
53.52500 146.000
53.54000 141.000
53.55500 148.000
53.57000 142.000
53.58500 131.000
53.60000 138.000
53.61500 145.000
53.63000 141.000
53.64500 149.000
53.66000 148.000
53.67500 121.000
53.69000 133.000
53.70500 134.000
53.72000 141.000
53.73500 133.000
53.75000 133.000
53.76500 133.000
53.78000 137.000
53.79500 122.000
53.81000 134.000
53.82500 144.000
53.84000 142.000
53.85500 149.000
53.87000 140.000
53.88500 131.000
53.90000 155.000
53.91500 136.000
53.93000 134.000
53.94500 137.000
53.96000 137.000
53.97500 147.000
53.99000 149.000
54.00500 149.000
54.02000 135.000
54.03500 147.000
54.05000 150.000
54.06500 142.000
54.08000 157.000
54.09500 126.000
54.11000 139.000
54.12500 142.000
54.14000 143.000
54.15500 145.000
54.17000 120.000
54.18500 135.000
54.20000 143.000
54.21500 157.000
54.23000 140.000
54.24500 148.000
54.26000 141.000
54.27500 148.000
54.29000 136.000
54.30500 133.000
54.32000 135.000
54.33500 131.000
54.35000 127.000
54.36500 127.000
54.38000 151.000
54.39500 152.000
54.41000 152.000
54.42500 140.000
54.44000 131.000
54.45500 110.000
54.47000 126.000
54.48500 142.000
54.50000 121.000
54.51500 147.000
54.53000 157.000
54.54500 157.000
54.56000 125.000
54.57500 137.000
54.59000 132.000
54.60500 133.000
54.62000 154.000
54.63500 157.000
54.65000 144.000
54.66500 159.000
54.68000 140.000
54.69500 125.000
54.71000 134.000
54.72500 152.000
54.74000 142.000
54.75500 156.000
54.77000 136.000
54.78500 145.000
54.80000 157.000
54.81500 143.000
54.83000 148.000
54.84500 135.000
54.86000 128.000
54.87500 131.000
54.89000 142.000
54.90500 133.000
54.92000 130.000
54.93500 133.000
54.95000 137.000
54.96500 140.000
54.98000 133.000
54.99500 139.000
55.01000 136.000
55.02500 121.000
55.04000 136.000
55.05500 149.000
55.07000 151.000
55.08500 153.000
55.10000 128.000
55.11500 145.000
55.13000 148.000
55.14500 142.000
55.16000 139.000
55.17500 128.000
55.19000 156.000
55.20500 136.000
55.22000 147.000
55.23500 140.000
55.25000 134.000
55.26500 117.000
55.28000 124.000
55.29500 133.000
55.31000 134.000
55.32500 119.000
55.34000 133.000
55.35500 154.000
55.37000 123.000
55.38500 132.000
55.40000 125.000
55.41500 136.000
55.43000 135.000
55.44500 140.000
55.46000 139.000
55.47500 136.000
55.49000 123.000
55.50500 148.000
55.52000 143.000
55.53500 142.000
55.55000 128.000
55.56500 106.000
55.58000 124.000
55.59500 136.000
55.61000 138.000
55.62500 127.000
55.64000 120.000
55.65500 126.000
55.67000 130.000
55.68500 139.000
55.70000 145.000
55.71500 138.000
55.73000 147.000
55.74500 138.000
55.76000 126.000
55.77500 140.000
55.79000 142.000
55.80500 142.000
55.82000 143.000
55.83500 157.000
55.85000 140.000
55.86500 141.000
55.88000 156.000
55.89500 154.000
55.91000 142.000
55.92500 141.000
55.94000 131.000
55.95500 142.000
55.97000 151.000
55.98500 142.000
56.00000 153.000
56.01500 157.000
56.03000 133.000
56.04500 134.000
56.06000 165.000
56.07500 167.000
56.09000 139.000
56.10500 140.000
56.12000 144.000
56.13500 136.000
56.15000 132.000
56.16500 133.000
56.18000 151.000
56.19500 136.000
56.21000 139.000
56.22500 126.000
56.24000 130.000
56.25500 147.000
56.27000 139.000
56.28500 125.000
56.30000 134.000
56.31500 135.000
56.33000 127.000
56.34500 158.000
56.36000 152.000
56.37500 122.000
56.39000 139.000
56.40500 153.000
56.42000 136.000
56.43500 153.000
56.45000 129.000
56.46500 122.000
56.48000 115.000
56.49500 130.000
56.51000 136.000
56.52500 123.000
56.54000 129.000
56.55500 133.000
56.57000 135.000
56.58500 137.000
56.60000 131.000
56.61500 128.000
56.63000 147.000
56.64500 131.000
56.66000 135.000
56.67500 132.000
56.69000 140.000
56.70500 119.000
56.72000 134.000
56.73500 146.000
56.75000 128.000
56.76500 131.000
56.78000 135.000
56.79500 137.000
56.81000 135.000
56.82500 133.000
56.84000 133.000
56.85500 117.000
56.87000 121.000
56.88500 127.000
56.90000 120.000
56.91500 117.000
56.93000 109.000
56.94500 121.000
56.96000 134.000
56.97500 123.000
56.99000 139.000
57.00500 120.000
57.02000 115.000
57.03500 128.000
57.05000 137.000
57.06500 137.000
57.08000 134.000
57.09500 133.000
57.11000 118.000
57.12500 129.000
57.14000 124.000
57.15500 136.000
57.17000 134.000
57.18500 134.000
57.20000 125.000
57.21500 120.000
57.23000 133.000
57.24500 141.000
57.26000 138.000
57.27500 133.000
57.29000 111.000
57.30500 134.000
57.32000 127.000
57.33500 130.000
57.35000 115.000
57.36500 130.000
57.38000 137.000
57.39500 131.000
57.41000 133.000
57.42500 115.000
57.44000 136.000
57.45500 119.000
57.47000 121.000
57.48500 119.000
57.50000 125.000
57.51500 138.000
57.53000 140.000
57.54500 120.000
57.56000 116.000
57.57500 129.000
57.59000 143.000
57.60500 126.000
57.62000 135.000
57.63500 141.000
57.65000 118.000
57.66500 115.000
57.68000 123.000
57.69500 113.000
57.71000 106.000
57.72500 119.000
57.74000 117.000
57.75500 127.000
57.77000 126.000
57.78500 130.000
57.80000 124.000
57.81500 133.000
57.83000 125.000
57.84500 136.000
57.86000 146.000
57.87500 137.000
57.89000 142.000
57.90500 148.000
57.92000 128.000
57.93500 143.000
57.95000 126.000
57.96500 125.000
57.98000 125.000
57.99500 131.000
58.01000 128.000
58.02500 131.000
58.04000 122.000
58.05500 131.000
58.07000 128.000
58.08500 129.000
58.10000 132.000
58.11500 133.000
58.13000 122.000
58.14500 135.000
58.16000 110.000
58.17500 117.000
58.19000 129.000
58.20500 140.000
58.22000 126.000
58.23500 147.000
58.25000 131.000
58.26500 114.000
58.28000 127.000
58.29500 115.000
58.31000 125.000
58.32500 125.000
58.34000 115.000
58.35500 116.000
58.37000 118.000
58.38500 118.000
58.40000 141.000
58.41500 139.000
58.43000 121.000
58.44500 140.000
58.46000 132.000
58.47500 122.000
58.49000 120.000
58.50500 117.000
58.52000 109.000
58.53500 123.000
58.55000 124.000
58.56500 123.000
58.58000 117.000
58.59500 133.000
58.61000 144.000
58.62500 133.000
58.64000 140.000
58.65500 117.000
58.67000 131.000
58.68500 122.000
58.70000 113.000
58.71500 122.000
58.73000 131.000
58.74500 124.000
58.76000 120.000
58.77500 128.000
58.79000 123.000
58.80500 126.000
58.82000 119.000
58.83500 124.000
58.85000 138.000
58.86500 135.000
58.88000 130.000
58.89500 129.000
58.91000 132.000
58.92500 136.000
58.94000 133.000
58.95500 122.000
58.97000 115.000
58.98500 137.000
59.00000 137.000
59.01500 125.000
59.03000 132.000
59.04500 139.000
59.06000 142.000
59.07500 121.000
59.09000 115.000
59.10500 126.000
59.12000 114.000
59.13500 128.000
59.15000 132.000
59.16500 132.000
59.18000 127.000
59.19500 125.000
59.21000 148.000
59.22500 134.000
59.24000 121.000
59.25500 138.000
59.27000 144.000
59.28500 135.000
59.30000 134.000
59.31500 132.000
59.33000 111.000
59.34500 135.000
59.36000 135.000
59.37500 139.000
59.39000 151.000
59.40500 127.000
59.42000 132.000
59.43500 140.000
59.45000 125.000
59.46500 125.000
59.48000 134.000
59.49500 121.000
59.51000 119.000
59.52500 136.000
59.54000 133.000
59.55500 133.000
59.57000 141.000
59.58500 125.000
59.60000 125.000
59.61500 138.000
59.63000 133.000
59.64500 133.000
59.66000 145.000
59.67500 136.000
59.69000 134.000
59.70500 126.000
59.72000 128.000
59.73500 126.000
59.75000 113.000
59.76500 118.000
59.78000 129.000
59.79500 118.000
59.81000 119.000
59.82500 121.000
59.84000 116.000
59.85500 130.000
59.87000 122.000
59.88500 138.000
59.90000 124.000
59.91500 131.000
59.93000 112.000
59.94500 132.000
59.96000 130.000
59.97500 131.000
59.99000 139.000
60.00500 128.000
60.02000 128.000
60.03500 110.000
60.05000 114.000
60.06500 108.000
60.08000 118.000
60.09500 120.000
60.11000 127.000
60.12500 119.000
60.14000 116.000
60.15500 121.000
60.17000 114.000
60.18500 121.000
60.20000 121.000
60.21500 116.000
60.23000 112.000
60.24500 122.000
60.26000 127.000
60.27500 120.000
60.29000 116.000
60.30500 123.000
60.32000 108.000
60.33500 113.000
60.35000 123.000
60.36500 132.000
60.38000 121.000
60.39500 116.000
60.41000 108.000
60.42500 115.000
60.44000 119.000
60.45500 122.000
60.47000 132.000
60.48500 122.000
60.50000 103.000
60.51500 109.000
60.53000 121.000
60.54500 129.000
60.56000 118.000
60.57500 121.000
60.59000 107.000
60.60500 117.000
60.62000 117.000
60.63500 113.000
60.65000 117.000
60.66500 129.000
60.68000 128.000
60.69500 136.000
60.71000 140.000
60.72500 123.000
60.74000 114.000
60.75500 134.000
60.77000 126.000
60.78500 112.000
60.80000 109.000
60.81500 123.000
60.83000 110.000
60.84500 106.000
60.86000 113.000
60.87500 132.000
60.89000 141.000
60.90500 130.000
60.92000 124.000
60.93500 124.000
60.95000 124.000
60.96500 110.000
60.98000 128.000
60.99500 126.000
61.01000 119.000
61.02500 136.000
61.04000 123.000
61.05500 109.000
61.07000 119.000
61.08500 130.000
61.10000 115.000
61.11500 111.000
61.13000 105.000
61.14500 124.000
61.16000 112.000
61.17500 128.000
61.19000 118.000
61.20500 111.000
61.22000 119.000
61.23500 116.000
61.25000 100.000
61.26500 103.000
61.28000 130.000
61.29500 120.000
61.31000 124.000
61.32500 123.000
61.34000 102.000
61.35500 112.000
61.37000 124.000
61.38500 115.000
61.40000 117.000
61.41500 116.000
61.43000 132.000
61.44500 128.000
61.46000 120.000
61.47500 134.000
61.49000 124.000
61.50500 113.000
61.52000 131.000
61.53500 107.000
61.55000 124.000
61.56500 115.000
61.58000 133.000
61.59500 120.000
61.61000 113.000
61.62500 110.000
61.64000 109.000
61.65500 118.000
61.67000 118.000
61.68500 126.000
61.70000 122.000
61.71500 118.000
61.73000 112.000
61.74500 122.000
61.76000 114.000
61.77500 107.000
61.79000 108.000
61.80500 119.000
61.82000 106.000
61.83500 114.000
61.85000 123.000
61.86500 122.000
61.88000 113.000
61.89500 124.000
61.91000 122.000
61.92500 103.000
61.94000 113.000
61.95500 131.000
61.97000 126.000
61.98500 110.000
