2.00000 3.000
2.01500 4.000
2.03000 4.000
2.04500 1.000
2.06000 1.000
2.07500 2.000
2.09000 1.000
2.10500 2.000
2.12000 2.000
2.13500 1.000
2.15000 3.000
2.16500 3.000
2.18000 2.000
2.19500 3.000
2.21000 2.000
2.22500 3.000
2.24000 2.000
2.25500 4.000
2.27000 3.000
2.28500 5.000
2.30000 3.000
2.31500 2.000
2.33000 3.000
2.34500 0.000
2.36000 2.000
2.37500 1.000
2.39000 0.000
2.40500 4.000
2.42000 5.000
2.43500 1.000
2.45000 2.000
2.46500 2.000
2.48000 1.000
2.49500 1.000
2.51000 1.000
2.52500 1.000
2.54000 5.000
2.55500 2.000
2.57000 1.000
2.58500 1.000
2.60000 1.000
2.61500 1.000
2.63000 3.000
2.64500 5.000
2.66000 10.000
2.67500 10.000
2.69000 16.000
2.70500 13.000
2.72000 16.000
2.73500 32.000
2.75000 43.000
2.76500 42.000
2.78000 56.000
2.79500 78.000
2.81000 101.000
2.82500 112.000
2.84000 149.000
2.85500 185.000
2.87000 239.000
2.88500 248.000
2.90000 269.000
2.91500 273.000
2.93000 285.000
2.94500 287.000
2.96000 278.000
2.97500 276.000
2.99000 273.000
3.00500 298.000
3.02000 260.000
3.03500 272.000
3.05000 255.000
3.06500 251.000
3.08000 270.000
3.09500 301.000
3.11000 268.000
3.12500 244.000
3.14000 266.000
3.15500 268.000
3.17000 259.000
3.18500 255.000
3.20000 279.000
3.21500 249.000
3.23000 250.000
3.24500 259.000
3.26000 271.000
3.27500 274.000
3.29000 270.000
3.30500 255.000
3.32000 250.000
3.33500 258.000
3.35000 286.000
3.36500 260.000
3.38000 250.000
3.39500 270.000
3.41000 273.000
3.42500 251.000
3.44000 233.000
3.45500 243.000
3.47000 265.000
3.48500 233.000
3.50000 244.000
3.51500 266.000
3.53000 242.000
3.54500 234.000
3.56000 251.000
3.57500 243.000
3.59000 270.000
3.60500 259.000
3.62000 253.000
3.63500 252.000
3.65000 273.000
3.66500 258.000
3.68000 243.000
3.69500 268.000
3.71000 265.000
3.72500 248.000
3.74000 247.000
3.75500 241.000
3.77000 232.000
3.78500 245.000
3.80000 254.000
3.81500 264.000
3.83000 253.000
3.84500 244.000
3.86000 232.000
3.87500 239.000
3.89000 238.000
3.90500 251.000
3.92000 232.000
3.93500 236.000
3.95000 250.000
3.96500 257.000
3.98000 227.000
3.99500 259.000
4.01000 255.000
4.02500 268.000
4.04000 247.000
4.05500 240.000
4.07000 245.000
4.08500 253.000
4.10000 219.000
4.11500 213.000
4.13000 238.000
4.14500 255.000
4.16000 248.000
4.17500 242.000
4.19000 254.000
4.20500 278.000
4.22000 269.000
4.23500 243.000
4.25000 247.000
4.26500 263.000
4.28000 249.000
4.29500 247.000
4.31000 250.000
4.32500 248.000
4.34000 269.000
4.35500 263.000
4.37000 238.000
4.38500 250.000
4.40000 283.000
4.41500 247.000
4.43000 245.000
4.44500 260.000
4.46000 244.000
4.47500 256.000
4.49000 261.000
4.50500 273.000
4.52000 258.000
4.53500 263.000
4.55000 253.000
4.56500 274.000
4.58000 263.000
4.59500 272.000
4.61000 249.000
4.62500 249.000
4.64000 236.000
4.65500 267.000
4.67000 269.000
4.68500 234.000
4.70000 253.000
4.71500 253.000
4.73000 261.000
4.74500 246.000
4.76000 266.000
4.77500 276.000
4.79000 255.000
4.80500 250.000
4.82000 264.000
4.83500 263.000
4.85000 255.000
4.86500 258.000
4.88000 266.000
4.89500 270.000
4.91000 254.000
4.92500 255.000
4.94000 290.000
4.95500 259.000
4.97000 260.000
4.98500 263.000
5.00000 253.000
5.01500 263.000
5.03000 247.000
5.04500 292.000
5.06000 261.000
5.07500 255.000
5.09000 261.000
5.10500 270.000
5.12000 262.000
5.13500 279.000
5.15000 279.000
5.16500 272.000
5.18000 266.000
5.19500 282.000
5.21000 279.000
5.22500 302.000
5.24000 296.000
5.25500 277.000
5.27000 273.000
5.28500 269.000
5.30000 280.000
5.31500 286.000
5.33000 275.000
5.34500 233.000
5.36000 275.000
5.37500 279.000
5.39000 306.000
5.40500 266.000
5.42000 276.000
5.43500 275.000
5.45000 263.000
5.46500 270.000
5.48000 286.000
5.49500 258.000
5.51000 263.000
5.52500 298.000
5.54000 317.000
5.55500 322.000
5.57000 307.000
5.58500 301.000
5.60000 281.000
5.61500 290.000
5.63000 264.000
5.64500 279.000
5.66000 306.000
5.67500 328.000
5.69000 299.000
5.70500 311.000
5.72000 302.000
5.73500 294.000
5.75000 297.000
5.76500 290.000
5.78000 322.000
5.79500 312.000
5.81000 333.000
5.82500 283.000
5.84000 314.000
5.85500 336.000
5.87000 320.000
5.88500 365.000
5.90000 350.000
5.91500 353.000
5.93000 360.000
5.94500 393.000
5.96000 413.000
5.97500 436.000
5.99000 442.000
6.00500 453.000
6.02000 461.000
6.03500 506.000
6.05000 521.000
6.06500 543.000
6.08000 561.000
6.09500 581.000
6.11000 603.000
6.12500 626.000
6.14000 615.000
6.15500 623.000
6.17000 617.000
6.18500 575.000
6.20000 534.000
6.21500 486.000
6.23000 414.000
6.24500 397.000
6.26000 391.000
6.27500 346.000
6.29000 348.000
6.30500 324.000
6.32000 325.000
6.33500 308.000
6.35000 320.000
6.36500 332.000
6.38000 292.000
6.39500 297.000
6.41000 318.000
6.42500 275.000
6.44000 300.000
6.45500 308.000
6.47000 311.000
6.48500 315.000
6.50000 292.000
6.51500 289.000
6.53000 299.000
6.54500 297.000
6.56000 302.000
6.57500 300.000
6.59000 308.000
6.60500 311.000
6.62000 296.000
6.63500 302.000
6.65000 309.000
6.66500 304.000
6.68000 300.000
6.69500 308.000
6.71000 308.000
6.72500 289.000
6.74000 285.000
6.75500 285.000
6.77000 283.000
6.78500 264.000
6.80000 276.000
6.81500 274.000
6.83000 294.000
6.84500 285.000
6.86000 302.000
6.87500 295.000
6.89000 298.000
6.90500 309.000
6.92000 307.000
6.93500 315.000
6.95000 303.000
6.96500 289.000
6.98000 284.000
6.99500 293.000
7.01000 322.000
7.02500 298.000
7.04000 283.000
7.05500 296.000
7.07000 291.000
7.08500 315.000
7.10000 326.000
7.11500 291.000
7.13000 293.000
7.14500 298.000
7.16000 278.000
7.17500 290.000
7.19000 308.000
7.20500 264.000
7.22000 308.000
7.23500 316.000
7.25000 312.000
7.26500 302.000
7.28000 306.000
7.29500 304.000
7.31000 321.000
7.32500 305.000
7.34000 321.000
7.35500 298.000
7.37000 287.000
7.38500 313.000
7.40000 330.000
7.41500 319.000
7.43000 316.000
7.44500 294.000
7.46000 298.000
7.47500 287.000
7.49000 320.000
7.50500 288.000
7.52000 293.000
7.53500 303.000
7.55000 317.000
7.56500 323.000
7.58000 307.000
7.59500 323.000
7.61000 325.000
7.62500 314.000
7.64000 302.000
7.65500 325.000
7.67000 327.000
7.68500 296.000
7.70000 318.000
7.71500 333.000
7.73000 328.000
7.74500 335.000
7.76000 332.000
7.77500 335.000
7.79000 335.000
7.80500 327.000
7.82000 338.000
7.83500 318.000
7.85000 315.000
7.86500 330.000
7.88000 358.000
7.89500 324.000
7.91000 318.000
7.92500 343.000
7.94000 332.000
7.95500 359.000
7.97000 333.000
7.98500 343.000
8.00000 349.000
8.01500 348.000
8.03000 373.000
8.04500 363.000
8.06000 357.000
8.07500 349.000
8.09000 368.000
8.10500 371.000
8.12000 340.000
8.13500 346.000
8.15000 333.000
8.16500 365.000
8.18000 363.000
8.19500 358.000
8.21000 356.000
8.22500 336.000
8.24000 340.000
8.25500 335.000
8.27000 324.000
8.28500 332.000
8.30000 340.000
8.31500 347.000
8.33000 349.000
8.34500 350.000
8.36000 321.000
8.37500 313.000
8.39000 341.000
8.40500 333.000
8.42000 342.000
8.43500 329.000
8.45000 317.000
8.46500 310.000
8.48000 286.000
8.49500 319.000
8.51000 314.000
8.52500 315.000
8.54000 316.000
8.55500 327.000
8.57000 326.000
8.58500 305.000
8.60000 303.000
8.61500 288.000
8.63000 326.000
8.64500 321.000
8.66000 316.000
8.67500 311.000
8.69000 311.000
8.70500 297.000
8.72000 326.000
8.73500 308.000
8.75000 302.000
8.76500 306.000
8.78000 285.000
8.79500 305.000
8.81000 326.000
8.82500 293.000
8.84000 287.000
8.85500 304.000
8.87000 285.000
8.88500 304.000
8.90000 313.000
8.91500 294.000
8.93000 300.000
8.94500 333.000
8.96000 320.000
8.97500 321.000
8.99000 311.000
9.00500 322.000
9.02000 335.000
9.03500 293.000
9.05000 305.000
9.06500 315.000
9.08000 311.000
9.09500 315.000
9.11000 298.000
9.12500 295.000
9.14000 324.000
9.15500 313.000
9.17000 309.000
9.18500 301.000
9.20000 312.000
9.21500 322.000
9.23000 287.000
9.24500 277.000
9.26000 318.000
9.27500 304.000
9.29000 311.000
9.30500 303.000
9.32000 321.000
9.33500 324.000
9.35000 313.000
9.36500 285.000
9.38000 304.000
9.39500 330.000
9.41000 331.000
9.42500 328.000
9.44000 319.000
9.45500 308.000
9.47000 293.000
9.48500 289.000
9.50000 319.000
9.51500 328.000
9.53000 295.000
9.54500 298.000
9.56000 303.000
9.57500 308.000
9.59000 319.000
9.60500 295.000
9.62000 302.000
9.63500 311.000
9.65000 306.000
9.66500 300.000
9.68000 286.000
9.69500 303.000
9.71000 310.000
9.72500 322.000
9.74000 321.000
9.75500 328.000
9.77000 330.000
9.78500 293.000
9.80000 293.000
9.81500 307.000
9.83000 283.000
9.84500 294.000
9.86000 303.000
9.87500 311.000
9.89000 333.000
9.90500 314.000
9.92000 303.000
9.93500 298.000
9.95000 314.000
9.96500 315.000
9.98000 329.000
9.99500 339.000
10.01000 329.000
10.02500 279.000
10.04000 304.000
10.05500 318.000
10.07000 290.000
10.08500 324.000
10.10000 300.000
10.11500 313.000
10.13000 307.000
10.14500 327.000
10.16000 320.000
10.17500 304.000
10.19000 328.000
10.20500 349.000
10.22000 349.000
10.23500 324.000
10.25000 311.000
10.26500 308.000
10.28000 357.000
10.29500 318.000
10.31000 317.000
10.32500 333.000
10.34000 328.000
10.35500 322.000
10.37000 305.000
10.38500 313.000
10.40000 338.000
10.41500 342.000
10.43000 354.000
10.44500 354.000
10.46000 389.000
10.47500 363.000
10.49000 384.000
10.50500 379.000
10.52000 412.000
10.53500 444.000
10.55000 433.000
10.56500 475.000
10.58000 558.000
10.59500 609.000
10.61000 666.000
10.62500 748.000
10.64000 738.000
10.65500 636.000
10.67000 522.000
10.68500 469.000
10.70000 417.000
10.71500 427.000
10.73000 406.000
10.74500 406.000
10.76000 383.000
10.77500 405.000
10.79000 393.000
10.80500 422.000
10.82000 445.000
10.83500 464.000
10.85000 472.000
10.86500 512.000
10.88000 555.000
10.89500 600.000
10.91000 677.000
10.92500 694.000
10.94000 768.000
10.95500 893.000
10.97000 1015.000
10.98500 1162.000
11.00000 1286.000
11.01500 1458.000
11.03000 1569.000
11.04500 1376.000
11.06000 1156.000
11.07500 870.000
11.09000 684.000
11.10500 527.000
11.12000 435.000
11.13500 426.000
11.15000 399.000
11.16500 393.000
11.18000 365.000
11.19500 356.000
11.21000 389.000
11.22500 355.000
11.24000 344.000
11.25500 331.000
11.27000 316.000
11.28500 324.000
11.30000 339.000
11.31500 335.000
11.33000 342.000
11.34500 340.000
11.36000 324.000
11.37500 330.000
11.39000 340.000
11.40500 330.000
11.42000 348.000
11.43500 324.000
11.45000 333.000
11.46500 341.000
11.48000 300.000
11.49500 319.000
11.51000 353.000
11.52500 346.000
11.54000 332.000
11.55500 330.000
11.57000 332.000
11.58500 363.000
11.60000 367.000
11.61500 360.000
11.63000 340.000
11.64500 323.000
11.66000 323.000
11.67500 335.000
11.69000 360.000
11.70500 345.000
11.72000 332.000
11.73500 323.000
11.75000 313.000
11.76500 310.000
11.78000 330.000
11.79500 331.000
11.81000 326.000
11.82500 333.000
11.84000 329.000
11.85500 350.000
11.87000 355.000
11.88500 373.000
11.90000 366.000
11.91500 341.000
11.93000 345.000
11.94500 331.000
11.96000 332.000
11.97500 337.000
11.99000 342.000
12.00500 353.000
12.02000 349.000
12.03500 368.000
12.05000 372.000
12.06500 386.000
12.08000 399.000
12.09500 414.000
12.11000 432.000
12.12500 420.000
12.14000 451.000
12.15500 484.000
12.17000 540.000
12.18500 537.000
12.20000 579.000
12.21500 622.000
12.23000 656.000
12.24500 677.000
12.26000 743.000
12.27500 808.000
12.29000 753.000
12.30500 766.000
12.32000 746.000
12.33500 758.000
12.35000 636.000
12.36500 597.000
12.38000 507.000
12.39500 434.000
12.41000 429.000
12.42500 428.000
12.44000 436.000
12.45500 398.000
12.47000 406.000
12.48500 367.000
12.50000 372.000
12.51500 359.000
12.53000 379.000
12.54500 397.000
12.56000 374.000
12.57500 373.000
12.59000 379.000
12.60500 401.000
12.62000 383.000
12.63500 377.000
12.65000 406.000
12.66500 413.000
12.68000 444.000
12.69500 380.000
12.71000 382.000
12.72500 412.000
12.74000 461.000
12.75500 431.000
12.77000 384.000
12.78500 424.000
12.80000 417.000
12.81500 461.000
12.83000 422.000
12.84500 406.000
12.86000 382.000
12.87500 420.000
12.89000 419.000
12.90500 407.000
12.92000 400.000
12.93500 407.000
12.95000 384.000
12.96500 417.000
12.98000 405.000
12.99500 393.000
13.01000 395.000
13.02500 395.000
13.04000 396.000
13.05500 394.000
13.07000 389.000
13.08500 423.000
13.10000 443.000
13.11500 438.000
13.13000 423.000
13.14500 427.000
13.16000 423.000
13.17500 412.000
13.19000 381.000
13.20500 393.000
13.22000 389.000
13.23500 393.000
13.25000 404.000
13.26500 379.000
13.28000 412.000
13.29500 405.000
13.31000 426.000
13.32500 437.000
13.34000 409.000
13.35500 402.000
13.37000 377.000
13.38500 400.000
13.40000 419.000
13.41500 388.000
13.43000 399.000
13.44500 397.000
13.46000 384.000
13.47500 380.000
13.49000 382.000
13.50500 359.000
13.52000 357.000
13.53500 389.000
13.55000 406.000
13.56500 364.000
13.58000 357.000
13.59500 361.000
13.61000 363.000
13.62500 385.000
13.64000 380.000
13.65500 406.000
13.67000 399.000
13.68500 371.000
13.70000 358.000
13.71500 370.000
13.73000 382.000
13.74500 367.000
13.76000 379.000
13.77500 382.000
13.79000 395.000
13.80500 373.000
13.82000 417.000
13.83500 378.000
13.85000 367.000
13.86500 391.000
13.88000 391.000
13.89500 406.000
13.91000 380.000
13.92500 360.000
13.94000 393.000
13.95500 388.000
13.97000 372.000
13.98500 378.000
14.00000 386.000
14.01500 390.000
14.03000 397.000
14.04500 406.000
14.06000 393.000
14.07500 376.000
14.09000 414.000
14.10500 405.000
14.12000 396.000
14.13500 388.000
14.15000 401.000
14.16500 375.000
14.18000 371.000
14.19500 392.000
14.21000 393.000
14.22500 412.000
14.24000 419.000
14.25500 399.000
14.27000 376.000
14.28500 394.000
14.30000 394.000
14.31500 403.000
14.33000 413.000
14.34500 392.000
14.36000 392.000
14.37500 410.000
14.39000 412.000
14.40500 390.000
14.42000 384.000
14.43500 387.000
14.45000 399.000
14.46500 390.000
14.48000 418.000
14.49500 402.000
14.51000 383.000
14.52500 407.000
14.54000 393.000
14.55500 396.000
14.57000 394.000
14.58500 418.000
14.60000 416.000
14.61500 409.000
14.63000 420.000
14.64500 408.000
14.66000 419.000
14.67500 410.000
14.69000 412.000
14.70500 434.000
14.72000 458.000
14.73500 391.000
14.75000 409.000
14.76500 426.000
14.78000 412.000
14.79500 461.000
14.81000 466.000
14.82500 444.000
14.84000 422.000
14.85500 412.000
14.87000 440.000
14.88500 453.000
14.90000 434.000
14.91500 461.000
14.93000 458.000
14.94500 450.000
14.96000 419.000
14.97500 396.000
14.99000 400.000
15.00500 418.000
15.02000 401.000
15.03500 420.000
15.05000 390.000
15.06500 418.000
15.08000 407.000
15.09500 398.000
15.11000 418.000
15.12500 412.000
15.14000 401.000
15.15500 388.000
15.17000 393.000
15.18500 433.000
15.20000 407.000
15.21500 393.000
15.23000 385.000
15.24500 386.000
15.26000 418.000
15.27500 428.000
15.29000 426.000
15.30500 411.000
15.32000 406.000
15.33500 407.000
15.35000 436.000
15.36500 438.000
15.38000 409.000
15.39500 403.000
15.41000 394.000
15.42500 376.000
15.44000 408.000
15.45500 406.000
15.47000 378.000
15.48500 392.000
15.50000 387.000
15.51500 407.000
15.53000 407.000
15.54500 397.000
15.56000 398.000
15.57500 409.000
15.59000 386.000
15.60500 358.000
15.62000 378.000
15.63500 391.000
15.65000 392.000
15.66500 360.000
15.68000 422.000
15.69500 395.000
15.71000 398.000
15.72500 377.000
15.74000 400.000
15.75500 366.000
15.77000 391.000
15.78500 412.000
15.80000 421.000
15.81500 390.000
15.83000 369.000
15.84500 365.000
15.86000 405.000
15.87500 398.000
15.89000 385.000
15.90500 386.000
15.92000 403.000
15.93500 409.000
15.95000 372.000
15.96500 401.000
15.98000 390.000
15.99500 390.000
16.01000 407.000
16.02500 394.000
16.04000 402.000
16.05500 409.000
16.07000 405.000
16.08500 425.000
16.10000 422.000
16.11500 440.000
16.13000 387.000
16.14500 387.000
16.16000 382.000
16.17500 371.000
16.19000 390.000
16.20500 390.000
16.22000 386.000
16.23500 390.000
16.25000 399.000
16.26500 397.000
16.28000 375.000
16.29500 435.000
16.31000 448.000
16.32500 435.000
16.34000 370.000
16.35500 421.000
16.37000 417.000
16.38500 425.000
16.40000 403.000
16.41500 432.000
16.43000 409.000
16.44500 395.000
16.46000 411.000
16.47500 384.000
16.49000 411.000
16.50500 432.000
16.52000 370.000
16.53500 388.000
16.55000 378.000
16.56500 394.000
16.58000 409.000
16.59500 409.000
16.61000 414.000
16.62500 385.000
16.64000 364.000
16.65500 371.000
16.67000 392.000
16.68500 389.000
16.70000 413.000
16.71500 405.000
16.73000 403.000
16.74500 376.000
16.76000 386.000
16.77500 399.000
16.79000 412.000
16.80500 393.000
16.82000 373.000
16.83500 366.000
16.85000 377.000
16.86500 379.000
16.88000 406.000
16.89500 411.000
16.91000 409.000
16.92500 398.000
16.94000 408.000
16.95500 415.000
16.97000 388.000
16.98500 379.000
17.00000 395.000
17.01500 419.000
17.03000 414.000
17.04500 393.000
17.06000 382.000
17.07500 405.000
17.09000 406.000
17.10500 404.000
17.12000 399.000
17.13500 376.000
17.15000 405.000
17.16500 412.000
17.18000 404.000
17.19500 392.000
17.21000 375.000
17.22500 409.000
17.24000 401.000
17.25500 408.000
17.27000 396.000
17.28500 416.000
17.30000 420.000
17.31500 448.000
17.33000 422.000
17.34500 441.000
17.36000 457.000
17.37500 420.000
17.39000 439.000
17.40500 490.000
17.42000 504.000
17.43500 488.000
17.45000 431.000
17.46500 434.000
17.48000 488.000
17.49500 516.000
17.51000 526.000
17.52500 516.000
17.54000 514.000
17.55500 516.000
17.57000 531.000
17.58500 532.000
17.60000 544.000
17.61500 497.000
17.63000 469.000
17.64500 475.000
17.66000 507.000
17.67500 457.000
17.69000 465.000
17.70500 429.000
17.72000 461.000
17.73500 431.000
17.75000 430.000
17.76500 422.000
17.78000 403.000
17.79500 404.000
17.81000 405.000
17.82500 437.000
17.84000 415.000
17.85500 415.000
17.87000 393.000
17.88500 435.000
17.90000 416.000
17.91500 397.000
17.93000 410.000
17.94500 405.000
17.96000 399.000
17.97500 404.000
17.99000 402.000
18.00500 418.000
18.02000 407.000
18.03500 391.000
18.05000 380.000
18.06500 403.000
18.08000 415.000
18.09500 388.000
18.11000 368.000
18.12500 373.000
18.14000 410.000
18.15500 381.000
18.17000 375.000
18.18500 377.000
18.20000 406.000
18.21500 411.000
18.23000 372.000
18.24500 395.000
18.26000 375.000
18.27500 381.000
18.29000 375.000
18.30500 401.000
18.32000 423.000
18.33500 395.000
18.35000 390.000
18.36500 407.000
18.38000 410.000
18.39500 381.000
18.41000 402.000
18.42500 385.000
18.44000 386.000
18.45500 414.000
18.47000 418.000
18.48500 416.000
18.50000 389.000
18.51500 396.000
18.53000 418.000
18.54500 414.000
18.56000 413.000
18.57500 380.000
18.59000 411.000
18.60500 412.000
18.62000 402.000
18.63500 417.000
18.65000 418.000
18.66500 404.000
18.68000 385.000
18.69500 411.000
18.71000 383.000
18.72500 381.000
18.74000 382.000
18.75500 372.000
18.77000 384.000
18.78500 353.000
18.80000 358.000
18.81500 390.000
18.83000 397.000
18.84500 397.000
18.86000 379.000
18.87500 370.000
18.89000 355.000
18.90500 390.000
18.92000 409.000
18.93500 384.000
18.95000 396.000
18.96500 399.000
18.98000 375.000
18.99500 400.000
19.01000 392.000
19.02500 385.000
19.04000 394.000
19.05500 349.000
19.07000 355.000
19.08500 394.000
19.10000 376.000
19.11500 373.000
19.13000 364.000
19.14500 374.000
19.16000 388.000
19.17500 386.000
19.19000 370.000
19.20500 356.000
19.22000 391.000
19.23500 402.000
19.25000 399.000
19.26500 380.000
19.28000 383.000
19.29500 382.000
19.31000 381.000
19.32500 413.000
19.34000 413.000
19.35500 400.000
19.37000 372.000
19.38500 378.000
19.40000 395.000
19.41500 391.000
19.43000 386.000
19.44500 397.000
19.46000 416.000
19.47500 395.000
19.49000 391.000
19.50500 391.000
19.52000 398.000
19.53500 414.000
19.55000 390.000
19.56500 382.000
19.58000 387.000
19.59500 383.000
19.61000 411.000
19.62500 415.000
19.64000 410.000
19.65500 406.000
19.67000 383.000
19.68500 387.000
19.70000 381.000
19.71500 395.000
19.73000 412.000
19.74500 361.000
19.76000 386.000
19.77500 417.000
19.79000 385.000
19.80500 393.000
19.82000 393.000
19.83500 425.000
19.85000 406.000
19.86500 410.000
19.88000 393.000
19.89500 431.000
19.91000 434.000
19.92500 394.000
19.94000 403.000
19.95500 415.000
19.97000 406.000
19.98500 386.000
20.00000 406.000
20.01500 370.000
20.03000 371.000
20.04500 395.000
20.06000 384.000
20.07500 402.000
20.09000 398.000
20.10500 372.000
20.12000 422.000
20.13500 402.000
20.15000 391.000
20.16500 412.000
20.18000 399.000
20.19500 413.000
20.21000 396.000
20.22500 395.000
20.24000 383.000
20.25500 395.000
20.27000 408.000
20.28500 391.000
20.30000 384.000
20.31500 376.000
20.33000 373.000
20.34500 377.000
20.36000 398.000
20.37500 374.000
20.39000 386.000
20.40500 401.000
20.42000 398.000
20.43500 396.000
20.45000 373.000
20.46500 368.000
20.48000 375.000
20.49500 376.000
20.51000 373.000
20.52500 392.000
20.54000 395.000
20.55500 386.000
20.57000 398.000
20.58500 377.000
20.60000 384.000
20.61500 398.000
20.63000 377.000
20.64500 379.000
20.66000 376.000
20.67500 383.000
20.69000 381.000
20.70500 396.000
20.72000 391.000
20.73500 369.000
20.75000 383.000
20.76500 354.000
20.78000 372.000
20.79500 404.000
20.81000 376.000
20.82500 366.000
20.84000 368.000
20.85500 405.000
20.87000 403.000
20.88500 377.000
20.90000 341.000
20.91500 392.000
20.93000 395.000
20.94500 424.000
20.96000 429.000
20.97500 397.000
20.99000 411.000
21.00500 440.000
21.02000 419.000
21.03500 425.000
21.05000 402.000
21.06500 435.000
21.08000 446.000
21.09500 462.000
21.11000 463.000
21.12500 489.000
21.14000 439.000
21.15500 458.000
21.17000 482.000
21.18500 425.000
21.20000 450.000
21.21500 448.000
21.23000 442.000
21.24500 402.000
21.26000 443.000
21.27500 415.000
21.29000 403.000
21.30500 394.000
21.32000 419.000
21.33500 393.000
21.35000 403.000
21.36500 381.000
21.38000 410.000
21.39500 408.000
21.41000 423.000
21.42500 376.000
21.44000 389.000
21.45500 421.000
21.47000 417.000
21.48500 424.000
21.50000 381.000
21.51500 366.000
21.53000 388.000
21.54500 405.000
21.56000 400.000
21.57500 423.000
21.59000 394.000
21.60500 400.000
21.62000 406.000
21.63500 420.000
21.65000 428.000
21.66500 446.000
21.68000 416.000
21.69500 424.000
21.71000 414.000
21.72500 374.000
21.74000 383.000
21.75500 391.000
21.77000 414.000
21.78500 411.000
21.80000 408.000
21.81500 420.000
21.83000 450.000
21.84500 411.000
21.86000 415.000
21.87500 428.000
21.89000 416.000
21.90500 388.000
21.92000 406.000
21.93500 388.000
21.95000 418.000
21.96500 403.000
21.98000 397.000
21.99500 412.000
22.01000 442.000
22.02500 421.000
22.04000 424.000
22.05500 401.000
22.07000 417.000
22.08500 423.000
22.10000 412.000
22.11500 413.000
22.13000 414.000
22.14500 392.000
22.16000 397.000
22.17500 419.000
22.19000 419.000
22.20500 432.000
22.22000 427.000
22.23500 391.000
22.25000 432.000
22.26500 419.000
22.28000 433.000
22.29500 448.000
22.31000 403.000
22.32500 434.000
22.34000 397.000
22.35500 368.000
22.37000 399.000
22.38500 416.000
22.40000 389.000
22.41500 412.000
22.43000 408.000
22.44500 417.000
22.46000 394.000
22.47500 389.000
22.49000 396.000
22.50500 415.000
22.52000 420.000
22.53500 397.000
22.55000 397.000
22.56500 386.000
22.58000 387.000
22.59500 388.000
22.61000 397.000
22.62500 408.000
22.64000 415.000
22.65500 435.000
22.67000 434.000
22.68500 445.000
22.70000 421.000
22.71500 406.000
22.73000 432.000
22.74500 425.000
22.76000 469.000
22.77500 475.000
22.79000 468.000
22.80500 466.000
22.82000 440.000
22.83500 408.000
22.85000 397.000
22.86500 409.000
22.88000 446.000
22.89500 418.000
22.91000 403.000
22.92500 417.000
22.94000 450.000
22.95500 427.000
22.97000 428.000
22.98500 426.000
23.00000 381.000
23.01500 408.000
23.03000 406.000
23.04500 417.000
23.06000 423.000
23.07500 401.000
23.09000 424.000
23.10500 392.000
23.12000 439.000
23.13500 438.000
23.15000 438.000
23.16500 396.000
23.18000 394.000
23.19500 397.000
23.21000 398.000
23.22500 406.000
23.24000 410.000
23.25500 411.000
23.27000 410.000
23.28500 396.000
23.30000 402.000
23.31500 418.000
23.33000 430.000
23.34500 389.000
23.36000 407.000
23.37500 388.000
23.39000 379.000
23.40500 423.000
23.42000 412.000
23.43500 385.000
23.45000 370.000
23.46500 424.000
23.48000 374.000
23.49500 398.000
23.51000 411.000
23.52500 412.000
23.54000 415.000
23.55500 429.000
23.57000 395.000
23.58500 414.000
23.60000 397.000
23.61500 381.000
23.63000 378.000
23.64500 372.000
23.66000 391.000
23.67500 385.000
23.69000 385.000
23.70500 389.000
23.72000 393.000
23.73500 376.000
23.75000 393.000
23.76500 419.000
23.78000 403.000
23.79500 412.000
23.81000 411.000
23.82500 389.000
23.84000 399.000
23.85500 394.000
23.87000 390.000
23.88500 393.000
23.90000 413.000
23.91500 381.000
23.93000 354.000
23.94500 394.000
23.96000 394.000
23.97500 392.000
23.99000 408.000
24.00500 372.000
24.02000 373.000
24.03500 394.000
24.05000 397.000
24.06500 370.000
24.08000 408.000
24.09500 382.000
24.11000 394.000
24.12500 409.000
24.14000 391.000
24.15500 426.000
24.17000 408.000
24.18500 395.000
24.20000 394.000
24.21500 427.000
24.23000 428.000
24.24500 417.000
24.26000 414.000
24.27500 424.000
24.29000 419.000
24.30500 390.000
24.32000 427.000
24.33500 418.000
24.35000 434.000
24.36500 397.000
24.38000 404.000
24.39500 427.000
24.41000 422.000
24.42500 416.000
24.44000 449.000
24.45500 443.000
24.47000 416.000
24.48500 408.000
24.50000 435.000
24.51500 413.000
24.53000 429.000
24.54500 438.000
24.56000 455.000
24.57500 431.000
24.59000 434.000
24.60500 440.000
24.62000 446.000
24.63500 418.000
24.65000 443.000
24.66500 423.000
24.68000 434.000
24.69500 428.000
24.71000 432.000
24.72500 433.000
24.74000 461.000
24.75500 404.000
24.77000 420.000
24.78500 435.000
24.80000 412.000
24.81500 404.000
24.83000 375.000
24.84500 422.000
24.86000 410.000
24.87500 397.000
24.89000 402.000
24.90500 404.000
24.92000 424.000
24.93500 393.000
24.95000 405.000
24.96500 400.000
24.98000 377.000
24.99500 389.000
25.01000 408.000
25.02500 416.000
25.04000 395.000
25.05500 411.000
25.07000 420.000
25.08500 395.000
25.10000 407.000
25.11500 389.000
25.13000 383.000
25.14500 414.000
25.16000 433.000
25.17500 395.000
25.19000 380.000
25.20500 399.000
25.22000 425.000
25.23500 405.000
25.25000 411.000
25.26500 388.000
25.28000 416.000
25.29500 427.000
25.31000 420.000
25.32500 448.000
25.34000 454.000
25.35500 448.000
25.37000 472.000
25.38500 466.000
25.40000 500.000
25.41500 485.000
25.43000 517.000
25.44500 554.000
25.46000 566.000
25.47500 616.000
25.49000 617.000
25.50500 647.000
25.52000 664.000
25.53500 697.000
25.55000 720.000
25.56500 708.000
25.58000 785.000
25.59500 734.000
25.61000 745.000
25.62500 650.000
25.64000 623.000
25.65500 555.000
25.67000 571.000
25.68500 537.000
25.70000 540.000
25.71500 472.000
25.73000 509.000
25.74500 518.000
25.76000 450.000
25.77500 485.000
25.79000 465.000
25.80500 502.000
25.82000 461.000
25.83500 464.000
25.85000 462.000
25.86500 457.000
25.88000 451.000
25.89500 429.000
25.91000 458.000
25.92500 434.000
25.94000 460.000
25.95500 474.000
25.97000 434.000
25.98500 392.000
26.00000 416.000
26.01500 400.000
26.03000 416.000
26.04500 396.000
26.06000 420.000
26.07500 432.000
26.09000 433.000
26.10500 448.000
26.12000 476.000
26.13500 422.000
26.15000 427.000
26.16500 456.000
26.18000 444.000
26.19500 443.000
26.21000 442.000
26.22500 472.000
26.24000 438.000
26.25500 459.000
26.27000 482.000
26.28500 472.000
26.30000 486.000
26.31500 505.000
26.33000 512.000
26.34500 504.000
26.36000 483.000
26.37500 498.000
26.39000 540.000
26.40500 523.000
26.42000 529.000
26.43500 551.000
26.45000 539.000
26.46500 548.000
26.48000 545.000
26.49500 605.000
26.51000 614.000
26.52500 604.000
26.54000 609.000
26.55500 630.000
26.57000 632.000
26.58500 671.000
26.60000 660.000
26.61500 647.000
26.63000 653.000
26.64500 681.000
26.66000 655.000
26.67500 713.000
26.69000 662.000
26.70500 600.000
26.72000 627.000
26.73500 632.000
26.75000 627.000
26.76500 610.000
26.78000 588.000
26.79500 559.000
26.81000 577.000
26.82500 567.000
26.84000 585.000
26.85500 607.000
26.87000 594.000
26.88500 569.000
26.90000 558.000
26.91500 568.000
26.93000 624.000
26.94500 605.000
26.96000 628.000
26.97500 633.000
26.99000 641.000
27.00500 636.000
27.02000 658.000
27.03500 676.000
27.05000 695.000
27.06500 662.000
27.08000 703.000
27.09500 752.000
27.11000 740.000
27.12500 751.000
27.14000 766.000
27.15500 808.000
27.17000 818.000
27.18500 842.000
27.20000 903.000
27.21500 917.000
27.23000 936.000
27.24500 980.000
27.26000 946.000
27.27500 1005.000
27.29000 987.000
27.30500 1037.000
27.32000 1119.000
27.33500 1116.000
27.35000 1130.000
27.36500 1160.000
27.38000 1188.000
27.39500 1258.000
27.41000 1257.000
27.42500 1300.000
27.44000 1374.000
27.45500 1350.000
27.47000 1390.000
27.48500 1477.000
27.50000 1485.000
27.51500 1594.000
27.53000 1580.000
27.54500 1609.000
27.56000 1578.000
27.57500 1640.000
27.59000 1685.000
27.60500 1731.000
27.62000 1765.000
27.63500 1873.000
27.65000 1896.000
27.66500 1990.000
27.68000 1978.000
27.69500 2047.000
27.71000 2068.000
27.72500 2017.000
27.74000 2079.000
27.75500 2086.000
27.77000 2085.000
27.78500 2089.000
27.80000 2065.000
27.81500 2074.000
27.83000 2006.000
27.84500 2009.000
27.86000 2020.000
27.87500 1918.000
27.89000 1879.000
27.90500 1786.000
27.92000 1777.000
27.93500 1737.000
27.95000 1656.000
27.96500 1652.000
27.98000 1642.000
27.99500 1649.000
28.01000 1615.000
28.02500 1684.000
28.04000 1759.000
28.05500 1846.000
28.07000 1975.000
28.08500 2219.000
28.10000 2392.000
28.11500 2537.000
28.13000 2642.000
28.14500 2416.000
28.16000 2001.000
28.17500 1638.000
28.19000 1414.000
28.20500 1187.000
28.22000 1074.000
28.23500 943.000
28.25000 858.000
28.26500 800.000
28.28000 742.000
28.29500 715.000
28.31000 742.000
28.32500 726.000
28.34000 713.000
28.35500 715.000
28.37000 670.000
28.38500 659.000
28.40000 594.000
28.41500 550.000
28.43000 530.000
28.44500 514.000
28.46000 537.000
28.47500 567.000
28.49000 535.000
28.50500 527.000
28.52000 491.000
28.53500 484.000
28.55000 500.000
28.56500 459.000
28.58000 450.000
28.59500 471.000
28.61000 473.000
28.62500 475.000
28.64000 458.000
28.65500 451.000
28.67000 441.000
28.68500 427.000
28.70000 464.000
28.71500 451.000
28.73000 434.000
28.74500 475.000
28.76000 452.000
28.77500 448.000
28.79000 413.000
28.80500 432.000
28.82000 405.000
28.83500 445.000
28.85000 424.000
28.86500 418.000
28.88000 444.000
28.89500 389.000
28.91000 408.000
28.92500 386.000
28.94000 418.000
28.95500 421.000
28.97000 411.000
28.98500 423.000
29.00000 408.000
29.01500 442.000
29.03000 398.000
29.04500 432.000
29.06000 391.000
29.07500 348.000
29.09000 369.000
29.10500 424.000
29.12000 412.000
29.13500 391.000
29.15000 365.000
29.16500 383.000
29.18000 360.000
29.19500 355.000
29.21000 378.000
29.22500 397.000
29.24000 384.000
29.25500 368.000
29.27000 406.000
29.28500 384.000
29.30000 384.000
29.31500 384.000
29.33000 351.000
29.34500 364.000
29.36000 397.000
29.37500 396.000
29.39000 383.000
29.40500 381.000
29.42000 356.000
29.43500 370.000
29.45000 389.000
29.46500 349.000
29.48000 345.000
29.49500 383.000
29.51000 384.000
29.52500 370.000
29.54000 358.000
29.55500 379.000
29.57000 373.000
29.58500 370.000
29.60000 368.000
29.61500 368.000
29.63000 347.000
29.64500 322.000
29.66000 353.000
29.67500 361.000
29.69000 321.000
29.70500 350.000
29.72000 370.000
29.73500 349.000
29.75000 365.000
29.76500 344.000
29.78000 341.000
29.79500 360.000
29.81000 340.000
29.82500 339.000
29.84000 345.000
29.85500 349.000
29.87000 355.000
29.88500 367.000
29.90000 355.000
29.91500 353.000
29.93000 341.000
29.94500 340.000
29.96000 365.000
29.97500 341.000
29.99000 357.000
30.00500 373.000
30.02000 348.000
30.03500 349.000
30.05000 337.000
30.06500 361.000
30.08000 338.000
30.09500 360.000
30.11000 403.000
30.12500 381.000
30.14000 370.000
30.15500 355.000
30.17000 370.000
30.18500 383.000
30.20000 405.000
30.21500 399.000
30.23000 381.000
30.24500 364.000
30.26000 369.000
30.27500 349.000
30.29000 352.000
30.30500 369.000
30.32000 341.000
30.33500 357.000
30.35000 343.000
30.36500 346.000
30.38000 348.000
30.39500 331.000
30.41000 341.000
30.42500 329.000
30.44000 348.000
30.45500 322.000
30.47000 319.000
30.48500 349.000
30.50000 318.000
30.51500 312.000
30.53000 323.000
30.54500 331.000
30.56000 362.000
30.57500 329.000
30.59000 352.000
30.60500 333.000
30.62000 353.000
30.63500 341.000
30.65000 332.000
30.66500 321.000
30.68000 329.000
30.69500 355.000
30.71000 342.000
30.72500 331.000
30.74000 343.000
30.75500 339.000
30.77000 313.000
30.78500 304.000
30.80000 325.000
30.81500 307.000
30.83000 316.000
30.84500 332.000
30.86000 342.000
30.87500 351.000
30.89000 343.000
30.90500 347.000
30.92000 330.000
30.93500 358.000
30.95000 348.000
30.96500 354.000
30.98000 338.000
30.99500 363.000
31.01000 352.000
31.02500 389.000
31.04000 380.000
31.05500 372.000
31.07000 374.000
31.08500 405.000
31.10000 382.000
31.11500 364.000
31.13000 332.000
31.14500 340.000
31.16000 356.000
31.17500 350.000
31.19000 306.000
31.20500 331.000
31.22000 343.000
31.23500 336.000
31.25000 293.000
31.26500 319.000
31.28000 316.000
31.29500 287.000
31.31000 287.000
31.32500 291.000
31.34000 318.000
31.35500 295.000
31.37000 284.000
31.38500 289.000
31.40000 293.000
31.41500 293.000
31.43000 276.000
31.44500 277.000
31.46000 272.000
31.47500 285.000
31.49000 288.000
31.50500 271.000
31.52000 299.000
31.53500 294.000
31.55000 305.000
31.56500 287.000
31.58000 310.000
31.59500 302.000
31.61000 282.000
31.62500 299.000
31.64000 318.000
31.65500 275.000
31.67000 281.000
31.68500 287.000
31.70000 273.000
31.71500 300.000
31.73000 279.000
31.74500 278.000
31.76000 264.000
31.77500 281.000
31.79000 255.000
31.80500 258.000
31.82000 289.000
31.83500 277.000
31.85000 262.000
31.86500 275.000
31.88000 292.000
31.89500 299.000
31.91000 264.000
31.92500 284.000
31.94000 266.000
31.95500 256.000
31.97000 277.000
31.98500 276.000
32.00000 269.000
32.01500 275.000
32.03000 278.000
32.04500 288.000
32.06000 287.000
32.07500 279.000
32.09000 302.000
32.10500 289.000
32.12000 276.000
32.13500 270.000
32.15000 288.000
32.16500 277.000
32.18000 277.000
32.19500 255.000
32.21000 285.000
32.22500 308.000
32.24000 299.000
32.25500 272.000
32.27000 303.000
32.28500 281.000
32.30000 286.000
32.31500 279.000
32.33000 290.000
32.34500 299.000
32.36000 287.000
32.37500 266.000
32.39000 286.000
32.40500 284.000
32.42000 275.000
32.43500 279.000
32.45000 264.000
32.46500 253.000
32.48000 266.000
32.49500 283.000
32.51000 277.000
32.52500 257.000
32.54000 270.000
32.55500 275.000
32.57000 260.000
32.58500 242.000
32.60000 273.000
32.61500 291.000
32.63000 262.000
32.64500 248.000
32.66000 236.000
32.67500 248.000
32.69000 265.000
32.70500 246.000
32.72000 244.000
32.73500 241.000
32.75000 256.000
32.76500 274.000
32.78000 246.000
32.79500 243.000
32.81000 236.000
32.82500 241.000
32.84000 246.000
32.85500 235.000
32.87000 269.000
32.88500 263.000
32.90000 268.000
32.91500 257.000
32.93000 271.000
32.94500 276.000
32.96000 282.000
32.97500 248.000
32.99000 256.000
33.00500 251.000
33.02000 237.000
33.03500 260.000
33.05000 253.000
33.06500 256.000
33.08000 252.000
33.09500 258.000
33.11000 253.000
33.12500 242.000
33.14000 240.000
33.15500 233.000
33.17000 256.000
33.18500 271.000
33.20000 259.000
33.21500 248.000
33.23000 255.000
33.24500 262.000
33.26000 244.000
33.27500 244.000
33.29000 250.000
33.30500 248.000
33.32000 234.000
33.33500 261.000
33.35000 256.000
33.36500 251.000
33.38000 257.000
33.39500 256.000
33.41000 279.000
33.42500 287.000
33.44000 299.000
33.45500 300.000
33.47000 299.000
33.48500 304.000
33.50000 309.000
33.51500 284.000
33.53000 269.000
33.54500 262.000
33.56000 253.000
33.57500 256.000
33.59000 266.000
33.60500 280.000
33.62000 240.000
33.63500 242.000
33.65000 297.000
33.66500 281.000
33.68000 276.000
33.69500 287.000
33.71000 259.000
33.72500 269.000
33.74000 268.000
33.75500 279.000
33.77000 274.000
33.78500 256.000
33.80000 258.000
33.81500 283.000
33.83000 263.000
33.84500 244.000
33.86000 256.000
33.87500 260.000
33.89000 257.000
33.90500 259.000
33.92000 250.000
33.93500 251.000
33.95000 241.000
33.96500 267.000
33.98000 253.000
33.99500 261.000
34.01000 276.000
34.02500 273.000
34.04000 249.000
34.05500 266.000
34.07000 273.000
34.08500 275.000
34.10000 291.000
34.11500 287.000
34.13000 261.000
34.14500 258.000
34.16000 283.000
34.17500 253.000
34.19000 244.000
34.20500 247.000
34.22000 251.000
34.23500 264.000
34.25000 244.000
34.26500 267.000
34.28000 268.000
34.29500 277.000
34.31000 251.000
34.32500 259.000
34.34000 281.000
34.35500 267.000
34.37000 270.000
34.38500 264.000
34.40000 260.000
34.41500 280.000
34.43000 280.000
34.44500 252.000
34.46000 253.000
34.47500 249.000
34.49000 265.000
34.50500 249.000
34.52000 244.000
34.53500 253.000
34.55000 240.000
34.56500 247.000
34.58000 233.000
34.59500 236.000
34.61000 240.000
34.62500 216.000
34.64000 245.000
34.65500 236.000
34.67000 218.000
34.68500 228.000
34.70000 232.000
34.71500 234.000
34.73000 256.000
34.74500 226.000
34.76000 237.000
34.77500 244.000
34.79000 229.000
34.80500 210.000
34.82000 219.000
34.83500 198.000
34.85000 221.000
34.86500 233.000
34.88000 233.000
34.89500 235.000
34.91000 224.000
34.92500 221.000
34.94000 244.000
34.95500 233.000
34.97000 232.000
34.98500 217.000
35.00000 205.000
35.01500 199.000
35.03000 210.000
35.04500 233.000
35.06000 242.000
35.07500 238.000
35.09000 211.000
35.10500 234.000
35.12000 220.000
35.13500 211.000
35.15000 217.000
35.16500 237.000
35.18000 221.000
35.19500 210.000
35.21000 204.000
35.22500 202.000
35.24000 222.000
35.25500 225.000
35.27000 239.000
35.28500 224.000
35.30000 183.000
35.31500 198.000
35.33000 202.000
35.34500 239.000
35.36000 251.000
35.37500 240.000
35.39000 221.000
35.40500 212.000
35.42000 209.000
35.43500 211.000
35.45000 226.000
35.46500 215.000
35.48000 222.000
35.49500 211.000
35.51000 191.000
35.52500 200.000
35.54000 228.000
35.55500 224.000
35.57000 196.000
35.58500 217.000
35.60000 226.000
35.61500 206.000
35.63000 204.000
35.64500 218.000
35.66000 207.000
35.67500 223.000
35.69000 195.000
35.70500 220.000
35.72000 235.000
35.73500 209.000
35.75000 214.000
35.76500 207.000
35.78000 218.000
35.79500 214.000
35.81000 199.000
35.82500 216.000
35.84000 207.000
35.85500 208.000
35.87000 236.000
35.88500 205.000
35.90000 205.000
35.91500 202.000
35.93000 201.000
35.94500 221.000
35.96000 212.000
35.97500 200.000
35.99000 216.000
36.00500 213.000
36.02000 198.000
36.03500 200.000
36.05000 184.000
36.06500 187.000
36.08000 193.000
36.09500 192.000
36.11000 196.000
36.12500 180.000
36.14000 189.000
36.15500 212.000
36.17000 202.000
36.18500 213.000
36.20000 203.000
36.21500 204.000
36.23000 207.000
36.24500 214.000
36.26000 177.000
36.27500 191.000
36.29000 194.000
36.30500 190.000
36.32000 204.000
36.33500 197.000
36.35000 205.000
36.36500 190.000
36.38000 199.000
36.39500 194.000
36.41000 215.000
36.42500 207.000
36.44000 190.000
36.45500 181.000
36.47000 213.000
36.48500 218.000
36.50000 208.000
36.51500 212.000
36.53000 221.000
36.54500 226.000
36.56000 220.000
36.57500 210.000
36.59000 212.000
36.60500 197.000
36.62000 202.000
36.63500 206.000
36.65000 189.000
36.66500 197.000
36.68000 204.000
36.69500 191.000
36.71000 193.000
36.72500 184.000
36.74000 189.000
36.75500 189.000
36.77000 194.000
36.78500 186.000
36.80000 184.000
36.81500 199.000
36.83000 188.000
36.84500 181.000
36.86000 174.000
36.87500 196.000
36.89000 209.000
36.90500 208.000
36.92000 202.000
36.93500 210.000
36.95000 198.000
36.96500 199.000
36.98000 206.000
36.99500 198.000
37.01000 190.000
37.02500 203.000
37.04000 183.000
37.05500 192.000
37.07000 214.000
37.08500 199.000
37.10000 185.000
37.11500 196.000
37.13000 178.000
37.14500 204.000
37.16000 198.000
37.17500 183.000
37.19000 209.000
37.20500 187.000
37.22000 161.000
37.23500 203.000
37.25000 209.000
37.26500 190.000
37.28000 203.000
37.29500 199.000
37.31000 193.000
37.32500 192.000
37.34000 184.000
37.35500 194.000
37.37000 184.000
37.38500 194.000
37.40000 192.000
37.41500 212.000
37.43000 223.000
37.44500 213.000
37.46000 202.000
37.47500 228.000
37.49000 214.000
37.50500 202.000
37.52000 202.000
37.53500 206.000
37.55000 192.000
37.56500 202.000
37.58000 184.000
37.59500 179.000
37.61000 199.000
37.62500 211.000
37.64000 197.000
37.65500 180.000
37.67000 188.000
37.68500 183.000
37.70000 168.000
37.71500 210.000
37.73000 202.000
37.74500 177.000
37.76000 165.000
37.77500 187.000
37.79000 181.000
37.80500 165.000
37.82000 185.000
37.83500 208.000
37.85000 198.000
37.86500 179.000
37.88000 186.000
37.89500 185.000
37.91000 166.000
37.92500 166.000
37.94000 175.000
37.95500 182.000
37.97000 176.000
37.98500 181.000
38.00000 190.000
38.01500 199.000
38.03000 173.000
38.04500 157.000
38.06000 175.000
38.07500 178.000
38.09000 191.000
38.10500 174.000
38.12000 173.000
38.13500 174.000
38.15000 158.000
38.16500 186.000
38.18000 175.000
38.19500 175.000
38.21000 174.000
38.22500 188.000
38.24000 171.000
38.25500 172.000
38.27000 189.000
38.28500 199.000
38.30000 167.000
38.31500 182.000
38.33000 190.000
38.34500 185.000
38.36000 185.000
38.37500 191.000
38.39000 171.000
38.40500 185.000
38.42000 171.000
38.43500 187.000
38.45000 183.000
38.46500 190.000
38.48000 179.000
38.49500 192.000
38.51000 191.000
38.52500 205.000
38.54000 172.000
38.55500 205.000
38.57000 185.000
38.58500 187.000
38.60000 200.000
38.61500 188.000
38.63000 190.000
38.64500 207.000
38.66000 184.000
38.67500 184.000
38.69000 187.000
38.70500 160.000
38.72000 167.000
38.73500 182.000
38.75000 191.000
38.76500 192.000
38.78000 202.000
38.79500 184.000
38.81000 177.000
38.82500 198.000
38.84000 215.000
38.85500 197.000
38.87000 186.000
38.88500 197.000
38.90000 202.000
38.91500 205.000
38.93000 201.000
38.94500 202.000
38.96000 185.000
38.97500 187.000
38.99000 177.000
39.00500 199.000
39.02000 193.000
39.03500 213.000
39.05000 199.000
39.06500 184.000
39.08000 188.000
39.09500 187.000
39.11000 199.000
39.12500 205.000
39.14000 189.000
39.15500 166.000
39.17000 176.000
39.18500 185.000
39.20000 186.000
39.21500 176.000
39.23000 198.000
39.24500 181.000
39.26000 193.000
39.27500 211.000
39.29000 231.000
39.30500 196.000
39.32000 217.000
39.33500 208.000
39.35000 188.000
39.36500 217.000
39.38000 225.000
39.39500 204.000
39.41000 235.000
39.42500 264.000
39.44000 284.000
39.45500 287.000
39.47000 258.000
39.48500 237.000
39.50000 257.000
39.51500 235.000
39.53000 206.000
39.54500 243.000
39.56000 227.000
39.57500 207.000
39.59000 205.000
39.60500 209.000
39.62000 211.000
39.63500 193.000
39.65000 188.000
39.66500 182.000
39.68000 193.000
39.69500 201.000
39.71000 190.000
39.72500 206.000
39.74000 185.000
39.75500 163.000
39.77000 178.000
39.78500 183.000
39.80000 182.000
39.81500 197.000
39.83000 192.000
39.84500 181.000
39.86000 170.000
39.87500 169.000
39.89000 181.000
39.90500 171.000
39.92000 181.000
39.93500 184.000
39.95000 172.000
39.96500 184.000
39.98000 174.000
39.99500 190.000
40.01000 191.000
40.02500 177.000
40.04000 197.000
40.05500 156.000
40.07000 175.000
40.08500 188.000
40.10000 191.000
40.11500 190.000
40.13000 200.000
40.14500 196.000
40.16000 210.000
40.17500 198.000
40.19000 179.000
40.20500 171.000
40.22000 169.000
40.23500 188.000
40.25000 182.000
40.26500 163.000
40.28000 182.000
40.29500 182.000
40.31000 167.000
40.32500 189.000
40.34000 170.000
40.35500 189.000
40.37000 174.000
40.38500 202.000
40.40000 191.000
40.41500 193.000
40.43000 195.000
40.44500 189.000
40.46000 229.000
40.47500 240.000
40.49000 234.000
40.50500 263.000
40.52000 249.000
40.53500 240.000
40.55000 228.000
40.56500 243.000
40.58000 211.000
40.59500 194.000
40.61000 181.000
40.62500 187.000
40.64000 200.000
40.65500 180.000
40.67000 180.000
40.68500 177.000
40.70000 199.000
40.71500 188.000
40.73000 194.000
40.74500 192.000
40.76000 197.000
40.77500 202.000
40.79000 192.000
40.80500 184.000
40.82000 186.000
40.83500 182.000
40.85000 174.000
40.86500 167.000
40.88000 172.000
40.89500 193.000
40.91000 195.000
40.92500 192.000
40.94000 200.000
40.95500 199.000
40.97000 184.000
40.98500 201.000
41.00000 202.000
41.01500 196.000
41.03000 194.000
41.04500 199.000
41.06000 206.000
41.07500 178.000
41.09000 188.000
41.10500 199.000
41.12000 183.000
41.13500 174.000
41.15000 186.000
41.16500 210.000
41.18000 187.000
41.19500 191.000
41.21000 194.000
41.22500 189.000
41.24000 200.000
41.25500 175.000
41.27000 185.000
41.28500 191.000
41.30000 200.000
41.31500 193.000
41.33000 171.000
41.34500 160.000
41.36000 177.000
41.37500 203.000
41.39000 201.000
41.40500 183.000
41.42000 190.000
41.43500 190.000
41.45000 172.000
41.46500 187.000
41.48000 181.000
41.49500 190.000
41.51000 206.000
41.52500 204.000
41.54000 205.000
41.55500 189.000
41.57000 188.000
41.58500 195.000
41.60000 180.000
41.61500 186.000
41.63000 186.000
41.64500 191.000
41.66000 191.000
41.67500 182.000
41.69000 179.000
41.70500 179.000
41.72000 178.000
41.73500 178.000
41.75000 178.000
41.76500 182.000
41.78000 181.000
41.79500 186.000
41.81000 182.000
41.82500 188.000
41.84000 183.000
41.85500 192.000
41.87000 167.000
41.88500 175.000
41.90000 199.000
41.91500 168.000
41.93000 185.000
41.94500 174.000
41.96000 177.000
41.97500 190.000
41.99000 190.000
42.00500 191.000
42.02000 184.000
42.03500 175.000
42.05000 180.000
42.06500 179.000
42.08000 177.000
42.09500 187.000
42.11000 176.000
42.12500 184.000
42.14000 184.000
42.15500 190.000
42.17000 201.000
42.18500 196.000
42.20000 181.000
42.21500 185.000
42.23000 179.000
42.24500 184.000
42.26000 205.000
42.27500 200.000
42.29000 165.000
42.30500 193.000
42.32000 210.000
42.33500 207.000
42.35000 185.000
42.36500 185.000
42.38000 187.000
42.39500 185.000
42.41000 189.000
42.42500 186.000
42.44000 205.000
42.45500 184.000
42.47000 195.000
42.48500 211.000
42.50000 197.000
42.51500 199.000
42.53000 199.000
42.54500 206.000
42.56000 193.000
42.57500 224.000
42.59000 192.000
42.60500 191.000
42.62000 191.000
42.63500 224.000
42.65000 197.000
42.66500 201.000
42.68000 203.000
42.69500 207.000
42.71000 169.000
42.72500 184.000
42.74000 202.000
42.75500 198.000
42.77000 209.000
42.78500 195.000
42.80000 206.000
42.81500 200.000
42.83000 200.000
42.84500 206.000
42.86000 200.000
42.87500 183.000
42.89000 183.000
42.90500 204.000
42.92000 207.000
42.93500 221.000
42.95000 198.000
42.96500 227.000
42.98000 205.000
42.99500 214.000
43.01000 217.000
43.02500 212.000
43.04000 212.000
43.05500 197.000
43.07000 213.000
43.08500 209.000
43.10000 209.000
43.11500 204.000
43.13000 199.000
43.14500 213.000
43.16000 207.000
43.17500 221.000
43.19000 202.000
43.20500 183.000
43.22000 187.000
43.23500 191.000
43.25000 189.000
43.26500 192.000
43.28000 198.000
43.29500 195.000
43.31000 207.000
43.32500 204.000
43.34000 197.000
43.35500 185.000
43.37000 198.000
43.38500 180.000
43.40000 194.000
43.41500 199.000
43.43000 201.000
43.44500 180.000
43.46000 193.000
43.47500 187.000
43.49000 193.000
43.50500 201.000
43.52000 206.000
43.53500 199.000
43.55000 183.000
43.56500 174.000
43.58000 182.000
43.59500 187.000
43.61000 196.000
43.62500 205.000
43.64000 191.000
43.65500 190.000
43.67000 187.000
43.68500 187.000
43.70000 188.000
43.71500 177.000
43.73000 183.000
43.74500 180.000
43.76000 180.000
43.77500 195.000
43.79000 185.000
43.80500 171.000
43.82000 183.000
43.83500 197.000
43.85000 183.000
43.86500 165.000
43.88000 184.000
43.89500 182.000
43.91000 177.000
43.92500 188.000
43.94000 199.000
43.95500 188.000
43.97000 186.000
43.98500 197.000
44.00000 213.000
44.01500 183.000
44.03000 187.000
44.04500 191.000
44.06000 179.000
44.07500 204.000
44.09000 205.000
44.10500 201.000
44.12000 198.000
44.13500 190.000
44.15000 189.000
44.16500 186.000
44.18000 180.000
44.19500 206.000
44.21000 193.000
44.22500 199.000
44.24000 204.000
44.25500 209.000
44.27000 197.000
44.28500 203.000
44.30000 186.000
44.31500 194.000
44.33000 198.000
44.34500 188.000
44.36000 175.000
44.37500 189.000
44.39000 188.000
44.40500 198.000
44.42000 203.000
44.43500 202.000
44.45000 187.000
44.46500 189.000
44.48000 204.000
44.49500 199.000
44.51000 179.000
44.52500 180.000
44.54000 177.000
44.55500 172.000
44.57000 190.000
44.58500 188.000
44.60000 204.000
44.61500 184.000
44.63000 188.000
44.64500 167.000
44.66000 188.000
44.67500 190.000
44.69000 190.000
44.70500 195.000
44.72000 201.000
44.73500 167.000
44.75000 178.000
44.76500 175.000
44.78000 181.000
44.79500 191.000
44.81000 186.000
44.82500 180.000
44.84000 183.000
44.85500 187.000
44.87000 189.000
44.88500 191.000
44.90000 196.000
44.91500 174.000
44.93000 173.000
44.94500 171.000
44.96000 180.000
44.97500 189.000
44.99000 203.000
45.00500 183.000
45.02000 180.000
45.03500 185.000
45.05000 180.000
45.06500 205.000
45.08000 195.000
45.09500 184.000
45.11000 185.000
45.12500 217.000
45.14000 198.000
45.15500 192.000
45.17000 196.000
45.18500 192.000
45.20000 191.000
45.21500 206.000
45.23000 203.000
45.24500 209.000
45.26000 202.000
45.27500 195.000
45.29000 199.000
45.30500 193.000
45.32000 193.000
45.33500 198.000
45.35000 201.000
45.36500 182.000
45.38000 181.000
45.39500 183.000
45.41000 185.000
45.42500 198.000
45.44000 200.000
45.45500 193.000
45.47000 193.000
45.48500 193.000
45.50000 205.000
45.51500 209.000
45.53000 220.000
45.54500 188.000
45.56000 193.000
45.57500 204.000
45.59000 192.000
45.60500 205.000
45.62000 198.000
45.63500 184.000
45.65000 196.000
45.66500 187.000
45.68000 177.000
45.69500 171.000
45.71000 171.000
45.72500 195.000
45.74000 179.000
45.75500 171.000
45.77000 188.000
45.78500 181.000
45.80000 180.000
45.81500 177.000
45.83000 181.000
45.84500 199.000
45.86000 199.000
45.87500 185.000
45.89000 172.000
45.90500 201.000
45.92000 176.000
45.93500 182.000
45.95000 181.000
45.96500 200.000
45.98000 193.000
45.99500 189.000
46.01000 187.000
46.02500 197.000
46.04000 193.000
46.05500 186.000
46.07000 172.000
46.08500 177.000
46.10000 202.000
46.11500 189.000
46.13000 159.000
46.14500 180.000
46.16000 172.000
46.17500 192.000
46.19000 174.000
46.20500 186.000
46.22000 189.000
46.23500 171.000
46.25000 175.000
46.26500 179.000
46.28000 183.000
46.29500 183.000
46.31000 170.000
46.32500 163.000
46.34000 189.000
46.35500 194.000
46.37000 185.000
46.38500 170.000
46.40000 167.000
46.41500 182.000
46.43000 170.000
46.44500 172.000
46.46000 187.000
46.47500 165.000
46.49000 179.000
46.50500 186.000
46.52000 169.000
46.53500 170.000
46.55000 173.000
46.56500 179.000
46.58000 177.000
46.59500 168.000
46.61000 176.000
46.62500 179.000
46.64000 176.000
46.65500 180.000
46.67000 167.000
46.68500 186.000
46.70000 193.000
46.71500 172.000
46.73000 172.000
46.74500 201.000
46.76000 201.000
46.77500 185.000
46.79000 176.000
46.80500 177.000
46.82000 175.000
46.83500 186.000
46.85000 195.000
46.86500 173.000
46.88000 166.000
46.89500 180.000
46.91000 182.000
46.92500 176.000
46.94000 161.000
46.95500 180.000
46.97000 173.000
46.98500 157.000
47.00000 164.000
47.01500 160.000
47.03000 163.000
47.04500 168.000
47.06000 185.000
47.07500 146.000
47.09000 167.000
47.10500 194.000
47.12000 185.000
47.13500 163.000
47.15000 163.000
47.16500 183.000
47.18000 159.000
47.19500 182.000
47.21000 150.000
47.22500 179.000
47.24000 183.000
47.25500 176.000
47.27000 160.000
47.28500 147.000
47.30000 177.000
47.31500 171.000
47.33000 175.000
47.34500 192.000
47.36000 171.000
47.37500 184.000
47.39000 170.000
47.40500 159.000
47.42000 150.000
47.43500 149.000
47.45000 151.000
47.46500 154.000
47.48000 145.000
47.49500 167.000
47.51000 168.000
47.52500 161.000
47.54000 161.000
47.55500 165.000
47.57000 170.000
47.58500 170.000
47.60000 168.000
47.61500 163.000
47.63000 157.000
47.64500 156.000
47.66000 187.000
47.67500 159.000
47.69000 155.000
47.70500 157.000
47.72000 152.000
47.73500 146.000
47.75000 145.000
47.76500 158.000
47.78000 144.000
47.79500 155.000
47.81000 156.000
47.82500 161.000
47.84000 171.000
47.85500 173.000
47.87000 156.000
47.88500 174.000
47.90000 148.000
47.91500 162.000
47.93000 165.000
47.94500 152.000
47.96000 154.000
47.97500 158.000
47.99000 165.000
48.00500 170.000
48.02000 183.000
48.03500 168.000
48.05000 167.000
48.06500 155.000
48.08000 160.000
48.09500 151.000
48.11000 164.000
48.12500 164.000
48.14000 160.000
48.15500 148.000
48.17000 156.000
48.18500 181.000
48.20000 151.000
48.21500 157.000
48.23000 170.000
48.24500 157.000
48.26000 157.000
48.27500 154.000
48.29000 161.000
48.30500 163.000
48.32000 153.000
48.33500 144.000
48.35000 152.000
48.36500 141.000
48.38000 144.000
48.39500 153.000
48.41000 184.000
48.42500 154.000
48.44000 164.000
48.45500 164.000
48.47000 163.000
48.48500 174.000
48.50000 152.000
48.51500 155.000
48.53000 162.000
48.54500 171.000
48.56000 154.000
48.57500 148.000
48.59000 166.000
48.60500 166.000
48.62000 161.000
48.63500 158.000
48.65000 159.000
48.66500 146.000
48.68000 143.000
48.69500 179.000
48.71000 161.000
48.72500 170.000
48.74000 146.000
48.75500 165.000
48.77000 184.000
48.78500 165.000
48.80000 160.000
48.81500 148.000
48.83000 149.000
48.84500 157.000
48.86000 170.000
48.87500 154.000
48.89000 170.000
48.90500 164.000
48.92000 155.000
48.93500 164.000
48.95000 168.000
48.96500 152.000
48.98000 171.000
48.99500 170.000
49.01000 165.000
49.02500 157.000
49.04000 162.000
49.05500 158.000
49.07000 174.000
49.08500 170.000
49.10000 159.000
49.11500 158.000
49.13000 166.000
49.14500 176.000
49.16000 157.000
49.17500 153.000
49.19000 178.000
49.20500 159.000
49.22000 181.000
49.23500 167.000
49.25000 178.000
49.26500 170.000
49.28000 168.000
49.29500 160.000
49.31000 167.000
49.32500 170.000
49.34000 178.000
49.35500 158.000
49.37000 164.000
49.38500 170.000
49.40000 155.000
49.41500 147.000
49.43000 175.000
49.44500 182.000
49.46000 151.000
49.47500 146.000
49.49000 167.000
49.50500 146.000
49.52000 172.000
49.53500 169.000
49.55000 144.000
49.56500 157.000
49.58000 163.000
49.59500 151.000
49.61000 146.000
49.62500 138.000
49.64000 139.000
49.65500 156.000
49.67000 135.000
49.68500 147.000
49.70000 148.000
49.71500 161.000
49.73000 141.000
49.74500 161.000
49.76000 155.000
49.77500 146.000
49.79000 136.000
49.80500 150.000
49.82000 153.000
49.83500 147.000
49.85000 150.000
49.86500 138.000
49.88000 139.000
49.89500 126.000
49.91000 136.000
49.92500 155.000
49.94000 143.000
49.95500 151.000
49.97000 132.000
49.98500 136.000
50.00000 125.000
50.01500 140.000
50.03000 140.000
50.04500 160.000
50.06000 170.000
50.07500 154.000
50.09000 162.000
50.10500 157.000
50.12000 171.000
50.13500 154.000
50.15000 157.000
50.16500 155.000
50.18000 148.000
50.19500 165.000
50.21000 165.000
50.22500 175.000
50.24000 152.000
50.25500 139.000
50.27000 139.000
50.28500 133.000
50.30000 155.000
50.31500 146.000
50.33000 151.000
50.34500 162.000
50.36000 146.000
50.37500 133.000
50.39000 135.000
50.40500 158.000
50.42000 163.000
50.43500 140.000
50.45000 154.000
50.46500 139.000
50.48000 147.000
50.49500 159.000
50.51000 146.000
50.52500 168.000
50.54000 161.000
50.55500 163.000
50.57000 156.000
50.58500 164.000
50.60000 161.000
50.61500 147.000
50.63000 149.000
50.64500 182.000
50.66000 160.000
50.67500 150.000
50.69000 154.000
50.70500 174.000
50.72000 160.000
50.73500 167.000
50.75000 152.000
50.76500 158.000
50.78000 143.000
50.79500 145.000
50.81000 139.000
50.82500 162.000
50.84000 149.000
50.85500 157.000
50.87000 152.000
50.88500 150.000
50.90000 144.000
50.91500 152.000
50.93000 154.000
50.94500 150.000
50.96000 160.000
50.97500 152.000
50.99000 144.000
51.00500 154.000
51.02000 145.000
51.03500 156.000
51.05000 154.000
51.06500 128.000
51.08000 131.000
51.09500 158.000
51.11000 149.000
51.12500 147.000
51.14000 156.000
51.15500 144.000
51.17000 140.000
51.18500 160.000
51.20000 144.000
51.21500 141.000
51.23000 154.000
51.24500 159.000
51.26000 152.000
51.27500 165.000
51.29000 172.000
51.30500 159.000
51.32000 164.000
51.33500 161.000
51.35000 158.000
51.36500 173.000
51.38000 157.000
51.39500 125.000
51.41000 147.000
51.42500 147.000
51.44000 154.000
51.45500 159.000
51.47000 159.000
51.48500 140.000
51.50000 149.000
51.51500 149.000
51.53000 143.000
51.54500 146.000
51.56000 168.000
51.57500 156.000
51.59000 154.000
51.60500 149.000
51.62000 163.000
51.63500 133.000
51.65000 147.000
51.66500 150.000
51.68000 145.000
51.69500 149.000
51.71000 154.000
51.72500 163.000
51.74000 158.000
51.75500 172.000
51.77000 159.000
51.78500 152.000
51.80000 146.000
51.81500 167.000
51.83000 143.000
51.84500 140.000
51.86000 157.000
51.87500 136.000
51.89000 144.000
51.90500 132.000
51.92000 135.000
51.93500 136.000
51.95000 150.000
51.96500 144.000
51.98000 161.000
51.99500 178.000
52.01000 154.000
52.02500 182.000
52.04000 170.000
52.05500 156.000
52.07000 156.000
52.08500 162.000
52.10000 161.000
52.11500 139.000
52.13000 142.000
52.14500 147.000
52.16000 163.000
52.17500 150.000
52.19000 147.000
52.20500 146.000
52.22000 164.000
52.23500 163.000
52.25000 150.000
52.26500 155.000
52.28000 170.000
52.29500 178.000
52.31000 143.000
52.32500 159.000
52.34000 159.000
52.35500 157.000
52.37000 169.000
52.38500 164.000
52.40000 179.000
52.41500 161.000
52.43000 155.000
52.44500 149.000
52.46000 174.000
52.47500 190.000
52.49000 184.000
52.50500 172.000
52.52000 154.000
52.53500 167.000
52.55000 168.000
52.56500 152.000
52.58000 168.000
52.59500 153.000
52.61000 152.000
52.62500 150.000
52.64000 155.000
52.65500 154.000
52.67000 160.000
52.68500 166.000
52.70000 145.000
52.71500 133.000
52.73000 153.000
52.74500 156.000
52.76000 138.000
52.77500 164.000
52.79000 171.000
52.80500 156.000
52.82000 152.000
52.83500 151.000
52.85000 145.000
52.86500 137.000
52.88000 153.000
52.89500 138.000
52.91000 146.000
52.92500 145.000
52.94000 152.000
52.95500 156.000
52.97000 159.000
52.98500 139.000
53.00000 146.000
53.01500 128.000
53.03000 128.000
53.04500 159.000
53.06000 145.000
53.07500 150.000
53.09000 155.000
53.10500 148.000
53.12000 150.000
53.13500 141.000
53.15000 160.000
53.16500 154.000
53.18000 161.000
53.19500 151.000
53.21000 156.000
53.22500 165.000
53.24000 163.000
53.25500 138.000
53.27000 146.000
53.28500 144.000
53.30000 158.000
53.31500 145.000
53.33000 159.000
53.34500 142.000
53.36000 157.000
53.37500 146.000
53.39000 153.000
53.40500 149.000
53.42000 147.000
53.43500 146.000
53.45000 136.000
53.46500 150.000
53.48000 156.000
53.49500 141.000
53.51000 159.000
53.52500 163.000
53.54000 130.000
53.55500 149.000
53.57000 146.000
53.58500 150.000
53.60000 128.000
53.61500 131.000
53.63000 166.000
53.64500 149.000
53.66000 150.000
53.67500 139.000
53.69000 155.000
53.70500 149.000
53.72000 138.000
53.73500 148.000
53.75000 155.000
53.76500 154.000
53.78000 145.000
53.79500 156.000
53.81000 155.000
53.82500 153.000
53.84000 139.000
53.85500 150.000
53.87000 150.000
53.88500 145.000
53.90000 142.000
53.91500 149.000
53.93000 147.000
53.94500 168.000
53.96000 188.000
53.97500 173.000
53.99000 160.000
54.00500 158.000
54.02000 156.000
54.03500 153.000
54.05000 164.000
54.06500 156.000
54.08000 174.000
54.09500 165.000
54.11000 165.000
54.12500 166.000
54.14000 155.000
54.15500 161.000
54.17000 159.000
54.18500 158.000
54.20000 151.000
54.21500 147.000
54.23000 148.000
54.24500 147.000
54.26000 163.000
54.27500 155.000
54.29000 156.000
54.30500 158.000
54.32000 133.000
54.33500 144.000
54.35000 154.000
54.36500 144.000
54.38000 137.000
54.39500 153.000
54.41000 147.000
54.42500 158.000
54.44000 144.000
54.45500 141.000
54.47000 153.000
54.48500 152.000
54.50000 150.000
54.51500 161.000
54.53000 160.000
54.54500 167.000
54.56000 143.000
54.57500 166.000
54.59000 154.000
54.60500 154.000
54.62000 150.000
54.63500 145.000
54.65000 138.000
54.66500 157.000
54.68000 160.000
54.69500 165.000
54.71000 145.000
54.72500 133.000
54.74000 142.000
54.75500 162.000
54.77000 160.000
54.78500 144.000
54.80000 146.000
54.81500 144.000
54.83000 134.000
54.84500 141.000
54.86000 147.000
54.87500 142.000
54.89000 159.000
54.90500 154.000
54.92000 161.000
54.93500 145.000
54.95000 138.000
54.96500 124.000
54.98000 158.000
54.99500 161.000
55.01000 136.000
55.02500 150.000
55.04000 144.000
55.05500 141.000
55.07000 156.000
55.08500 151.000
55.10000 164.000
55.11500 164.000
55.13000 161.000
55.14500 150.000
55.16000 163.000
55.17500 159.000
55.19000 139.000
55.20500 136.000
55.22000 150.000
55.23500 124.000
55.25000 122.000
55.26500 136.000
55.28000 138.000
55.29500 143.000
55.31000 145.000
55.32500 159.000
55.34000 145.000
55.35500 149.000
55.37000 142.000
55.38500 140.000
55.40000 150.000
55.41500 128.000
55.43000 136.000
55.44500 134.000
55.46000 130.000
55.47500 158.000
55.49000 139.000
55.50500 154.000
55.52000 156.000
55.53500 153.000
55.55000 129.000
55.56500 133.000
55.58000 131.000
55.59500 138.000
55.61000 149.000
55.62500 142.000
55.64000 148.000
55.65500 150.000
55.67000 148.000
55.68500 152.000
55.70000 142.000
55.71500 142.000
55.73000 142.000
55.74500 144.000
55.76000 135.000
55.77500 142.000
55.79000 143.000
55.80500 154.000
55.82000 143.000
55.83500 133.000
55.85000 131.000
55.86500 147.000
55.88000 132.000
55.89500 147.000
55.91000 153.000
55.92500 138.000
55.94000 130.000
55.95500 143.000
55.97000 151.000
55.98500 134.000
56.00000 154.000
56.01500 151.000
56.03000 163.000
56.04500 169.000
56.06000 146.000
56.07500 158.000
56.09000 172.000
56.10500 145.000
56.12000 152.000
56.13500 138.000
56.15000 154.000
56.16500 160.000
56.18000 161.000
56.19500 149.000
56.21000 156.000
56.22500 141.000
56.24000 155.000
56.25500 158.000
56.27000 143.000
56.28500 138.000
56.30000 136.000
56.31500 129.000
56.33000 154.000
56.34500 153.000
56.36000 149.000
56.37500 154.000
56.39000 156.000
56.40500 146.000
56.42000 135.000
56.43500 141.000
56.45000 136.000
56.46500 161.000
56.48000 163.000
56.49500 147.000
56.51000 142.000
56.52500 143.000
56.54000 138.000
56.55500 165.000
56.57000 155.000
56.58500 146.000
56.60000 148.000
56.61500 157.000
56.63000 143.000
56.64500 146.000
56.66000 148.000
56.67500 141.000
56.69000 155.000
56.70500 154.000
56.72000 141.000
56.73500 160.000
56.75000 167.000
56.76500 154.000
56.78000 155.000
56.79500 160.000
56.81000 143.000
56.82500 145.000
56.84000 169.000
56.85500 152.000
56.87000 144.000
56.88500 140.000
56.90000 169.000
56.91500 178.000
56.93000 151.000
56.94500 142.000
56.96000 171.000
56.97500 178.000
56.99000 181.000
57.00500 176.000
57.02000 174.000
57.03500 175.000
57.05000 179.000
57.06500 196.000
57.08000 169.000
57.09500 170.000
57.11000 174.000
57.12500 163.000
57.14000 158.000
57.15500 155.000
57.17000 169.000
57.18500 168.000
57.20000 175.000
57.21500 159.000
57.23000 159.000
57.24500 147.000
57.26000 157.000
57.27500 162.000
57.29000 176.000
57.30500 165.000
57.32000 171.000
57.33500 172.000
57.35000 171.000
57.36500 176.000
57.38000 174.000
57.39500 185.000
57.41000 157.000
57.42500 157.000
57.44000 180.000
57.45500 199.000
57.47000 168.000
57.48500 164.000
57.50000 147.000
57.51500 168.000
57.53000 153.000
57.54500 171.000
57.56000 178.000
57.57500 166.000
57.59000 176.000
57.60500 173.000
57.62000 186.000
57.63500 175.000
57.65000 168.000
57.66500 140.000
57.68000 164.000
57.69500 164.000
57.71000 163.000
57.72500 172.000
57.74000 186.000
57.75500 162.000
57.77000 160.000
57.78500 157.000
57.80000 154.000
57.81500 167.000
57.83000 174.000
57.84500 173.000
57.86000 164.000
57.87500 141.000
57.89000 159.000
57.90500 167.000
57.92000 176.000
57.93500 174.000
57.95000 169.000
57.96500 145.000
57.98000 151.000
57.99500 156.000
58.01000 150.000
58.02500 149.000
58.04000 160.000
58.05500 173.000
58.07000 150.000
58.08500 174.000
58.10000 166.000
58.11500 177.000
58.13000 185.000
58.14500 172.000
58.16000 170.000
58.17500 183.000
58.19000 158.000
58.20500 153.000
58.22000 156.000
58.23500 146.000
58.25000 149.000
58.26500 153.000
58.28000 150.000
58.29500 145.000
58.31000 154.000
58.32500 137.000
58.34000 147.000
58.35500 135.000
58.37000 133.000
58.38500 141.000
58.40000 147.000
58.41500 150.000
58.43000 139.000
58.44500 138.000
58.46000 164.000
58.47500 147.000
58.49000 153.000
58.50500 144.000
58.52000 109.000
58.53500 124.000
58.55000 133.000
58.56500 140.000
58.58000 128.000
58.59500 122.000
58.61000 141.000
58.62500 135.000
58.64000 119.000
58.65500 136.000
58.67000 137.000
58.68500 163.000
58.70000 140.000
58.71500 130.000
58.73000 135.000
58.74500 133.000
58.76000 134.000
58.77500 139.000
58.79000 129.000
58.80500 144.000
58.82000 144.000
58.83500 147.000
58.85000 129.000
58.86500 147.000
58.88000 145.000
58.89500 141.000
58.91000 126.000
58.92500 135.000
58.94000 119.000
58.95500 127.000
58.97000 132.000
58.98500 126.000
59.00000 128.000
59.01500 146.000
59.03000 129.000
59.04500 134.000
59.06000 139.000
59.07500 134.000
59.09000 129.000
59.10500 117.000
59.12000 125.000
59.13500 124.000
59.15000 143.000
59.16500 129.000
59.18000 123.000
59.19500 124.000
59.21000 121.000
59.22500 128.000
59.24000 121.000
59.25500 120.000
59.27000 136.000
59.28500 122.000
59.30000 120.000
59.31500 121.000
59.33000 126.000
59.34500 130.000
59.36000 139.000
59.37500 134.000
59.39000 120.000
59.40500 123.000
59.42000 130.000
59.43500 129.000
59.45000 128.000
59.46500 118.000
59.48000 119.000
59.49500 120.000
59.51000 133.000
59.52500 124.000
59.54000 129.000
59.55500 128.000
59.57000 127.000
59.58500 134.000
59.60000 137.000
59.61500 132.000
59.63000 128.000
59.64500 123.000
59.66000 131.000
59.67500 143.000
59.69000 142.000
59.70500 141.000
59.72000 129.000
59.73500 130.000
59.75000 124.000
59.76500 129.000
59.78000 125.000
59.79500 128.000
59.81000 123.000
59.82500 119.000
59.84000 123.000
59.85500 121.000
59.87000 119.000
59.88500 138.000
59.90000 138.000
59.91500 134.000
59.93000 132.000
59.94500 116.000
59.96000 112.000
59.97500 127.000
59.99000 139.000
60.00500 127.000
60.02000 121.000
60.03500 123.000
60.05000 101.000
60.06500 118.000
60.08000 116.000
60.09500 104.000
60.11000 117.000
60.12500 143.000
60.14000 122.000
60.15500 122.000
60.17000 118.000
60.18500 132.000
60.20000 140.000
60.21500 146.000
60.23000 137.000
60.24500 119.000
60.26000 125.000
60.27500 117.000
60.29000 118.000
60.30500 120.000
60.32000 129.000
60.33500 131.000
60.35000 121.000
60.36500 124.000
60.38000 110.000
60.39500 116.000
60.41000 114.000
60.42500 109.000
60.44000 113.000
60.45500 116.000
60.47000 117.000
60.48500 127.000
60.50000 117.000
60.51500 106.000
60.53000 113.000
60.54500 119.000
60.56000 116.000
60.57500 118.000
60.59000 119.000
60.60500 117.000
60.62000 133.000
60.63500 122.000
60.65000 104.000
60.66500 132.000
60.68000 117.000
60.69500 98.000
60.71000 123.000
60.72500 132.000
60.74000 137.000
60.75500 117.000
60.77000 114.000
60.78500 115.000
60.80000 143.000
60.81500 132.000
60.83000 97.000
60.84500 117.000
60.86000 117.000
60.87500 122.000
60.89000 120.000
60.90500 120.000
60.92000 120.000
60.93500 99.000
60.95000 113.000
60.96500 120.000
60.98000 124.000
60.99500 114.000
61.01000 114.000
61.02500 124.000
61.04000 120.000
61.05500 135.000
61.07000 120.000
61.08500 129.000
61.10000 121.000
61.11500 109.000
61.13000 125.000
61.14500 120.000
61.16000 116.000
61.17500 106.000
61.19000 125.000
61.20500 116.000
61.22000 113.000
61.23500 128.000
61.25000 135.000
61.26500 131.000
61.28000 118.000
61.29500 113.000
61.31000 137.000
61.32500 115.000
61.34000 116.000
61.35500 114.000
61.37000 117.000
61.38500 123.000
61.40000 115.000
61.41500 119.000
61.43000 128.000
61.44500 125.000
61.46000 127.000
61.47500 118.000
61.49000 117.000
61.50500 110.000
61.52000 130.000
61.53500 120.000
61.55000 101.000
61.56500 130.000
61.58000 119.000
61.59500 100.000
61.61000 104.000
61.62500 108.000
61.64000 112.000
61.65500 129.000
61.67000 121.000
61.68500 110.000
61.70000 107.000
61.71500 119.000
61.73000 126.000
61.74500 132.000
61.76000 113.000
61.77500 114.000
61.79000 105.000
61.80500 109.000
61.82000 115.000
61.83500 131.000
61.85000 111.000
61.86500 111.000
61.88000 122.000
61.89500 122.000
61.91000 132.000
61.92500 123.000
61.94000 113.000
61.95500 123.000
61.97000 112.000
61.98500 119.000
