2.00000 380.000
2.01500 379.000
2.03000 369.000
2.04500 399.000
2.06000 367.000
2.07500 369.000
2.09000 364.000
2.10500 366.000
2.12000 354.000
2.13500 360.000
2.15000 344.000
2.16500 343.000
2.18000 336.000
2.19500 338.000
2.21000 305.000
2.22500 338.000
2.24000 351.000
2.25500 306.000
2.27000 311.000
2.28500 328.000
2.30000 314.000
2.31500 302.000
2.33000 312.000
2.34500 308.000
2.36000 301.000
2.37500 278.000
2.39000 287.000
2.40500 284.000
2.42000 317.000
2.43500 307.000
2.45000 278.000
2.46500 286.000
2.48000 278.000
2.49500 297.000
2.51000 309.000
2.52500 288.000
2.54000 294.000
2.55500 295.000
2.57000 268.000
2.58500 287.000
2.60000 284.000
2.61500 264.000
2.63000 285.000
2.64500 288.000
2.66000 264.000
2.67500 270.000
2.69000 248.000
2.70500 277.000
2.72000 274.000
2.73500 256.000
2.75000 246.000
2.76500 245.000
2.78000 263.000
2.79500 276.000
2.81000 277.000
2.82500 275.000
2.84000 269.000
2.85500 284.000
2.87000 259.000
2.88500 236.000
2.90000 246.000
2.91500 237.000
2.93000 254.000
2.94500 246.000
2.96000 278.000
2.97500 266.000
2.99000 262.000
3.00500 286.000
3.02000 274.000
3.03500 237.000
3.05000 275.000
3.06500 274.000
3.08000 288.000
3.09500 259.000
3.11000 241.000
3.12500 267.000
3.14000 256.000
3.15500 255.000
3.17000 258.000
3.18500 240.000
3.20000 255.000
3.21500 255.000
3.23000 253.000
3.24500 247.000
3.26000 239.000
3.27500 245.000
3.29000 247.000
3.30500 254.000
3.32000 239.000
3.33500 225.000
3.35000 222.000
3.36500 245.000
3.38000 262.000
3.39500 238.000
3.41000 235.000
3.42500 246.000
3.44000 276.000
3.45500 252.000
3.47000 230.000
3.48500 255.000
3.50000 241.000
3.51500 256.000
3.53000 265.000
3.54500 255.000
3.56000 274.000
3.57500 252.000
3.59000 239.000
3.60500 238.000
3.62000 245.000
3.63500 273.000
3.65000 271.000
3.66500 273.000
3.68000 244.000
3.69500 256.000
3.71000 261.000
3.72500 258.000
3.74000 245.000
3.75500 256.000
3.77000 257.000
3.78500 246.000
3.80000 233.000
3.81500 263.000
3.83000 257.000
3.84500 233.000
3.86000 241.000
3.87500 258.000
3.89000 235.000
3.90500 234.000
3.92000 255.000
3.93500 255.000
3.95000 268.000
3.96500 249.000
3.98000 258.000
3.99500 236.000
4.01000 246.000
4.02500 257.000
4.04000 282.000
4.05500 262.000
4.07000 268.000
4.08500 248.000
4.10000 245.000
4.11500 251.000
4.13000 255.000
4.14500 255.000
4.16000 259.000
4.17500 237.000
4.19000 249.000
4.20500 247.000
4.22000 231.000
4.23500 243.000
4.25000 247.000
4.26500 251.000
4.28000 253.000
4.29500 257.000
4.31000 271.000
4.32500 261.000
4.34000 280.000
4.35500 257.000
4.37000 255.000
4.38500 244.000
4.40000 227.000
4.41500 227.000
4.43000 239.000
4.44500 256.000
4.46000 250.000
4.47500 249.000
4.49000 259.000
4.50500 260.000
4.52000 251.000
4.53500 264.000
4.55000 276.000
4.56500 276.000
4.58000 254.000
4.59500 243.000
4.61000 239.000
4.62500 248.000
4.64000 242.000
4.65500 231.000
4.67000 265.000
4.68500 262.000
4.70000 227.000
4.71500 241.000
4.73000 260.000
4.74500 249.000
4.76000 265.000
4.77500 251.000
4.79000 262.000
4.80500 242.000
4.82000 238.000
4.83500 243.000
4.85000 243.000
4.86500 249.000
4.88000 295.000
4.89500 256.000
4.91000 263.000
4.92500 265.000
4.94000 235.000
4.95500 211.000
4.97000 242.000
4.98500 283.000
5.00000 275.000
5.01500 277.000
5.03000 241.000
5.04500 247.000
5.06000 250.000
5.07500 259.000
5.09000 262.000
5.10500 261.000
5.12000 273.000
5.13500 260.000
5.15000 262.000
5.16500 268.000
5.18000 259.000
5.19500 261.000
5.21000 294.000
5.22500 283.000
5.24000 266.000
5.25500 233.000
5.27000 211.000
5.28500 229.000
5.30000 253.000
5.31500 259.000
5.33000 247.000
5.34500 259.000
5.36000 271.000
5.37500 285.000
5.39000 254.000
5.40500 274.000
5.42000 263.000
5.43500 249.000
5.45000 232.000
5.46500 231.000
5.48000 256.000
5.49500 273.000
5.51000 262.000
5.52500 229.000
5.54000 255.000
5.55500 249.000
5.57000 256.000
5.58500 285.000
5.60000 252.000
5.61500 274.000
5.63000 247.000
5.64500 251.000
5.66000 241.000
5.67500 269.000
5.69000 281.000
5.70500 262.000
5.72000 257.000
5.73500 263.000
5.75000 266.000
5.76500 290.000
5.78000 254.000
5.79500 260.000
5.81000 263.000
5.82500 262.000
5.84000 258.000
5.85500 258.000
5.87000 257.000
5.88500 252.000
5.90000 264.000
5.91500 267.000
5.93000 277.000
5.94500 276.000
5.96000 267.000
5.97500 243.000
5.99000 263.000
6.00500 259.000
6.02000 264.000
6.03500 262.000
6.05000 262.000
6.06500 300.000
6.08000 303.000
6.09500 318.000
6.11000 278.000
6.12500 286.000
6.14000 285.000
6.15500 246.000
6.17000 271.000
6.18500 258.000
6.20000 294.000
6.21500 270.000
6.23000 260.000
6.24500 274.000
6.26000 249.000
6.27500 274.000
6.29000 271.000
6.30500 264.000
6.32000 278.000
6.33500 249.000
6.35000 283.000
6.36500 277.000
6.38000 257.000
6.39500 242.000
6.41000 270.000
6.42500 253.000
6.44000 254.000
6.45500 243.000
6.47000 280.000
6.48500 270.000
6.50000 276.000
6.51500 258.000
6.53000 262.000
6.54500 277.000
6.56000 269.000
6.57500 246.000
6.59000 259.000
6.60500 279.000
6.62000 257.000
6.63500 283.000
6.65000 268.000
6.66500 277.000
6.68000 282.000
6.69500 278.000
6.71000 270.000
6.72500 254.000
6.74000 277.000
6.75500 269.000
6.77000 257.000
6.78500 246.000
6.80000 242.000
6.81500 269.000
6.83000 276.000
6.84500 262.000
6.86000 270.000
6.87500 253.000
6.89000 255.000
6.90500 254.000
6.92000 265.000
6.93500 280.000
6.95000 258.000
6.96500 231.000
6.98000 280.000
6.99500 278.000
7.01000 273.000
7.02500 274.000
7.04000 241.000
7.05500 260.000
7.07000 245.000
7.08500 262.000
7.10000 284.000
7.11500 269.000
7.13000 242.000
7.14500 244.000
7.16000 246.000
7.17500 246.000
7.19000 225.000
7.20500 241.000
7.22000 234.000
7.23500 244.000
7.25000 277.000
7.26500 268.000
7.28000 253.000
7.29500 280.000
7.31000 269.000
7.32500 246.000
7.34000 249.000
7.35500 261.000
7.37000 265.000
7.38500 255.000
7.40000 259.000
7.41500 249.000
7.43000 268.000
7.44500 246.000
7.46000 260.000
7.47500 226.000
7.49000 254.000
7.50500 227.000
7.52000 268.000
7.53500 246.000
7.55000 248.000
7.56500 261.000
7.58000 263.000
7.59500 265.000
7.61000 270.000
7.62500 276.000
7.64000 262.000
7.65500 264.000
7.67000 248.000
7.68500 272.000
7.70000 231.000
7.71500 235.000
7.73000 245.000
7.74500 240.000
7.76000 263.000
7.77500 277.000
7.79000 265.000
7.80500 252.000
7.82000 250.000
7.83500 253.000
7.85000 265.000
7.86500 259.000
7.88000 257.000
7.89500 256.000
7.91000 259.000
7.92500 250.000
7.94000 255.000
7.95500 236.000
7.97000 246.000
7.98500 266.000
8.00000 238.000
8.01500 246.000
8.03000 251.000
8.04500 229.000
8.06000 223.000
8.07500 248.000
8.09000 265.000
8.10500 274.000
8.12000 245.000
8.13500 236.000
8.15000 259.000
8.16500 258.000
8.18000 271.000
8.19500 244.000
8.21000 245.000
8.22500 248.000
8.24000 263.000
8.25500 249.000
8.27000 254.000
8.28500 264.000
8.30000 257.000
8.31500 258.000
8.33000 259.000
8.34500 270.000
8.36000 262.000
8.37500 265.000
8.39000 239.000
8.40500 237.000
8.42000 258.000
8.43500 264.000
8.45000 242.000
8.46500 227.000
8.48000 241.000
8.49500 244.000
8.51000 266.000
8.52500 252.000
8.54000 250.000
8.55500 262.000
8.57000 231.000
8.58500 263.000
8.60000 267.000
8.61500 254.000
8.63000 237.000
8.64500 255.000
8.66000 238.000
8.67500 264.000
8.69000 267.000
8.70500 239.000
8.72000 254.000
8.73500 259.000
8.75000 234.000
8.76500 259.000
8.78000 240.000
8.79500 246.000
8.81000 272.000
8.82500 258.000
8.84000 266.000
8.85500 257.000
8.87000 259.000
8.88500 241.000
8.90000 253.000
8.91500 275.000
8.93000 271.000
8.94500 271.000
8.96000 270.000
8.97500 242.000
8.99000 236.000
9.00500 227.000
9.02000 245.000
9.03500 230.000
9.05000 248.000
9.06500 241.000
9.08000 255.000
9.09500 249.000
9.11000 234.000
9.12500 243.000
9.14000 260.000
9.15500 238.000
9.17000 239.000
9.18500 261.000
9.20000 263.000
9.21500 256.000
9.23000 267.000
9.24500 276.000
9.26000 257.000
9.27500 237.000
9.29000 251.000
9.30500 256.000
9.32000 250.000
9.33500 264.000
9.35000 268.000
9.36500 238.000
9.38000 275.000
9.39500 261.000
9.41000 248.000
9.42500 260.000
9.44000 240.000
9.45500 245.000
9.47000 238.000
9.48500 267.000
9.50000 248.000
9.51500 257.000
9.53000 249.000
9.54500 264.000
9.56000 258.000
9.57500 262.000
9.59000 258.000
9.60500 253.000
9.62000 248.000
9.63500 245.000
9.65000 263.000
9.66500 258.000
9.68000 251.000
9.69500 251.000
9.71000 258.000
9.72500 255.000
9.74000 258.000
9.75500 243.000
9.77000 258.000
9.78500 265.000
9.80000 274.000
9.81500 264.000
9.83000 253.000
9.84500 251.000
9.86000 230.000
9.87500 240.000
9.89000 264.000
9.90500 258.000
9.92000 260.000
9.93500 286.000
9.95000 274.000
9.96500 261.000
9.98000 252.000
9.99500 245.000
10.01000 283.000
10.02500 267.000
10.04000 261.000
10.05500 256.000
10.07000 260.000
10.08500 240.000
10.10000 237.000
10.11500 250.000
10.13000 235.000
10.14500 248.000
10.16000 213.000
10.17500 237.000
10.19000 260.000
10.20500 261.000
10.22000 278.000
10.23500 265.000
10.25000 259.000
10.26500 267.000
10.28000 259.000
10.29500 260.000
10.31000 256.000
10.32500 250.000
10.34000 255.000
10.35500 268.000
10.37000 259.000
10.38500 267.000
10.40000 238.000
10.41500 260.000
10.43000 272.000
10.44500 246.000
10.46000 276.000
10.47500 274.000
10.49000 265.000
10.50500 261.000
10.52000 268.000
10.53500 267.000
10.55000 223.000
10.56500 255.000
10.58000 264.000
10.59500 272.000
10.61000 279.000
10.62500 305.000
10.64000 236.000
10.65500 234.000
10.67000 271.000
10.68500 272.000
10.70000 257.000
10.71500 243.000
10.73000 261.000
10.74500 263.000
10.76000 258.000
10.77500 265.000
10.79000 258.000
10.80500 276.000
10.82000 285.000
10.83500 269.000
10.85000 275.000
10.86500 248.000
10.88000 235.000
10.89500 267.000
10.91000 283.000
10.92500 283.000
10.94000 254.000
10.95500 268.000
10.97000 289.000
10.98500 291.000
11.00000 272.000
11.01500 295.000
11.03000 271.000
11.04500 255.000
11.06000 250.000
11.07500 259.000
11.09000 242.000
11.10500 248.000
11.12000 249.000
11.13500 248.000
11.15000 266.000
11.16500 245.000
11.18000 267.000
11.19500 253.000
11.21000 251.000
11.22500 268.000
11.24000 254.000
11.25500 269.000
11.27000 285.000
11.28500 278.000
11.30000 286.000
11.31500 260.000
11.33000 253.000
11.34500 243.000
11.36000 273.000
11.37500 250.000
11.39000 263.000
11.40500 255.000
11.42000 257.000
11.43500 244.000
11.45000 248.000
11.46500 280.000
11.48000 250.000
11.49500 253.000
11.51000 255.000
11.52500 246.000
11.54000 252.000
11.55500 264.000
11.57000 265.000
11.58500 240.000
11.60000 244.000
11.61500 272.000
11.63000 264.000
11.64500 256.000
11.66000 248.000
11.67500 244.000
11.69000 260.000
11.70500 292.000
11.72000 283.000
11.73500 269.000
11.75000 277.000
11.76500 293.000
11.78000 277.000
11.79500 279.000
11.81000 287.000
11.82500 304.000
11.84000 297.000
11.85500 325.000
11.87000 356.000
11.88500 358.000
11.90000 380.000
11.91500 428.000
11.93000 479.000
11.94500 537.000
11.96000 597.000
11.97500 671.000
11.99000 741.000
12.00500 875.000
12.02000 1017.000
12.03500 1125.000
12.05000 1121.000
12.06500 985.000
12.08000 746.000
12.09500 571.000
12.11000 454.000
12.12500 395.000
12.14000 382.000
12.15500 365.000
12.17000 347.000
12.18500 343.000
12.20000 361.000
12.21500 352.000
12.23000 321.000
12.24500 299.000
12.26000 323.000
12.27500 308.000
12.29000 301.000
12.30500 297.000
12.32000 319.000
12.33500 276.000
12.35000 265.000
12.36500 279.000
12.38000 283.000
12.39500 279.000
12.41000 277.000
12.42500 272.000
12.44000 276.000
12.45500 288.000
12.47000 290.000
12.48500 284.000
12.50000 285.000
12.51500 280.000
12.53000 266.000
12.54500 260.000
12.56000 280.000
12.57500 280.000
12.59000 282.000
12.60500 263.000
12.62000 279.000
12.63500 262.000
12.65000 244.000
12.66500 275.000
12.68000 283.000
12.69500 256.000
12.71000 252.000
12.72500 262.000
12.74000 273.000
12.75500 242.000
12.77000 258.000
12.78500 259.000
12.80000 264.000
12.81500 251.000
12.83000 234.000
12.84500 242.000
12.86000 255.000
12.87500 255.000
12.89000 254.000
12.90500 254.000
12.92000 241.000
12.93500 250.000
12.95000 267.000
12.96500 246.000
12.98000 262.000
12.99500 283.000
13.01000 253.000
13.02500 253.000
13.04000 249.000
13.05500 236.000
13.07000 255.000
13.08500 257.000
13.10000 269.000
13.11500 256.000
13.13000 261.000
13.14500 265.000
13.16000 264.000
13.17500 284.000
13.19000 278.000
13.20500 247.000
13.22000 237.000
13.23500 251.000
13.25000 231.000
13.26500 238.000
13.28000 256.000
13.29500 263.000
13.31000 259.000
13.32500 274.000
13.34000 256.000
13.35500 260.000
13.37000 246.000
13.38500 252.000
13.40000 264.000
13.41500 251.000
13.43000 267.000
13.44500 251.000
13.46000 258.000
13.47500 259.000
13.49000 256.000
13.50500 266.000
13.52000 246.000
13.53500 257.000
13.55000 277.000
13.56500 273.000
13.58000 264.000
13.59500 257.000
13.61000 251.000
13.62500 254.000
13.64000 256.000
13.65500 272.000
13.67000 258.000
13.68500 255.000
13.70000 264.000
13.71500 243.000
13.73000 266.000
13.74500 278.000
13.76000 238.000
13.77500 251.000
13.79000 256.000
13.80500 263.000
13.82000 258.000
13.83500 253.000
13.85000 248.000
13.86500 275.000
13.88000 244.000
13.89500 245.000
13.91000 248.000
13.92500 280.000
13.94000 278.000
13.95500 276.000
13.97000 256.000
13.98500 248.000
14.00000 228.000
14.01500 243.000
14.03000 267.000
14.04500 257.000
14.06000 252.000
14.07500 263.000
14.09000 249.000
14.10500 233.000
14.12000 273.000
14.13500 278.000
14.15000 265.000
14.16500 251.000
14.18000 247.000
14.19500 257.000
14.21000 273.000
14.22500 264.000
14.24000 255.000
14.25500 267.000
14.27000 276.000
14.28500 289.000
14.30000 265.000
14.31500 259.000
14.33000 264.000
14.34500 266.000
14.36000 250.000
14.37500 277.000
14.39000 277.000
14.40500 268.000
14.42000 247.000
14.43500 258.000
14.45000 259.000
14.46500 252.000
14.48000 229.000
14.49500 254.000
14.51000 247.000
14.52500 245.000
14.54000 238.000
14.55500 246.000
14.57000 232.000
14.58500 253.000
14.60000 251.000
14.61500 246.000
14.63000 265.000
14.64500 257.000
14.66000 263.000
14.67500 245.000
14.69000 260.000
14.70500 266.000
14.72000 264.000
14.73500 265.000
14.75000 255.000
14.76500 267.000
14.78000 248.000
14.79500 260.000
14.81000 267.000
14.82500 261.000
14.84000 270.000
14.85500 240.000
14.87000 269.000
14.88500 263.000
14.90000 270.000
14.91500 271.000
14.93000 250.000
14.94500 260.000
14.96000 253.000
14.97500 253.000
14.99000 264.000
15.00500 283.000
15.02000 256.000
15.03500 266.000
15.05000 247.000
15.06500 258.000
15.08000 237.000
15.09500 266.000
15.11000 280.000
15.12500 262.000
15.14000 252.000
15.15500 260.000
15.17000 244.000
15.18500 240.000
15.20000 263.000
15.21500 283.000
15.23000 260.000
15.24500 251.000
15.26000 274.000
15.27500 281.000
15.29000 289.000
15.30500 281.000
15.32000 284.000
15.33500 280.000
15.35000 265.000
15.36500 255.000
15.38000 248.000
15.39500 238.000
15.41000 246.000
15.42500 254.000
15.44000 258.000
15.45500 268.000
15.47000 261.000
15.48500 264.000
15.50000 268.000
15.51500 255.000
15.53000 254.000
15.54500 259.000
15.56000 263.000
15.57500 270.000
15.59000 281.000
15.60500 264.000
15.62000 266.000
15.63500 243.000
15.65000 285.000
15.66500 284.000
15.68000 296.000
15.69500 285.000
15.71000 276.000
15.72500 264.000
15.74000 295.000
15.75500 268.000
15.77000 275.000
15.78500 264.000
15.80000 264.000
15.81500 241.000
15.83000 261.000
15.84500 262.000
15.86000 263.000
15.87500 271.000
15.89000 273.000
15.90500 281.000
15.92000 261.000
15.93500 267.000
15.95000 262.000
15.96500 267.000
15.98000 258.000
15.99500 288.000
16.01000 270.000
16.02500 253.000
16.04000 263.000
16.05500 263.000
16.07000 246.000
16.08500 242.000
16.10000 278.000
16.11500 257.000
16.13000 264.000
16.14500 273.000
16.16000 261.000
16.17500 251.000
16.19000 268.000
16.20500 275.000
16.22000 247.000
16.23500 291.000
16.25000 283.000
16.26500 271.000
16.28000 259.000
16.29500 270.000
16.31000 272.000
16.32500 291.000
16.34000 256.000
16.35500 259.000
16.37000 248.000
16.38500 255.000
16.40000 253.000
16.41500 246.000
16.43000 275.000
16.44500 265.000
16.46000 259.000
16.47500 262.000
16.49000 263.000
16.50500 261.000
16.52000 269.000
16.53500 266.000
16.55000 255.000
16.56500 278.000
16.58000 282.000
16.59500 287.000
16.61000 259.000
16.62500 271.000
16.64000 261.000
16.65500 292.000
16.67000 287.000
16.68500 278.000
16.70000 282.000
16.71500 253.000
16.73000 256.000
16.74500 275.000
16.76000 280.000
16.77500 271.000
16.79000 274.000
16.80500 310.000
16.82000 301.000
16.83500 268.000
16.85000 261.000
16.86500 270.000
16.88000 261.000
16.89500 273.000
16.91000 291.000
16.92500 280.000
16.94000 270.000
16.95500 289.000
16.97000 279.000
16.98500 265.000
17.00000 310.000
17.01500 277.000
17.03000 283.000
17.04500 275.000
17.06000 292.000
17.07500 293.000
17.09000 276.000
17.10500 278.000
17.12000 267.000
17.13500 284.000
17.15000 279.000
17.16500 288.000
17.18000 289.000
17.19500 293.000
17.21000 277.000
17.22500 280.000
17.24000 286.000
17.25500 308.000
17.27000 310.000
17.28500 289.000
17.30000 266.000
17.31500 290.000
17.33000 272.000
17.34500 273.000
17.36000 307.000
17.37500 280.000
17.39000 308.000
17.40500 292.000
17.42000 267.000
17.43500 279.000
17.45000 275.000
17.46500 293.000
17.48000 288.000
17.49500 266.000
17.51000 271.000
17.52500 284.000
17.54000 287.000
17.55500 291.000
17.57000 294.000
17.58500 310.000
17.60000 300.000
17.61500 265.000
17.63000 293.000
17.64500 316.000
17.66000 331.000
17.67500 308.000
17.69000 299.000
17.70500 281.000
17.72000 306.000
17.73500 329.000
17.75000 312.000
17.76500 331.000
17.78000 310.000
17.79500 330.000
17.81000 295.000
17.82500 294.000
17.84000 316.000
17.85500 307.000
17.87000 298.000
17.88500 296.000
17.90000 290.000
17.91500 302.000
17.93000 301.000
17.94500 302.000
17.96000 306.000
17.97500 311.000
17.99000 303.000
18.00500 306.000
18.02000 298.000
18.03500 348.000
18.05000 318.000
18.06500 307.000
18.08000 294.000
18.09500 309.000
18.11000 297.000
18.12500 292.000
18.14000 282.000
18.15500 302.000
18.17000 318.000
18.18500 309.000
18.20000 297.000
18.21500 329.000
18.23000 318.000
18.24500 324.000
18.26000 295.000
18.27500 309.000
18.29000 330.000
18.30500 320.000
18.32000 291.000
18.33500 310.000
18.35000 310.000
18.36500 284.000
18.38000 306.000
18.39500 299.000
18.41000 307.000
18.42500 307.000
18.44000 320.000
18.45500 298.000
18.47000 291.000
18.48500 320.000
18.50000 313.000
18.51500 317.000
18.53000 304.000
18.54500 279.000
18.56000 313.000
18.57500 302.000
18.59000 293.000
18.60500 317.000
18.62000 301.000
18.63500 307.000
18.65000 303.000
18.66500 302.000
18.68000 307.000
18.69500 303.000
18.71000 280.000
18.72500 284.000
18.74000 314.000
18.75500 300.000
18.77000 289.000
18.78500 329.000
18.80000 299.000
18.81500 267.000
18.83000 284.000
18.84500 324.000
18.86000 301.000
18.87500 307.000
18.89000 326.000
18.90500 310.000
18.92000 281.000
18.93500 307.000
18.95000 309.000
18.96500 310.000
18.98000 297.000
18.99500 316.000
19.01000 319.000
19.02500 298.000
19.04000 298.000
19.05500 281.000
19.07000 328.000
19.08500 312.000
19.10000 312.000
19.11500 322.000
19.13000 329.000
19.14500 322.000
19.16000 327.000
19.17500 306.000
19.19000 303.000
19.20500 310.000
19.22000 317.000
19.23500 331.000
19.25000 289.000
19.26500 316.000
19.28000 299.000
19.29500 301.000
19.31000 313.000
19.32500 296.000
19.34000 304.000
19.35500 283.000
19.37000 274.000
19.38500 307.000
19.40000 323.000
19.41500 300.000
19.43000 292.000
19.44500 278.000
19.46000 298.000
19.47500 322.000
19.49000 321.000
19.50500 311.000
19.52000 294.000
19.53500 302.000
19.55000 308.000
19.56500 280.000
19.58000 327.000
19.59500 310.000
19.61000 293.000
19.62500 312.000
19.64000 328.000
19.65500 318.000
19.67000 313.000
19.68500 279.000
19.70000 320.000
19.71500 328.000
19.73000 312.000
19.74500 326.000
19.76000 324.000
19.77500 292.000
19.79000 313.000
19.80500 332.000
19.82000 337.000
19.83500 333.000
19.85000 303.000
19.86500 312.000
19.88000 307.000
19.89500 336.000
19.91000 316.000
19.92500 317.000
19.94000 308.000
19.95500 324.000
19.97000 317.000
19.98500 325.000
20.00000 324.000
20.01500 308.000
20.03000 333.000
20.04500 323.000
20.06000 338.000
20.07500 318.000
20.09000 346.000
20.10500 335.000
20.12000 315.000
20.13500 326.000
20.15000 332.000
20.16500 300.000
20.18000 288.000
20.19500 300.000
20.21000 325.000
20.22500 336.000
20.24000 338.000
20.25500 305.000
20.27000 287.000
20.28500 328.000
20.30000 338.000
20.31500 310.000
20.33000 326.000
20.34500 345.000
20.36000 332.000
20.37500 353.000
20.39000 333.000
20.40500 360.000
20.42000 353.000
20.43500 318.000
20.45000 298.000
20.46500 316.000
20.48000 325.000
20.49500 311.000
20.51000 319.000
20.52500 322.000
20.54000 336.000
20.55500 338.000
20.57000 325.000
20.58500 365.000
20.60000 362.000
20.61500 352.000
20.63000 361.000
20.64500 362.000
20.66000 361.000
20.67500 352.000
20.69000 356.000
20.70500 351.000
20.72000 391.000
20.73500 433.000
20.75000 433.000
20.76500 470.000
20.78000 529.000
20.79500 592.000
20.81000 738.000
20.82500 904.000
20.84000 1114.000
20.85500 1435.000
20.87000 1856.000
20.88500 2529.000
20.90000 3379.000
20.91500 4177.000
20.93000 4807.000
20.94500 4525.000
20.96000 3469.000
20.97500 2265.000
20.99000 1350.000
21.00500 880.000
21.02000 682.000
21.03500 554.000
21.05000 515.000
21.06500 485.000
21.08000 436.000
21.09500 456.000
21.11000 416.000
21.12500 399.000
21.14000 393.000
21.15500 408.000
21.17000 401.000
21.18500 401.000
21.20000 397.000
21.21500 345.000
21.23000 333.000
21.24500 386.000
21.26000 373.000
21.27500 373.000
21.29000 357.000
21.30500 379.000
21.32000 361.000
21.33500 359.000
21.35000 332.000
21.36500 347.000
21.38000 395.000
21.39500 351.000
21.41000 354.000
21.42500 373.000
21.44000 375.000
21.45500 366.000
21.47000 392.000
21.48500 339.000
21.50000 343.000
21.51500 357.000
21.53000 345.000
21.54500 344.000
21.56000 335.000
21.57500 350.000
21.59000 329.000
21.60500 359.000
21.62000 344.000
21.63500 383.000
21.65000 374.000
21.66500 361.000
21.68000 336.000
21.69500 364.000
21.71000 381.000
21.72500 362.000
21.74000 347.000
21.75500 351.000
21.77000 374.000
21.78500 380.000
21.80000 342.000
21.81500 355.000
21.83000 357.000
21.84500 354.000
21.86000 371.000
21.87500 347.000
21.89000 355.000
21.90500 370.000
21.92000 395.000
21.93500 360.000
21.95000 340.000
21.96500 360.000
21.98000 363.000
21.99500 383.000
22.01000 364.000
22.02500 346.000
22.04000 333.000
22.05500 345.000
22.07000 334.000
22.08500 345.000
22.10000 350.000
22.11500 349.000
22.13000 339.000
22.14500 349.000
22.16000 386.000
22.17500 380.000
22.19000 375.000
22.20500 358.000
22.22000 358.000
22.23500 342.000
22.25000 351.000
22.26500 344.000
22.28000 361.000
22.29500 342.000
22.31000 358.000
22.32500 350.000
22.34000 316.000
22.35500 338.000
22.37000 359.000
22.38500 366.000
22.40000 362.000
22.41500 356.000
22.43000 362.000
22.44500 399.000
22.46000 354.000
22.47500 356.000
22.49000 365.000
22.50500 367.000
22.52000 335.000
22.53500 362.000
22.55000 350.000
22.56500 355.000
22.58000 370.000
22.59500 388.000
22.61000 360.000
22.62500 353.000
22.64000 362.000
22.65500 378.000
22.67000 382.000
22.68500 373.000
22.70000 379.000
22.71500 378.000
22.73000 352.000
22.74500 324.000
22.76000 328.000
22.77500 349.000
22.79000 362.000
22.80500 356.000
22.82000 359.000
22.83500 366.000
22.85000 380.000
22.86500 363.000
22.88000 350.000
22.89500 399.000
22.91000 389.000
22.92500 354.000
22.94000 332.000
22.95500 339.000
22.97000 367.000
22.98500 336.000
23.00000 337.000
23.01500 357.000
23.03000 373.000
23.04500 378.000
23.06000 344.000
23.07500 358.000
23.09000 385.000
23.10500 332.000
23.12000 363.000
23.13500 385.000
23.15000 369.000
23.16500 345.000
23.18000 352.000
23.19500 359.000
23.21000 360.000
23.22500 364.000
23.24000 364.000
23.25500 382.000
23.27000 379.000
23.28500 373.000
23.30000 390.000
23.31500 362.000
23.33000 359.000
23.34500 353.000
23.36000 347.000
23.37500 359.000
23.39000 383.000
23.40500 378.000
23.42000 377.000
23.43500 383.000
23.45000 347.000
23.46500 326.000
23.48000 365.000
23.49500 356.000
23.51000 356.000
23.52500 383.000
23.54000 377.000
23.55500 367.000
23.57000 370.000
23.58500 354.000
23.60000 348.000
23.61500 367.000
23.63000 381.000
23.64500 373.000
23.66000 385.000
23.67500 379.000
23.69000 361.000
23.70500 367.000
23.72000 384.000
23.73500 371.000
23.75000 376.000
23.76500 383.000
23.78000 373.000
23.79500 387.000
23.81000 357.000
23.82500 367.000
23.84000 399.000
23.85500 377.000
23.87000 358.000
23.88500 382.000
23.90000 374.000
23.91500 415.000
23.93000 407.000
23.94500 375.000
23.96000 390.000
23.97500 389.000
23.99000 395.000
24.00500 377.000
24.02000 416.000
24.03500 438.000
24.05000 437.000
24.06500 452.000
24.08000 543.000
24.09500 607.000
24.11000 671.000
24.12500 809.000
24.14000 963.000
24.15500 1279.000
24.17000 1591.000
24.18500 2039.000
24.20000 2471.000
24.21500 2772.000
24.23000 2603.000
24.24500 2085.000
24.26000 1492.000
24.27500 1014.000
24.29000 716.000
24.30500 638.000
24.32000 608.000
24.33500 557.000
24.35000 518.000
24.36500 543.000
24.38000 524.000
24.39500 539.000
24.41000 559.000
24.42500 552.000
24.44000 567.000
24.45500 574.000
24.47000 575.000
24.48500 562.000
24.50000 558.000
24.51500 573.000
24.53000 523.000
24.54500 506.000
24.56000 484.000
24.57500 481.000
24.59000 492.000
24.60500 469.000
24.62000 452.000
24.63500 440.000
24.65000 437.000
24.66500 449.000
24.68000 442.000
24.69500 453.000
24.71000 453.000
24.72500 427.000
24.74000 455.000
24.75500 458.000
24.77000 453.000
24.78500 433.000
24.80000 483.000
24.81500 461.000
24.83000 443.000
24.84500 458.000
24.86000 441.000
24.87500 437.000
24.89000 468.000
24.90500 462.000
24.92000 468.000
24.93500 412.000
24.95000 449.000
24.96500 449.000
24.98000 476.000
24.99500 504.000
25.01000 523.000
25.02500 512.000
25.04000 525.000
25.05500 546.000
25.07000 571.000
25.08500 611.000
25.10000 682.000
25.11500 760.000
25.13000 872.000
25.14500 1008.000
25.16000 1063.000
25.17500 1203.000
25.19000 1278.000
25.20500 1254.000
25.22000 1246.000
25.23500 1141.000
25.25000 1025.000
25.26500 886.000
25.28000 835.000
25.29500 739.000
25.31000 675.000
25.32500 627.000
25.34000 615.000
25.35500 542.000
25.37000 533.000
25.38500 551.000
25.40000 547.000
25.41500 506.000
25.43000 516.000
25.44500 517.000
25.46000 491.000
25.47500 531.000
25.49000 486.000
25.50500 487.000
25.52000 485.000
25.53500 474.000
25.55000 503.000
25.56500 473.000
25.58000 468.000
25.59500 470.000
25.61000 446.000
25.62500 483.000
25.64000 475.000
25.65500 490.000
25.67000 443.000
25.68500 442.000
25.70000 483.000
25.71500 487.000
25.73000 473.000
25.74500 473.000
25.76000 456.000
25.77500 437.000
25.79000 466.000
25.80500 442.000
25.82000 429.000
25.83500 468.000
25.85000 462.000
25.86500 456.000
25.88000 443.000
25.89500 480.000
25.91000 459.000
25.92500 456.000
25.94000 471.000
25.95500 450.000
25.97000 445.000
25.98500 462.000
26.00000 461.000
26.01500 505.000
26.03000 463.000
26.04500 477.000
26.06000 468.000
26.07500 472.000
26.09000 504.000
26.10500 436.000
26.12000 457.000
26.13500 462.000
26.15000 428.000
26.16500 441.000
26.18000 484.000
26.19500 439.000
26.21000 455.000
26.22500 494.000
26.24000 472.000
26.25500 480.000
26.27000 501.000
26.28500 504.000
26.30000 488.000
26.31500 499.000
26.33000 478.000
26.34500 528.000
26.36000 543.000
26.37500 507.000
26.39000 474.000
26.40500 499.000
26.42000 525.000
26.43500 525.000
26.45000 498.000
26.46500 476.000
26.48000 480.000
26.49500 531.000
26.51000 538.000
26.52500 528.000
26.54000 552.000
26.55500 536.000
26.57000 557.000
26.58500 535.000
26.60000 532.000
26.61500 552.000
26.63000 583.000
26.64500 587.000
26.66000 600.000
26.67500 618.000
26.69000 581.000
26.70500 588.000
26.72000 611.000
26.73500 623.000
26.75000 635.000
26.76500 601.000
26.78000 613.000
26.79500 645.000
26.81000 633.000
26.82500 644.000
26.84000 667.000
26.85500 668.000
26.87000 676.000
26.88500 686.000
26.90000 689.000
26.91500 704.000
26.93000 735.000
26.94500 722.000
26.96000 719.000
26.97500 707.000
26.99000 750.000
27.00500 720.000
27.02000 727.000
27.03500 715.000
27.05000 688.000
27.06500 704.000
27.08000 720.000
27.09500 733.000
27.11000 747.000
27.12500 710.000
27.14000 687.000
27.15500 716.000
27.17000 734.000
27.18500 737.000
27.20000 690.000
27.21500 710.000
27.23000 718.000
27.24500 696.000
27.26000 686.000
27.27500 692.000
27.29000 698.000
27.30500 693.000
27.32000 699.000
27.33500 699.000
27.35000 698.000
27.36500 746.000
27.38000 707.000
27.39500 663.000
27.41000 701.000
27.42500 675.000
27.44000 672.000
27.45500 679.000
27.47000 691.000
27.48500 676.000
27.50000 715.000
27.51500 721.000
27.53000 735.000
27.54500 737.000
27.56000 708.000
27.57500 707.000
27.59000 708.000
27.60500 716.000
27.62000 728.000
27.63500 738.000
27.65000 768.000
27.66500 799.000
27.68000 814.000
27.69500 776.000
27.71000 846.000
27.72500 870.000
27.74000 916.000
27.75500 935.000
27.77000 965.000
27.78500 1010.000
27.80000 1072.000
27.81500 1114.000
27.83000 1208.000
27.84500 1337.000
27.86000 1424.000
27.87500 1596.000
27.89000 1771.000
27.90500 1998.000
27.92000 2140.000
27.93500 2235.000
27.95000 2568.000
27.96500 2770.000
27.98000 3026.000
27.99500 3237.000
28.01000 3282.000
28.02500 3227.000
28.04000 3114.000
28.05500 2795.000
28.07000 2584.000
28.08500 2398.000
28.10000 2198.000
28.11500 1959.000
28.13000 1720.000
28.14500 1510.000
28.16000 1432.000
28.17500 1295.000
28.19000 1126.000
28.20500 1081.000
28.22000 1031.000
28.23500 954.000
28.25000 894.000
28.26500 877.000
28.28000 852.000
28.29500 819.000
28.31000 757.000
28.32500 754.000
28.34000 747.000
28.35500 672.000
28.37000 656.000
28.38500 677.000
28.40000 653.000
28.41500 606.000
28.43000 576.000
28.44500 611.000
28.46000 596.000
28.47500 586.000
28.49000 570.000
28.50500 560.000
28.52000 529.000
28.53500 533.000
28.55000 533.000
28.56500 531.000
28.58000 498.000
28.59500 521.000
28.61000 484.000
28.62500 513.000
28.64000 493.000
28.65500 504.000
28.67000 504.000
28.68500 484.000
28.70000 457.000
28.71500 466.000
28.73000 476.000
28.74500 455.000
28.76000 482.000
28.77500 527.000
28.79000 478.000
28.80500 466.000
28.82000 462.000
28.83500 449.000
28.85000 442.000
28.86500 441.000
28.88000 470.000
28.89500 455.000
28.91000 464.000
28.92500 457.000
28.94000 424.000
28.95500 431.000
28.97000 439.000
28.98500 425.000
29.00000 427.000
29.01500 430.000
29.03000 416.000
29.04500 439.000
29.06000 426.000
29.07500 412.000
29.09000 430.000
29.10500 435.000
29.12000 410.000
29.13500 415.000
29.15000 418.000
29.16500 403.000
29.18000 387.000
29.19500 395.000
29.21000 423.000
29.22500 425.000
29.24000 399.000
29.25500 383.000
29.27000 403.000
29.28500 398.000
29.30000 406.000
29.31500 413.000
29.33000 391.000
29.34500 393.000
29.36000 415.000
29.37500 398.000
29.39000 394.000
29.40500 406.000
29.42000 393.000
29.43500 411.000
29.45000 378.000
29.46500 409.000
29.48000 423.000
29.49500 420.000
29.51000 373.000
29.52500 375.000
29.54000 385.000
29.55500 397.000
29.57000 378.000
29.58500 382.000
29.60000 427.000
29.61500 395.000
29.63000 358.000
29.64500 368.000
29.66000 378.000
29.67500 360.000
29.69000 367.000
29.70500 348.000
29.72000 370.000
29.73500 365.000
29.75000 344.000
29.76500 348.000
29.78000 386.000
29.79500 365.000
29.81000 337.000
29.82500 370.000
29.84000 355.000
29.85500 367.000
29.87000 347.000
29.88500 364.000
29.90000 364.000
29.91500 348.000
29.93000 339.000
29.94500 351.000
29.96000 331.000
29.97500 344.000
29.99000 363.000
30.00500 366.000
30.02000 359.000
30.03500 361.000
30.05000 321.000
30.06500 335.000
30.08000 366.000
30.09500 359.000
30.11000 362.000
30.12500 352.000
30.14000 334.000
30.15500 338.000
30.17000 357.000
30.18500 336.000
30.20000 331.000
30.21500 342.000
30.23000 336.000
30.24500 333.000
30.26000 331.000
30.27500 329.000
30.29000 329.000
30.30500 334.000
30.32000 312.000
30.33500 324.000
30.35000 302.000
30.36500 324.000
30.38000 308.000
30.39500 306.000
30.41000 296.000
30.42500 324.000
30.44000 312.000
30.45500 303.000
30.47000 301.000
30.48500 316.000
30.50000 315.000
30.51500 301.000
30.53000 326.000
30.54500 308.000
30.56000 303.000
30.57500 289.000
30.59000 311.000
30.60500 320.000
30.62000 325.000
30.63500 328.000
30.65000 316.000
30.66500 312.000
30.68000 322.000
30.69500 313.000
30.71000 305.000
30.72500 341.000
30.74000 307.000
30.75500 320.000
30.77000 315.000
30.78500 310.000
30.80000 328.000
30.81500 293.000
30.83000 296.000
30.84500 312.000
30.86000 316.000
30.87500 290.000
30.89000 290.000
30.90500 308.000
30.92000 291.000
30.93500 305.000
30.95000 288.000
30.96500 323.000
30.98000 312.000
30.99500 322.000
31.01000 319.000
31.02500 288.000
31.04000 289.000
31.05500 278.000
31.07000 296.000
31.08500 291.000
31.10000 294.000
31.11500 284.000
31.13000 271.000
31.14500 281.000
31.16000 301.000
31.17500 282.000
31.19000 291.000
31.20500 285.000
31.22000 295.000
31.23500 273.000
31.25000 312.000
31.26500 272.000
31.28000 287.000
31.29500 273.000
31.31000 281.000
31.32500 293.000
31.34000 279.000
31.35500 281.000
31.37000 295.000
31.38500 316.000
31.40000 288.000
31.41500 274.000
31.43000 294.000
31.44500 284.000
31.46000 278.000
31.47500 283.000
31.49000 281.000
31.50500 279.000
31.52000 308.000
31.53500 270.000
31.55000 276.000
31.56500 279.000
31.58000 285.000
31.59500 306.000
31.61000 302.000
31.62500 280.000
31.64000 300.000
31.65500 292.000
31.67000 295.000
31.68500 284.000
31.70000 281.000
31.71500 282.000
31.73000 276.000
31.74500 299.000
31.76000 256.000
31.77500 292.000
31.79000 281.000
31.80500 288.000
31.82000 305.000
31.83500 286.000
31.85000 293.000
31.86500 283.000
31.88000 287.000
31.89500 291.000
31.91000 302.000
31.92500 306.000
31.94000 309.000
31.95500 336.000
31.97000 310.000
31.98500 322.000
32.00000 344.000
32.01500 331.000
32.03000 373.000
32.04500 398.000
32.06000 434.000
32.07500 516.000
32.09000 576.000
32.10500 654.000
32.12000 820.000
32.13500 1009.000
32.15000 1263.000
32.16500 1688.000
32.18000 2237.000
32.19500 2768.000
32.21000 3102.000
32.22500 3128.000
32.24000 2713.000
32.25500 2043.000
32.27000 1452.000
32.28500 1002.000
32.30000 681.000
32.31500 522.000
32.33000 461.000
32.34500 425.000
32.36000 393.000
32.37500 396.000
32.39000 359.000
32.40500 352.000
32.42000 342.000
32.43500 291.000
32.45000 304.000
32.46500 306.000
32.48000 312.000
32.49500 300.000
32.51000 322.000
32.52500 297.000
32.54000 295.000
32.55500 326.000
32.57000 330.000
32.58500 323.000
32.60000 316.000
32.61500 287.000
32.63000 312.000
32.64500 326.000
32.66000 337.000
32.67500 332.000
32.69000 325.000
32.70500 339.000
32.72000 343.000
32.73500 344.000
32.75000 341.000
32.76500 358.000
32.78000 391.000
32.79500 415.000
32.81000 398.000
32.82500 441.000
32.84000 454.000
32.85500 489.000
32.87000 483.000
32.88500 506.000
32.90000 490.000
32.91500 552.000
32.93000 618.000
32.94500 619.000
32.96000 598.000
32.97500 624.000
32.99000 570.000
33.00500 591.000
33.02000 537.000
33.03500 563.000
33.05000 524.000
33.06500 495.000
33.08000 454.000
33.09500 454.000
33.11000 450.000
33.12500 424.000
33.14000 416.000
33.15500 384.000
33.17000 343.000
33.18500 325.000
33.20000 327.000
33.21500 352.000
33.23000 330.000
33.24500 313.000
33.26000 318.000
33.27500 300.000
33.29000 298.000
33.30500 301.000
33.32000 286.000
33.33500 293.000
33.35000 259.000
33.36500 261.000
33.38000 285.000
33.39500 258.000
33.41000 283.000
33.42500 272.000
33.44000 274.000
33.45500 280.000
33.47000 262.000
33.48500 275.000
33.50000 277.000
33.51500 255.000
33.53000 276.000
33.54500 253.000
33.56000 260.000
33.57500 251.000
33.59000 266.000
33.60500 249.000
33.62000 257.000
33.63500 287.000
33.65000 274.000
33.66500 270.000
33.68000 270.000
33.69500 261.000
33.71000 283.000
33.72500 275.000
33.74000 241.000
33.75500 254.000
33.77000 276.000
33.78500 249.000
33.80000 235.000
33.81500 255.000
33.83000 245.000
33.84500 251.000
33.86000 242.000
33.87500 260.000
33.89000 229.000
33.90500 255.000
33.92000 269.000
33.93500 258.000
33.95000 245.000
33.96500 240.000
33.98000 235.000
33.99500 253.000
34.01000 243.000
34.02500 256.000
34.04000 238.000
34.05500 233.000
34.07000 257.000
34.08500 257.000
34.10000 243.000
34.11500 251.000
34.13000 244.000
34.14500 255.000
34.16000 256.000
34.17500 245.000
34.19000 225.000
34.20500 236.000
34.22000 249.000
34.23500 258.000
34.25000 256.000
34.26500 239.000
34.28000 231.000
34.29500 251.000
34.31000 250.000
34.32500 233.000
34.34000 260.000
34.35500 265.000
34.37000 245.000
34.38500 253.000
34.40000 253.000
34.41500 247.000
34.43000 239.000
34.44500 264.000
34.46000 272.000
34.47500 265.000
34.49000 249.000
34.50500 254.000
34.52000 257.000
34.53500 277.000
34.55000 255.000
34.56500 266.000
34.58000 274.000
34.59500 284.000
34.61000 280.000
34.62500 284.000
34.64000 282.000
34.65500 305.000
34.67000 293.000
34.68500 304.000
34.70000 302.000
34.71500 286.000
34.73000 292.000
34.74500 318.000
34.76000 281.000
34.77500 285.000
34.79000 264.000
34.80500 291.000
34.82000 277.000
34.83500 277.000
34.85000 277.000
34.86500 276.000
34.88000 289.000
34.89500 302.000
34.91000 302.000
34.92500 295.000
34.94000 305.000
34.95500 304.000
34.97000 303.000
34.98500 334.000
35.00000 314.000
35.01500 334.000
35.03000 346.000
35.04500 381.000
35.06000 384.000
35.07500 428.000
35.09000 443.000
35.10500 434.000
35.12000 445.000
35.13500 447.000
35.15000 467.000
35.16500 518.000
35.18000 541.000
35.19500 567.000
35.21000 548.000
35.22500 571.000
35.24000 584.000
35.25500 545.000
35.27000 518.000
35.28500 501.000
35.30000 500.000
35.31500 469.000
35.33000 452.000
35.34500 440.000
35.36000 387.000
35.37500 344.000
35.39000 360.000
35.40500 360.000
35.42000 324.000
35.43500 339.000
35.45000 310.000
35.46500 297.000
35.48000 323.000
35.49500 288.000
35.51000 273.000
35.52500 281.000
35.54000 276.000
35.55500 261.000
35.57000 272.000
35.58500 238.000
35.60000 285.000
35.61500 258.000
35.63000 239.000
35.64500 243.000
35.66000 263.000
35.67500 257.000
35.69000 235.000
35.70500 218.000
35.72000 217.000
35.73500 204.000
35.75000 216.000
35.76500 223.000
35.78000 241.000
35.79500 232.000
35.81000 219.000
35.82500 194.000
35.84000 223.000
35.85500 241.000
35.87000 221.000
35.88500 224.000
35.90000 231.000
35.91500 216.000
35.93000 208.000
35.94500 209.000
35.96000 228.000
35.97500 209.000
35.99000 224.000
36.00500 241.000
36.02000 228.000
36.03500 182.000
36.05000 190.000
36.06500 194.000
36.08000 194.000
36.09500 214.000
36.11000 210.000
36.12500 216.000
36.14000 215.000
36.15500 222.000
36.17000 205.000
36.18500 198.000
36.20000 216.000
36.21500 213.000
36.23000 218.000
36.24500 227.000
36.26000 208.000
36.27500 219.000
36.29000 216.000
36.30500 206.000
36.32000 227.000
36.33500 211.000
36.35000 209.000
36.36500 201.000
36.38000 202.000
36.39500 204.000
36.41000 214.000
36.42500 218.000
36.44000 219.000
36.45500 224.000
36.47000 209.000
36.48500 196.000
36.50000 206.000
36.51500 217.000
36.53000 224.000
36.54500 241.000
36.56000 247.000
36.57500 280.000
36.59000 290.000
36.60500 319.000
36.62000 357.000
36.63500 411.000
36.65000 487.000
36.66500 563.000
36.68000 545.000
36.69500 480.000
36.71000 448.000
36.72500 384.000
36.74000 313.000
36.75500 259.000
36.77000 232.000
36.78500 207.000
36.80000 220.000
36.81500 225.000
36.83000 209.000
36.84500 202.000
36.86000 194.000
36.87500 214.000
36.89000 227.000
36.90500 230.000
36.92000 195.000
36.93500 199.000
36.95000 211.000
36.96500 191.000
36.98000 212.000
36.99500 193.000
37.01000 212.000
37.02500 185.000
37.04000 186.000
37.05500 192.000
37.07000 168.000
37.08500 198.000
37.10000 223.000
37.11500 202.000
37.13000 193.000
37.14500 191.000
37.16000 197.000
37.17500 193.000
37.19000 189.000
37.20500 185.000
37.22000 188.000
37.23500 193.000
37.25000 210.000
37.26500 194.000
37.28000 181.000
37.29500 195.000
37.31000 197.000
37.32500 180.000
37.34000 195.000
37.35500 186.000
37.37000 183.000
37.38500 179.000
37.40000 199.000
37.41500 192.000
37.43000 206.000
37.44500 184.000
37.46000 209.000
37.47500 202.000
37.49000 186.000
37.50500 182.000
37.52000 170.000
37.53500 175.000
37.55000 183.000
37.56500 195.000
37.58000 174.000
37.59500 175.000
37.61000 189.000
37.62500 197.000
37.64000 204.000
37.65500 200.000
37.67000 198.000
37.68500 177.000
37.70000 178.000
37.71500 192.000
37.73000 211.000
37.74500 197.000
37.76000 183.000
37.77500 176.000
37.79000 184.000
37.80500 186.000
37.82000 195.000
37.83500 194.000
37.85000 169.000
37.86500 194.000
37.88000 185.000
37.89500 193.000
37.91000 180.000
37.92500 185.000
37.94000 206.000
37.95500 187.000
37.97000 190.000
37.98500 170.000
38.00000 177.000
38.01500 199.000
38.03000 203.000
38.04500 186.000
38.06000 180.000
38.07500 190.000
38.09000 197.000
38.10500 179.000
38.12000 194.000
38.13500 216.000
38.15000 190.000
38.16500 187.000
38.18000 177.000
38.19500 194.000
38.21000 189.000
38.22500 189.000
38.24000 191.000
38.25500 206.000
38.27000 211.000
38.28500 200.000
38.30000 194.000
38.31500 176.000
38.33000 184.000
38.34500 168.000
38.36000 181.000
38.37500 179.000
38.39000 183.000
38.40500 182.000
38.42000 199.000
38.43500 206.000
38.45000 195.000
38.46500 177.000
38.48000 190.000
38.49500 181.000
38.51000 175.000
38.52500 169.000
38.54000 189.000
38.55500 171.000
38.57000 188.000
38.58500 186.000
38.60000 180.000
38.61500 207.000
38.63000 185.000
38.64500 178.000
38.66000 181.000
38.67500 184.000
38.69000 194.000
38.70500 171.000
38.72000 196.000
38.73500 200.000
38.75000 191.000
38.76500 169.000
38.78000 171.000
38.79500 172.000
38.81000 179.000
38.82500 164.000
38.84000 169.000
38.85500 184.000
38.87000 196.000
38.88500 179.000
38.90000 185.000
38.91500 176.000
38.93000 188.000
38.94500 175.000
38.96000 181.000
38.97500 195.000
38.99000 187.000
39.00500 189.000
39.02000 179.000
39.03500 177.000
39.05000 177.000
39.06500 162.000
39.08000 184.000
39.09500 185.000
39.11000 174.000
39.12500 188.000
39.14000 179.000
39.15500 185.000
39.17000 193.000
39.18500 181.000
39.20000 172.000
39.21500 182.000
39.23000 192.000
39.24500 177.000
39.26000 177.000
39.27500 198.000
39.29000 178.000
39.30500 171.000
39.32000 181.000
39.33500 182.000
39.35000 196.000
39.36500 183.000
39.38000 174.000
39.39500 173.000
39.41000 183.000
39.42500 197.000
39.44000 178.000
39.45500 174.000
39.47000 193.000
39.48500 187.000
39.50000 196.000
39.51500 197.000
39.53000 192.000
39.54500 187.000
39.56000 178.000
39.57500 187.000
39.59000 207.000
39.60500 204.000
39.62000 190.000
39.63500 199.000
39.65000 180.000
39.66500 177.000
39.68000 198.000
39.69500 181.000
39.71000 204.000
39.72500 207.000
39.74000 211.000
39.75500 194.000
39.77000 186.000
39.78500 200.000
39.80000 192.000
39.81500 196.000
39.83000 180.000
39.84500 179.000
39.86000 194.000
39.87500 176.000
39.89000 189.000
39.90500 180.000
39.92000 172.000
39.93500 185.000
39.95000 171.000
39.96500 182.000
39.98000 178.000
39.99500 210.000
40.01000 204.000
40.02500 190.000
40.04000 191.000
40.05500 172.000
40.07000 174.000
40.08500 191.000
40.10000 189.000
40.11500 188.000
40.13000 187.000
40.14500 200.000
40.16000 191.000
40.17500 174.000
40.19000 177.000
40.20500 165.000
40.22000 178.000
40.23500 183.000
40.25000 188.000
40.26500 196.000
40.28000 173.000
40.29500 173.000
40.31000 173.000
40.32500 175.000
40.34000 186.000
40.35500 190.000
40.37000 177.000
40.38500 175.000
40.40000 184.000
40.41500 207.000
40.43000 198.000
40.44500 189.000
40.46000 174.000
40.47500 153.000
40.49000 158.000
40.50500 193.000
40.52000 170.000
40.53500 176.000
40.55000 208.000
40.56500 200.000
40.58000 190.000
40.59500 182.000
40.61000 186.000
40.62500 203.000
40.64000 172.000
40.65500 166.000
40.67000 192.000
40.68500 193.000
40.70000 196.000
40.71500 201.000
40.73000 192.000
40.74500 195.000
40.76000 197.000
40.77500 207.000
40.79000 216.000
40.80500 210.000
40.82000 193.000
40.83500 192.000
40.85000 198.000
40.86500 216.000
40.88000 210.000
40.89500 206.000
40.91000 208.000
40.92500 203.000
40.94000 201.000
40.95500 214.000
40.97000 208.000
40.98500 215.000
41.00000 203.000
41.01500 262.000
41.03000 245.000
41.04500 250.000
41.06000 244.000
41.07500 249.000
41.09000 247.000
41.10500 265.000
41.12000 257.000
41.13500 273.000
41.15000 284.000
41.16500 285.000
41.18000 329.000
41.19500 329.000
41.21000 327.000
41.22500 344.000
41.24000 348.000
41.25500 392.000
41.27000 384.000
41.28500 390.000
41.30000 380.000
41.31500 388.000
41.33000 440.000
41.34500 400.000
41.36000 364.000
41.37500 375.000
41.39000 378.000
41.40500 362.000
41.42000 339.000
41.43500 358.000
41.45000 327.000
41.46500 304.000
41.48000 284.000
41.49500 280.000
41.51000 268.000
41.52500 291.000
41.54000 256.000
41.55500 256.000
41.57000 245.000
41.58500 237.000
41.60000 205.000
41.61500 222.000
41.63000 224.000
41.64500 210.000
41.66000 204.000
41.67500 211.000
41.69000 217.000
41.70500 208.000
41.72000 212.000
41.73500 200.000
41.75000 194.000
41.76500 206.000
41.78000 199.000
41.79500 193.000
41.81000 185.000
41.82500 193.000
41.84000 207.000
41.85500 212.000
41.87000 207.000
41.88500 228.000
41.90000 214.000
41.91500 188.000
41.93000 207.000
41.94500 198.000
41.96000 196.000
41.97500 190.000
41.99000 176.000
42.00500 171.000
42.02000 180.000
42.03500 195.000
42.05000 184.000
42.06500 184.000
42.08000 186.000
42.09500 181.000
42.11000 181.000
42.12500 202.000
42.14000 183.000
42.15500 184.000
42.17000 204.000
42.18500 199.000
42.20000 193.000
42.21500 184.000
42.23000 177.000
42.24500 201.000
42.26000 190.000
42.27500 185.000
42.29000 168.000
42.30500 196.000
42.32000 175.000
42.33500 191.000
42.35000 187.000
42.36500 196.000
42.38000 178.000
42.39500 194.000
42.41000 196.000
42.42500 192.000
42.44000 177.000
42.45500 199.000
42.47000 212.000
42.48500 204.000
42.50000 200.000
42.51500 194.000
42.53000 220.000
42.54500 229.000
42.56000 194.000
42.57500 223.000
42.59000 219.000
42.60500 183.000
42.62000 219.000
42.63500 234.000
42.65000 188.000
42.66500 224.000
42.68000 208.000
42.69500 183.000
42.71000 167.000
42.72500 181.000
42.74000 199.000
42.75500 196.000
42.77000 185.000
42.78500 179.000
42.80000 204.000
42.81500 194.000
42.83000 189.000
42.84500 206.000
42.86000 209.000
42.87500 204.000
42.89000 192.000
42.90500 188.000
42.92000 192.000
42.93500 203.000
42.95000 213.000
42.96500 185.000
42.98000 179.000
42.99500 181.000
43.01000 182.000
43.02500 200.000
43.04000 177.000
43.05500 174.000
43.07000 187.000
43.08500 183.000
43.10000 193.000
43.11500 183.000
43.13000 192.000
43.14500 185.000
43.16000 193.000
43.17500 172.000
43.19000 184.000
43.20500 179.000
43.22000 185.000
43.23500 176.000
43.25000 168.000
43.26500 192.000
43.28000 216.000
43.29500 208.000
43.31000 201.000
43.32500 182.000
43.34000 185.000
43.35500 177.000
43.37000 194.000
43.38500 210.000
43.40000 195.000
43.41500 173.000
43.43000 198.000
43.44500 202.000
43.46000 185.000
43.47500 196.000
43.49000 176.000
43.50500 200.000
43.52000 198.000
43.53500 193.000
43.55000 181.000
43.56500 200.000
43.58000 194.000
43.59500 197.000
43.61000 198.000
43.62500 178.000
43.64000 178.000
43.65500 182.000
43.67000 195.000
43.68500 188.000
43.70000 208.000
43.71500 213.000
43.73000 218.000
43.74500 225.000
43.76000 197.000
43.77500 197.000
43.79000 191.000
43.80500 220.000
43.82000 201.000
43.83500 179.000
43.85000 173.000
43.86500 198.000
43.88000 197.000
43.89500 180.000
43.91000 195.000
43.92500 217.000
43.94000 200.000
43.95500 200.000
43.97000 206.000
43.98500 200.000
44.00000 223.000
44.01500 216.000
44.03000 190.000
44.04500 206.000
44.06000 227.000
44.07500 215.000
44.09000 203.000
44.10500 208.000
44.12000 218.000
44.13500 200.000
44.15000 200.000
44.16500 208.000
44.18000 212.000
44.19500 231.000
44.21000 214.000
44.22500 218.000
44.24000 243.000
44.25500 246.000
44.27000 290.000
44.28500 285.000
44.30000 310.000
44.31500 351.000
44.33000 374.000
44.34500 436.000
44.36000 510.000
44.37500 607.000
44.39000 754.000
44.40500 794.000
44.42000 902.000
44.43500 929.000
44.45000 839.000
44.46500 744.000
44.48000 609.000
44.49500 532.000
44.51000 495.000
44.52500 453.000
44.54000 395.000
44.55500 388.000
44.57000 379.000
44.58500 358.000
44.60000 344.000
44.61500 345.000
44.63000 337.000
44.64500 326.000
44.66000 309.000
44.67500 327.000
44.69000 316.000
44.70500 314.000
44.72000 337.000
44.73500 311.000
44.75000 289.000
44.76500 309.000
44.78000 308.000
44.79500 310.000
44.81000 321.000
44.82500 319.000
44.84000 306.000
44.85500 321.000
44.87000 337.000
44.88500 330.000
44.90000 365.000
44.91500 377.000
44.93000 373.000
44.94500 389.000
44.96000 382.000
44.97500 383.000
44.99000 425.000
45.00500 423.000
45.02000 369.000
45.03500 395.000
45.05000 391.000
45.06500 386.000
45.08000 383.000
45.09500 359.000
45.11000 319.000
45.12500 341.000
45.14000 310.000
45.15500 315.000
45.17000 310.000
45.18500 277.000
45.20000 252.000
45.21500 268.000
45.23000 267.000
45.24500 258.000
45.26000 280.000
45.27500 268.000
45.29000 266.000
45.30500 213.000
45.32000 211.000
45.33500 215.000
45.35000 209.000
45.36500 219.000
45.38000 201.000
45.39500 200.000
45.41000 195.000
45.42500 202.000
45.44000 222.000
45.45500 204.000
45.47000 188.000
45.48500 204.000
45.50000 185.000
45.51500 197.000
45.53000 218.000
45.54500 195.000
45.56000 182.000
45.57500 199.000
45.59000 180.000
45.60500 198.000
45.62000 204.000
45.63500 191.000
45.65000 184.000
45.66500 180.000
45.68000 178.000
45.69500 211.000
45.71000 189.000
45.72500 169.000
45.74000 174.000
45.75500 165.000
45.77000 183.000
45.78500 185.000
45.80000 175.000
45.81500 191.000
45.83000 174.000
45.84500 191.000
45.86000 179.000
45.87500 172.000
45.89000 174.000
45.90500 193.000
45.92000 187.000
45.93500 197.000
45.95000 184.000
45.96500 172.000
45.98000 188.000
45.99500 174.000
46.01000 172.000
46.02500 194.000
46.04000 178.000
46.05500 180.000
46.07000 194.000
46.08500 202.000
46.10000 192.000
46.11500 206.000
46.13000 207.000
46.14500 202.000
46.16000 215.000
46.17500 183.000
46.19000 181.000
46.20500 216.000
46.22000 207.000
46.23500 209.000
46.25000 239.000
46.26500 263.000
46.28000 249.000
46.29500 258.000
46.31000 260.000
46.32500 265.000
46.34000 272.000
46.35500 257.000
46.37000 265.000
46.38500 239.000
46.40000 267.000
46.41500 229.000
46.43000 229.000
46.44500 252.000
46.46000 206.000
46.47500 192.000
46.49000 217.000
46.50500 202.000
46.52000 182.000
46.53500 201.000
46.55000 203.000
46.56500 191.000
46.58000 180.000
46.59500 163.000
46.61000 191.000
46.62500 185.000
46.64000 174.000
46.65500 181.000
46.67000 169.000
46.68500 181.000
46.70000 189.000
46.71500 174.000
46.73000 178.000
46.74500 171.000
46.76000 182.000
46.77500 179.000
46.79000 174.000
46.80500 198.000
46.82000 173.000
46.83500 185.000
46.85000 170.000
46.86500 164.000
46.88000 171.000
46.89500 181.000
46.91000 174.000
46.92500 163.000
46.94000 172.000
46.95500 155.000
46.97000 168.000
46.98500 167.000
47.00000 145.000
47.01500 166.000
47.03000 182.000
47.04500 166.000
47.06000 180.000
47.07500 155.000
47.09000 158.000
47.10500 170.000
47.12000 185.000
47.13500 176.000
47.15000 170.000
47.16500 161.000
47.18000 164.000
47.19500 161.000
47.21000 154.000
47.22500 169.000
47.24000 166.000
47.25500 174.000
47.27000 151.000
47.28500 159.000
47.30000 182.000
47.31500 169.000
47.33000 173.000
47.34500 155.000
47.36000 177.000
47.37500 159.000
47.39000 182.000
47.40500 166.000
47.42000 150.000
47.43500 168.000
47.45000 170.000
47.46500 169.000
47.48000 166.000
47.49500 172.000
47.51000 169.000
47.52500 166.000
47.54000 166.000
47.55500 165.000
47.57000 170.000
47.58500 158.000
47.60000 172.000
47.61500 185.000
47.63000 180.000
47.64500 181.000
47.66000 163.000
47.67500 143.000
47.69000 160.000
47.70500 166.000
47.72000 159.000
47.73500 161.000
47.75000 143.000
47.76500 156.000
47.78000 146.000
47.79500 144.000
47.81000 155.000
47.82500 162.000
47.84000 163.000
47.85500 150.000
47.87000 148.000
47.88500 174.000
47.90000 171.000
47.91500 175.000
47.93000 165.000
47.94500 171.000
47.96000 183.000
47.97500 177.000
47.99000 156.000
48.00500 163.000
48.02000 144.000
48.03500 147.000
48.05000 154.000
48.06500 150.000
48.08000 149.000
48.09500 146.000
48.11000 173.000
48.12500 169.000
48.14000 160.000
48.15500 170.000
48.17000 182.000
48.18500 172.000
48.20000 184.000
48.21500 166.000
48.23000 153.000
48.24500 170.000
48.26000 155.000
48.27500 173.000
48.29000 169.000
48.30500 154.000
48.32000 186.000
48.33500 179.000
48.35000 171.000
48.36500 151.000
48.38000 153.000
48.39500 167.000
48.41000 156.000
48.42500 166.000
48.44000 162.000
48.45500 161.000
48.47000 159.000
48.48500 177.000
48.50000 156.000
48.51500 171.000
48.53000 156.000
48.54500 176.000
48.56000 165.000
48.57500 161.000
48.59000 162.000
48.60500 178.000
48.62000 162.000
48.63500 174.000
48.65000 164.000
48.66500 154.000
48.68000 160.000
48.69500 153.000
48.71000 154.000
48.72500 175.000
48.74000 175.000
48.75500 172.000
48.77000 177.000
48.78500 192.000
48.80000 177.000
48.81500 166.000
48.83000 155.000
48.84500 142.000
48.86000 148.000
48.87500 163.000
48.89000 178.000
48.90500 153.000
48.92000 154.000
48.93500 154.000
48.95000 146.000
48.96500 159.000
48.98000 177.000
48.99500 163.000
49.01000 169.000
49.02500 192.000
49.04000 152.000
49.05500 184.000
49.07000 188.000
49.08500 190.000
49.10000 163.000
49.11500 166.000
49.13000 192.000
49.14500 185.000
49.16000 177.000
49.17500 177.000
49.19000 174.000
49.20500 170.000
49.22000 168.000
49.23500 175.000
49.25000 171.000
49.26500 161.000
49.28000 188.000
49.29500 160.000
49.31000 177.000
49.32500 185.000
49.34000 181.000
49.35500 176.000
49.37000 164.000
49.38500 191.000
49.40000 189.000
49.41500 185.000
49.43000 190.000
49.44500 200.000
49.46000 212.000
49.47500 213.000
49.49000 243.000
49.50500 244.000
49.52000 270.000
49.53500 324.000
49.55000 320.000
49.56500 343.000
49.58000 368.000
49.59500 439.000
49.61000 408.000
49.62500 412.000
49.64000 356.000
49.65500 314.000
49.67000 293.000
49.68500 247.000
49.70000 233.000
49.71500 253.000
49.73000 263.000
49.74500 246.000
49.76000 248.000
49.77500 241.000
49.79000 237.000
49.80500 264.000
49.82000 243.000
49.83500 279.000
49.85000 284.000
49.86500 277.000
49.88000 261.000
49.89500 302.000
49.91000 298.000
49.92500 321.000
49.94000 344.000
49.95500 365.000
49.97000 393.000
49.98500 386.000
50.00000 421.000
50.01500 475.000
50.03000 458.000
50.04500 454.000
50.06000 492.000
50.07500 554.000
50.09000 510.000
50.10500 505.000
50.12000 515.000
50.13500 553.000
50.15000 557.000
50.16500 524.000
50.18000 518.000
50.19500 524.000
50.21000 480.000
50.22500 462.000
50.24000 457.000
50.25500 416.000
50.27000 402.000
50.28500 354.000
50.30000 341.000
50.31500 342.000
50.33000 346.000
50.34500 349.000
50.36000 306.000
50.37500 288.000
50.39000 310.000
50.40500 273.000
50.42000 260.000
50.43500 268.000
50.45000 253.000
50.46500 248.000
50.48000 233.000
50.49500 223.000
50.51000 244.000
50.52500 231.000
50.54000 241.000
50.55500 237.000
50.57000 231.000
50.58500 217.000
50.60000 215.000
50.61500 203.000
50.63000 204.000
50.64500 183.000
50.66000 207.000
50.67500 204.000
50.69000 195.000
50.70500 180.000
50.72000 188.000
50.73500 201.000
50.75000 189.000
50.76500 185.000
50.78000 189.000
50.79500 192.000
50.81000 192.000
50.82500 195.000
50.84000 203.000
50.85500 196.000
50.87000 211.000
50.88500 189.000
50.90000 192.000
50.91500 186.000
50.93000 178.000
50.94500 176.000
50.96000 204.000
50.97500 201.000
50.99000 191.000
51.00500 186.000
51.02000 199.000
51.03500 186.000
51.05000 172.000
51.06500 175.000
51.08000 170.000
51.09500 190.000
51.11000 196.000
51.12500 191.000
51.14000 201.000
51.15500 177.000
51.17000 177.000
51.18500 192.000
51.20000 182.000
51.21500 172.000
51.23000 195.000
51.24500 196.000
51.26000 190.000
51.27500 209.000
51.29000 198.000
51.30500 185.000
51.32000 190.000
51.33500 194.000
51.35000 205.000
51.36500 201.000
51.38000 203.000
51.39500 191.000
51.41000 205.000
51.42500 196.000
51.44000 199.000
51.45500 225.000
51.47000 204.000
51.48500 216.000
51.50000 215.000
51.51500 256.000
51.53000 277.000
51.54500 279.000
51.56000 283.000
51.57500 280.000
51.59000 305.000
51.60500 315.000
51.62000 346.000
51.63500 376.000
51.65000 379.000
51.66500 381.000
51.68000 417.000
51.69500 410.000
51.71000 414.000
51.72500 442.000
51.74000 433.000
51.75500 413.000
51.77000 409.000
51.78500 400.000
51.80000 392.000
51.81500 367.000
51.83000 383.000
51.84500 326.000
51.86000 341.000
51.87500 308.000
51.89000 292.000
51.90500 276.000
51.92000 247.000
51.93500 251.000
51.95000 249.000
51.96500 258.000
51.98000 239.000
51.99500 235.000
52.01000 248.000
52.02500 207.000
52.04000 209.000
52.05500 198.000
52.07000 195.000
52.08500 216.000
52.10000 197.000
52.11500 194.000
52.13000 180.000
52.14500 183.000
52.16000 189.000
52.17500 201.000
52.19000 188.000
52.20500 180.000
52.22000 200.000
52.23500 188.000
52.25000 169.000
52.26500 165.000
52.28000 181.000
52.29500 176.000
52.31000 184.000
52.32500 152.000
52.34000 170.000
52.35500 184.000
52.37000 183.000
52.38500 185.000
52.40000 174.000
52.41500 163.000
52.43000 187.000
52.44500 175.000
52.46000 166.000
52.47500 162.000
52.49000 188.000
52.50500 165.000
52.52000 165.000
52.53500 179.000
52.55000 176.000
52.56500 169.000
52.58000 154.000
52.59500 166.000
52.61000 168.000
52.62500 168.000
52.64000 154.000
52.65500 170.000
52.67000 149.000
52.68500 144.000
52.70000 159.000
52.71500 167.000
52.73000 165.000
52.74500 136.000
52.76000 175.000
52.77500 151.000
52.79000 159.000
52.80500 178.000
52.82000 192.000
52.83500 168.000
52.85000 174.000
52.86500 168.000
52.88000 149.000
52.89500 156.000
52.91000 157.000
52.92500 167.000
52.94000 150.000
52.95500 165.000
52.97000 170.000
52.98500 158.000
53.00000 181.000
53.01500 159.000
53.03000 168.000
53.04500 180.000
53.06000 183.000
53.07500 172.000
53.09000 165.000
53.10500 152.000
53.12000 162.000
53.13500 173.000
53.15000 181.000
53.16500 179.000
53.18000 184.000
53.19500 182.000
53.21000 169.000
53.22500 175.000
53.24000 186.000
53.25500 184.000
53.27000 186.000
53.28500 172.000
53.30000 166.000
53.31500 166.000
53.33000 160.000
53.34500 161.000
53.36000 171.000
53.37500 186.000
53.39000 179.000
53.40500 177.000
53.42000 174.000
53.43500 160.000
53.45000 177.000
53.46500 172.000
53.48000 148.000
53.49500 161.000
53.51000 182.000
53.52500 163.000
53.54000 161.000
53.55500 160.000
53.57000 153.000
53.58500 176.000
53.60000 173.000
53.61500 167.000
53.63000 157.000
53.64500 164.000
53.66000 179.000
53.67500 167.000
53.69000 168.000
53.70500 154.000
53.72000 149.000
53.73500 166.000
53.75000 159.000
53.76500 162.000
53.78000 178.000
53.79500 182.000
53.81000 181.000
53.82500 175.000
53.84000 163.000
53.85500 155.000
53.87000 158.000
53.88500 158.000
53.90000 157.000
53.91500 151.000
53.93000 152.000
53.94500 155.000
53.96000 162.000
53.97500 156.000
53.99000 161.000
54.00500 154.000
54.02000 154.000
54.03500 153.000
54.05000 175.000
54.06500 179.000
54.08000 169.000
54.09500 164.000
54.11000 179.000
54.12500 195.000
54.14000 194.000
54.15500 188.000
54.17000 172.000
54.18500 184.000
54.20000 199.000
54.21500 211.000
54.23000 222.000
54.24500 219.000
54.26000 248.000
54.27500 265.000
54.29000 311.000
54.30500 343.000
54.32000 383.000
54.33500 443.000
54.35000 527.000
54.36500 533.000
54.38000 571.000
54.39500 593.000
54.41000 585.000
54.42500 534.000
54.44000 507.000
54.45500 435.000
54.47000 348.000
54.48500 314.000
54.50000 262.000
54.51500 218.000
54.53000 209.000
54.54500 194.000
54.56000 194.000
54.57500 175.000
54.59000 178.000
54.60500 180.000
54.62000 183.000
54.63500 160.000
54.65000 194.000
54.66500 161.000
54.68000 151.000
54.69500 139.000
54.71000 176.000
54.72500 170.000
54.74000 168.000
54.75500 173.000
54.77000 168.000
54.78500 169.000
54.80000 169.000
54.81500 182.000
54.83000 179.000
54.84500 170.000
54.86000 185.000
54.87500 162.000
54.89000 155.000
54.90500 159.000
54.92000 159.000
54.93500 172.000
54.95000 154.000
54.96500 171.000
54.98000 174.000
54.99500 145.000
55.01000 153.000
55.02500 131.000
55.04000 150.000
55.05500 162.000
55.07000 174.000
55.08500 144.000
55.10000 155.000
55.11500 163.000
55.13000 161.000
55.14500 158.000
55.16000 168.000
55.17500 163.000
55.19000 176.000
55.20500 177.000
55.22000 166.000
55.23500 180.000
55.25000 183.000
55.26500 162.000
55.28000 155.000
55.29500 190.000
55.31000 158.000
55.32500 166.000
55.34000 149.000
55.35500 165.000
55.37000 149.000
55.38500 146.000
55.40000 157.000
55.41500 149.000
55.43000 158.000
55.44500 153.000
55.46000 151.000
55.47500 160.000
55.49000 169.000
55.50500 162.000
55.52000 155.000
55.53500 156.000
55.55000 176.000
55.56500 154.000
55.58000 154.000
55.59500 164.000
55.61000 182.000
55.62500 181.000
55.64000 164.000
55.65500 160.000
55.67000 186.000
55.68500 164.000
55.70000 188.000
55.71500 182.000
55.73000 178.000
55.74500 155.000
55.76000 149.000
55.77500 169.000
55.79000 164.000
55.80500 172.000
55.82000 178.000
55.83500 184.000
55.85000 184.000
55.86500 193.000
55.88000 179.000
55.89500 195.000
55.91000 187.000
55.92500 174.000
55.94000 177.000
55.95500 204.000
55.97000 186.000
55.98500 196.000
56.00000 171.000
56.01500 181.000
56.03000 168.000
56.04500 191.000
56.06000 187.000
56.07500 207.000
56.09000 199.000
56.10500 203.000
56.12000 209.000
56.13500 195.000
56.15000 213.000
56.16500 226.000
56.18000 215.000
56.19500 227.000
56.21000 245.000
56.22500 228.000
56.24000 222.000
56.25500 251.000
56.27000 240.000
56.28500 246.000
56.30000 251.000
56.31500 278.000
56.33000 262.000
56.34500 261.000
56.36000 274.000
56.37500 285.000
56.39000 265.000
56.40500 259.000
56.42000 267.000
56.43500 265.000
56.45000 256.000
56.46500 260.000
56.48000 251.000
56.49500 255.000
56.51000 235.000
56.52500 238.000
56.54000 240.000
56.55500 250.000
56.57000 237.000
56.58500 220.000
56.60000 208.000
56.61500 224.000
56.63000 196.000
56.64500 208.000
56.66000 200.000
56.67500 187.000
56.69000 194.000
56.70500 193.000
56.72000 198.000
56.73500 188.000
56.75000 191.000
56.76500 203.000
56.78000 188.000
56.79500 178.000
56.81000 170.000
56.82500 173.000
56.84000 176.000
56.85500 174.000
56.87000 178.000
56.88500 190.000
56.90000 169.000
56.91500 183.000
56.93000 170.000
56.94500 160.000
56.96000 156.000
56.97500 167.000
56.99000 188.000
57.00500 173.000
57.02000 168.000
57.03500 165.000
57.05000 159.000
57.06500 174.000
57.08000 165.000
57.09500 165.000
57.11000 181.000
57.12500 181.000
57.14000 159.000
57.15500 174.000
57.17000 187.000
57.18500 142.000
57.20000 166.000
57.21500 174.000
57.23000 182.000
57.24500 169.000
57.26000 178.000
57.27500 177.000
57.29000 166.000
57.30500 184.000
57.32000 197.000
57.33500 200.000
57.35000 205.000
57.36500 204.000
57.38000 243.000
57.39500 249.000
57.41000 260.000
57.42500 258.000
57.44000 289.000
57.45500 278.000
57.47000 301.000
57.48500 265.000
57.50000 237.000
57.51500 235.000
57.53000 210.000
57.54500 191.000
57.56000 190.000
57.57500 199.000
57.59000 173.000
57.60500 199.000
57.62000 166.000
57.63500 179.000
57.65000 175.000
57.66500 170.000
57.68000 185.000
57.69500 166.000
57.71000 192.000
57.72500 185.000
57.74000 187.000
57.75500 202.000
57.77000 185.000
57.78500 195.000
57.80000 209.000
57.81500 190.000
57.83000 187.000
57.84500 178.000
57.86000 202.000
57.87500 201.000
57.89000 200.000
57.90500 201.000
57.92000 195.000
57.93500 210.000
57.95000 212.000
57.96500 193.000
57.98000 199.000
57.99500 192.000
58.01000 197.000
58.02500 193.000
58.04000 187.000
58.05500 195.000
58.07000 183.000
58.08500 167.000
58.10000 176.000
58.11500 169.000
58.13000 182.000
58.14500 171.000
58.16000 158.000
58.17500 170.000
58.19000 155.000
58.20500 172.000
58.22000 170.000
58.23500 176.000
58.25000 172.000
58.26500 172.000
58.28000 168.000
58.29500 171.000
58.31000 163.000
58.32500 165.000
58.34000 170.000
58.35500 167.000
58.37000 165.000
58.38500 157.000
58.40000 163.000
58.41500 162.000
58.43000 154.000
58.44500 152.000
58.46000 161.000
58.47500 147.000
58.49000 166.000
58.50500 154.000
58.52000 172.000
58.53500 175.000
58.55000 157.000
58.56500 151.000
58.58000 161.000
58.59500 168.000
58.61000 187.000
58.62500 165.000
58.64000 171.000
58.65500 167.000
58.67000 157.000
58.68500 152.000
58.70000 150.000
58.71500 163.000
58.73000 161.000
58.74500 146.000
58.76000 170.000
58.77500 170.000
58.79000 145.000
58.80500 147.000
58.82000 153.000
58.83500 156.000
58.85000 155.000
58.86500 155.000
58.88000 157.000
58.89500 151.000
58.91000 157.000
58.92500 180.000
58.94000 169.000
58.95500 144.000
58.97000 145.000
58.98500 152.000
59.00000 153.000
59.01500 161.000
59.03000 173.000
59.04500 136.000
59.06000 157.000
59.07500 159.000
59.09000 153.000
59.10500 153.000
59.12000 149.000
59.13500 145.000
59.15000 157.000
59.16500 151.000
59.18000 155.000
59.19500 151.000
59.21000 151.000
59.22500 159.000
59.24000 162.000
59.25500 157.000
59.27000 152.000
59.28500 140.000
59.30000 132.000
59.31500 153.000
59.33000 154.000
59.34500 156.000
59.36000 146.000
59.37500 146.000
59.39000 128.000
59.40500 149.000
59.42000 166.000
59.43500 143.000
59.45000 151.000
59.46500 153.000
59.48000 146.000
59.49500 133.000
59.51000 133.000
59.52500 161.000
59.54000 176.000
59.55500 158.000
59.57000 140.000
59.58500 143.000
59.60000 146.000
59.61500 148.000
59.63000 148.000
59.64500 141.000
59.66000 154.000
59.67500 161.000
59.69000 156.000
59.70500 157.000
59.72000 156.000
59.73500 156.000
59.75000 146.000
59.76500 142.000
59.78000 145.000
59.79500 150.000
59.81000 155.000
59.82500 152.000
59.84000 153.000
59.85500 143.000
59.87000 149.000
59.88500 151.000
59.90000 171.000
59.91500 167.000
59.93000 149.000
59.94500 153.000
59.96000 159.000
59.97500 165.000
59.99000 151.000
60.00500 144.000
60.02000 135.000
60.03500 147.000
60.05000 182.000
60.06500 153.000
60.08000 147.000
60.09500 146.000
60.11000 137.000
60.12500 142.000
60.14000 141.000
60.15500 151.000
60.17000 151.000
60.18500 146.000
60.20000 145.000
60.21500 148.000
60.23000 169.000
60.24500 156.000
60.26000 150.000
60.27500 152.000
60.29000 161.000
60.30500 152.000
60.32000 153.000
60.33500 147.000
60.35000 149.000
60.36500 153.000
60.38000 155.000
60.39500 143.000
60.41000 137.000
60.42500 133.000
60.44000 140.000
60.45500 158.000
60.47000 155.000
60.48500 136.000
60.50000 153.000
60.51500 159.000
60.53000 152.000
60.54500 156.000
60.56000 145.000
60.57500 155.000
60.59000 164.000
60.60500 156.000
60.62000 148.000
60.63500 165.000
60.65000 163.000
60.66500 169.000
60.68000 167.000
60.69500 164.000
60.71000 162.000
60.72500 166.000
60.74000 147.000
60.75500 147.000
60.77000 158.000
60.78500 174.000
60.80000 185.000
60.81500 170.000
60.83000 185.000
60.84500 167.000
60.86000 170.000
60.87500 168.000
60.89000 156.000
60.90500 162.000
60.92000 163.000
60.93500 171.000
60.95000 145.000
60.96500 166.000
60.98000 164.000
60.99500 171.000
61.01000 162.000
61.02500 157.000
61.04000 159.000
61.05500 152.000
61.07000 142.000
61.08500 162.000
61.10000 160.000
61.11500 152.000
61.13000 143.000
61.14500 160.000
61.16000 173.000
61.17500 160.000
61.19000 160.000
61.20500 147.000
61.22000 166.000
61.23500 155.000
61.25000 142.000
61.26500 137.000
61.28000 157.000
61.29500 164.000
61.31000 153.000
61.32500 155.000
61.34000 152.000
61.35500 144.000
61.37000 150.000
61.38500 159.000
61.40000 132.000
61.41500 148.000
61.43000 136.000
61.44500 141.000
61.46000 140.000
61.47500 138.000
61.49000 161.000
61.50500 167.000
61.52000 159.000
61.53500 140.000
61.55000 148.000
61.56500 155.000
61.58000 141.000
61.59500 145.000
61.61000 148.000
61.62500 168.000
61.64000 159.000
61.65500 151.000
61.67000 148.000
61.68500 164.000
61.70000 167.000
61.71500 152.000
61.73000 152.000
61.74500 155.000
61.76000 178.000
61.77500 175.000
61.79000 157.000
61.80500 149.000
61.82000 161.000
61.83500 154.000
61.85000 176.000
61.86500 164.000
61.88000 172.000
61.89500 169.000
61.91000 162.000
61.92500 188.000
61.94000 174.000
61.95500 186.000
61.97000 182.000
61.98500 180.000
