2.00000 0.000
2.01500 1.000
2.03000 1.000
2.04500 1.000
2.06000 0.000
2.07500 1.000
2.09000 1.000
2.10500 1.000
2.12000 2.000
2.13500 2.000
2.15000 1.000
2.16500 1.000
2.18000 1.000
2.19500 1.000
2.21000 0.000
2.22500 1.000
2.24000 0.000
2.25500 0.000
2.27000 1.000
2.28500 0.000
2.30000 1.000
2.31500 1.000
2.33000 1.000
2.34500 1.000
2.36000 0.000
2.37500 1.000
2.39000 1.000
2.40500 1.000
2.42000 0.000
2.43500 0.000
2.45000 0.000
2.46500 0.000
2.48000 1.000
2.49500 0.000
2.51000 0.000
2.52500 0.000
2.54000 0.000
2.55500 0.000
2.57000 1.000
2.58500 1.000
2.60000 0.000
2.61500 0.000
2.63000 1.000
2.64500 1.000
2.66000 0.000
2.67500 0.000
2.69000 1.000
2.70500 2.000
2.72000 2.000
2.73500 0.000
2.75000 1.000
2.76500 0.000
2.78000 0.000
2.79500 0.000
2.81000 1.000
2.82500 0.000
2.84000 0.000
2.85500 0.000
2.87000 0.000
2.88500 1.000
2.90000 0.000
2.91500 0.000
2.93000 0.000
2.94500 0.000
2.96000 0.000
2.97500 0.000
2.99000 1.000
3.00500 0.000
3.02000 0.000
3.03500 0.000
3.05000 1.000
3.06500 0.000
3.08000 0.000
3.09500 0.000
3.11000 0.000
3.12500 0.000
3.14000 3.000
3.15500 2.000
3.17000 5.000
3.18500 8.000
3.20000 13.000
3.21500 10.000
3.23000 9.000
3.24500 21.000
3.26000 15.000
3.27500 13.000
3.29000 18.000
3.30500 17.000
3.32000 15.000
3.33500 16.000
3.35000 22.000
3.36500 17.000
3.38000 23.000
3.39500 14.000
3.41000 13.000
3.42500 18.000
3.44000 23.000
3.45500 19.000
3.47000 14.000
3.48500 24.000
3.50000 19.000
3.51500 16.000
3.53000 18.000
3.54500 19.000
3.56000 22.000
3.57500 24.000
3.59000 18.000
3.60500 17.000
3.62000 22.000
3.63500 26.000
3.65000 24.000
3.66500 19.000
3.68000 18.000
3.69500 19.000
3.71000 17.000
3.72500 18.000
3.74000 16.000
3.75500 19.000
3.77000 24.000
3.78500 26.000
3.80000 24.000
3.81500 27.000
3.83000 20.000
3.84500 26.000
3.86000 32.000
3.87500 31.000
3.89000 30.000
3.90500 25.000
3.92000 20.000
3.93500 22.000
3.95000 27.000
3.96500 23.000
3.98000 21.000
3.99500 19.000
4.01000 25.000
4.02500 29.000
4.04000 27.000
4.05500 21.000
4.07000 24.000
4.08500 24.000
4.10000 26.000
4.11500 25.000
4.13000 21.000
4.14500 17.000
4.16000 19.000
4.17500 25.000
4.19000 29.000
4.20500 23.000
4.22000 28.000
4.23500 27.000
4.25000 23.000
4.26500 25.000
4.28000 17.000
4.29500 22.000
4.31000 18.000
4.32500 28.000
4.34000 26.000
4.35500 27.000
4.37000 31.000
4.38500 24.000
4.40000 27.000
4.41500 25.000
4.43000 29.000
4.44500 19.000
4.46000 31.000
4.47500 31.000
4.49000 28.000
4.50500 26.000
4.52000 31.000
4.53500 35.000
4.55000 31.000
4.56500 32.000
4.58000 29.000
4.59500 29.000
4.61000 32.000
4.62500 33.000
4.64000 31.000
4.65500 33.000
4.67000 33.000
4.68500 30.000
4.70000 33.000
4.71500 38.000
4.73000 31.000
4.74500 36.000
4.76000 32.000
4.77500 25.000
4.79000 28.000
4.80500 36.000
4.82000 32.000
4.83500 30.000
4.85000 26.000
4.86500 32.000
4.88000 25.000
4.89500 40.000
4.91000 33.000
4.92500 39.000
4.94000 28.000
4.95500 33.000
4.97000 40.000
4.98500 29.000
5.00000 29.000
5.01500 33.000
5.03000 25.000
5.04500 30.000
5.06000 40.000
5.07500 35.000
5.09000 37.000
5.10500 34.000
5.12000 36.000
5.13500 30.000
5.15000 33.000
5.16500 33.000
5.18000 28.000
5.19500 31.000
5.21000 32.000
5.22500 28.000
5.24000 36.000
5.25500 33.000
5.27000 29.000
5.28500 37.000
5.30000 31.000
5.31500 27.000
5.33000 31.000
5.34500 34.000
5.36000 37.000
5.37500 39.000
5.39000 41.000
5.40500 38.000
5.42000 38.000
5.43500 33.000
5.45000 34.000
5.46500 39.000
5.48000 36.000
5.49500 35.000
5.51000 33.000
5.52500 36.000
5.54000 38.000
5.55500 36.000
5.57000 28.000
5.58500 31.000
5.60000 35.000
5.61500 40.000
5.63000 39.000
5.64500 38.000
5.66000 37.000
5.67500 34.000
5.69000 37.000
5.70500 40.000
5.72000 48.000
5.73500 32.000
5.75000 30.000
5.76500 39.000
5.78000 31.000
5.79500 40.000
5.81000 47.000
5.82500 44.000
5.84000 41.000
5.85500 35.000
5.87000 43.000
5.88500 42.000
5.90000 41.000
5.91500 42.000
5.93000 43.000
5.94500 35.000
5.96000 54.000
5.97500 39.000
5.99000 46.000
6.00500 40.000
6.02000 33.000
6.03500 40.000
6.05000 35.000
6.06500 42.000
6.08000 37.000
6.09500 39.000
6.11000 40.000
6.12500 31.000
6.14000 32.000
6.15500 32.000
6.17000 30.000
6.18500 30.000
6.20000 25.000
6.21500 38.000
6.23000 31.000
6.24500 31.000
6.26000 29.000
6.27500 41.000
6.29000 35.000
6.30500 38.000
6.32000 35.000
6.33500 36.000
6.35000 29.000
6.36500 38.000
6.38000 40.000
6.39500 39.000
6.41000 40.000
6.42500 31.000
6.44000 37.000
6.45500 36.000
6.47000 37.000
6.48500 43.000
6.50000 35.000
6.51500 27.000
6.53000 40.000
6.54500 32.000
6.56000 35.000
6.57500 37.000
6.59000 44.000
6.60500 41.000
6.62000 40.000
6.63500 42.000
6.65000 45.000
6.66500 46.000
6.68000 41.000
6.69500 48.000
6.71000 43.000
6.72500 45.000
6.74000 43.000
6.75500 36.000
6.77000 40.000
6.78500 42.000
6.80000 36.000
6.81500 31.000
6.83000 35.000
6.84500 43.000
6.86000 36.000
6.87500 31.000
6.89000 37.000
6.90500 45.000
6.92000 42.000
6.93500 44.000
6.95000 39.000
6.96500 33.000
6.98000 40.000
6.99500 36.000
7.01000 32.000
7.02500 30.000
7.04000 28.000
7.05500 40.000
7.07000 38.000
7.08500 49.000
7.10000 32.000
7.11500 39.000
7.13000 33.000
7.14500 36.000
7.16000 46.000
7.17500 41.000
7.19000 43.000
7.20500 33.000
7.22000 33.000
7.23500 36.000
7.25000 40.000
7.26500 30.000
7.28000 32.000
7.29500 41.000
7.31000 44.000
7.32500 41.000
7.34000 49.000
7.35500 49.000
7.37000 42.000
7.38500 49.000
7.40000 50.000
7.41500 44.000
7.43000 41.000
7.44500 48.000
7.46000 44.000
7.47500 45.000
7.49000 47.000
7.50500 39.000
7.52000 42.000
7.53500 32.000
7.55000 31.000
7.56500 40.000
7.58000 45.000
7.59500 34.000
7.61000 34.000
7.62500 44.000
7.64000 45.000
7.65500 48.000
7.67000 51.000
7.68500 49.000
7.70000 55.000
7.71500 47.000
7.73000 36.000
7.74500 37.000
7.76000 47.000
7.77500 47.000
7.79000 43.000
7.80500 49.000
7.82000 42.000
7.83500 42.000
7.85000 49.000
7.86500 44.000
7.88000 43.000
7.89500 39.000
7.91000 43.000
7.92500 37.000
7.94000 43.000
7.95500 43.000
7.97000 31.000
7.98500 35.000
8.00000 48.000
8.01500 37.000
8.03000 45.000
8.04500 37.000
8.06000 44.000
8.07500 44.000
8.09000 37.000
8.10500 40.000
8.12000 37.000
8.13500 34.000
8.15000 41.000
8.16500 41.000
8.18000 41.000
8.19500 54.000
8.21000 45.000
8.22500 43.000
8.24000 41.000
8.25500 51.000
8.27000 48.000
8.28500 40.000
8.30000 39.000
8.31500 40.000
8.33000 41.000
8.34500 40.000
8.36000 40.000
8.37500 35.000
8.39000 34.000
8.40500 35.000
8.42000 41.000
8.43500 47.000
8.45000 45.000
8.46500 50.000
8.48000 48.000
8.49500 44.000
8.51000 39.000
8.52500 46.000
8.54000 48.000
8.55500 47.000
8.57000 41.000
8.58500 43.000
8.60000 43.000
8.61500 45.000
8.63000 55.000
8.64500 48.000
8.66000 40.000
8.67500 40.000
8.69000 40.000
8.70500 47.000
8.72000 43.000
8.73500 44.000
8.75000 41.000
8.76500 37.000
8.78000 39.000
8.79500 40.000
8.81000 49.000
8.82500 45.000
8.84000 44.000
8.85500 49.000
8.87000 33.000
8.88500 36.000
8.90000 29.000
8.91500 35.000
8.93000 35.000
8.94500 42.000
8.96000 40.000
8.97500 42.000
8.99000 45.000
9.00500 46.000
9.02000 46.000
9.03500 41.000
9.05000 38.000
9.06500 35.000
9.08000 38.000
9.09500 37.000
9.11000 43.000
9.12500 47.000
9.14000 44.000
9.15500 41.000
9.17000 37.000
9.18500 51.000
9.20000 45.000
9.21500 34.000
9.23000 43.000
9.24500 41.000
9.26000 42.000
9.27500 46.000
9.29000 47.000
9.30500 50.000
9.32000 38.000
9.33500 37.000
9.35000 34.000
9.36500 37.000
9.38000 45.000
9.39500 47.000
9.41000 41.000
9.42500 44.000
9.44000 51.000
9.45500 48.000
9.47000 40.000
9.48500 42.000
9.50000 45.000
9.51500 47.000
9.53000 42.000
9.54500 40.000
9.56000 44.000
9.57500 43.000
9.59000 44.000
9.60500 56.000
9.62000 47.000
9.63500 48.000
9.65000 44.000
9.66500 39.000
9.68000 53.000
9.69500 33.000
9.71000 37.000
9.72500 44.000
9.74000 50.000
9.75500 44.000
9.77000 41.000
9.78500 50.000
9.80000 50.000
9.81500 40.000
9.83000 53.000
9.84500 51.000
9.86000 49.000
9.87500 52.000
9.89000 45.000
9.90500 43.000
9.92000 54.000
9.93500 50.000
9.95000 39.000
9.96500 47.000
9.98000 48.000
9.99500 43.000
10.01000 44.000
10.02500 46.000
10.04000 38.000
10.05500 43.000
10.07000 47.000
10.08500 49.000
10.10000 46.000
10.11500 45.000
10.13000 42.000
10.14500 39.000
10.16000 36.000
10.17500 33.000
10.19000 43.000
10.20500 32.000
10.22000 40.000
10.23500 40.000
10.25000 45.000
10.26500 49.000
10.28000 34.000
10.29500 50.000
10.31000 42.000
10.32500 41.000
10.34000 51.000
10.35500 42.000
10.37000 44.000
10.38500 39.000
10.40000 40.000
10.41500 45.000
10.43000 52.000
10.44500 51.000
10.46000 44.000
10.47500 41.000
10.49000 45.000
10.50500 38.000
10.52000 52.000
10.53500 57.000
10.55000 50.000
10.56500 37.000
10.58000 44.000
10.59500 43.000
10.61000 51.000
10.62500 50.000
10.64000 46.000
10.65500 39.000
10.67000 44.000
10.68500 40.000
10.70000 41.000
10.71500 33.000
10.73000 47.000
10.74500 51.000
10.76000 51.000
10.77500 39.000
10.79000 53.000
10.80500 58.000
10.82000 46.000
10.83500 42.000
10.85000 53.000
10.86500 39.000
10.88000 39.000
10.89500 44.000
10.91000 50.000
10.92500 41.000
10.94000 38.000
10.95500 46.000
10.97000 43.000
10.98500 48.000
11.00000 47.000
11.01500 45.000
11.03000 44.000
11.04500 35.000
11.06000 43.000
11.07500 50.000
11.09000 41.000
11.10500 42.000
11.12000 54.000
11.13500 49.000
11.15000 50.000
11.16500 53.000
11.18000 55.000
11.19500 62.000
11.21000 49.000
11.22500 50.000
11.24000 55.000
11.25500 42.000
11.27000 44.000
11.28500 42.000
11.30000 57.000
11.31500 69.000
11.33000 58.000
11.34500 66.000
11.36000 79.000
11.37500 97.000
11.39000 114.000
11.40500 125.000
11.42000 155.000
11.43500 200.000
11.45000 247.000
11.46500 304.000
11.48000 284.000
11.49500 190.000
11.51000 107.000
11.52500 66.000
11.54000 60.000
11.55500 51.000
11.57000 48.000
11.58500 42.000
11.60000 54.000
11.61500 49.000
11.63000 54.000
11.64500 45.000
11.66000 50.000
11.67500 40.000
11.69000 46.000
11.70500 49.000
11.72000 46.000
11.73500 42.000
11.75000 45.000
11.76500 54.000
11.78000 58.000
11.79500 47.000
11.81000 46.000
11.82500 44.000
11.84000 46.000
11.85500 45.000
11.87000 49.000
11.88500 51.000
11.90000 45.000
11.91500 46.000
11.93000 56.000
11.94500 58.000
11.96000 55.000
11.97500 49.000
11.99000 52.000
12.00500 48.000
12.02000 35.000
12.03500 40.000
12.05000 41.000
12.06500 45.000
12.08000 39.000
12.09500 45.000
12.11000 49.000
12.12500 42.000
12.14000 42.000
12.15500 44.000
12.17000 45.000
12.18500 41.000
12.20000 47.000
12.21500 44.000
12.23000 51.000
12.24500 46.000
12.26000 47.000
12.27500 44.000
12.29000 48.000
12.30500 43.000
12.32000 43.000
12.33500 36.000
12.35000 44.000
12.36500 56.000
12.38000 47.000
12.39500 50.000
12.41000 39.000
12.42500 45.000
12.44000 47.000
12.45500 45.000
12.47000 54.000
12.48500 41.000
12.50000 45.000
12.51500 46.000
12.53000 49.000
12.54500 45.000
12.56000 44.000
12.57500 50.000
12.59000 50.000
12.60500 47.000
12.62000 53.000
12.63500 47.000
12.65000 54.000
12.66500 44.000
12.68000 50.000
12.69500 47.000
12.71000 40.000
12.72500 42.000
12.74000 37.000
12.75500 43.000
12.77000 48.000
12.78500 38.000
12.80000 54.000
12.81500 46.000
12.83000 44.000
12.84500 53.000
12.86000 57.000
12.87500 42.000
12.89000 48.000
12.90500 54.000
12.92000 44.000
12.93500 49.000
12.95000 44.000
12.96500 40.000
12.98000 45.000
12.99500 43.000
13.01000 47.000
13.02500 44.000
13.04000 42.000
13.05500 51.000
13.07000 47.000
13.08500 50.000
13.10000 47.000
13.11500 54.000
13.13000 49.000
13.14500 59.000
13.16000 46.000
13.17500 52.000
13.19000 55.000
13.20500 50.000
13.22000 47.000
13.23500 49.000
13.25000 50.000
13.26500 54.000
13.28000 42.000
13.29500 50.000
13.31000 35.000
13.32500 53.000
13.34000 57.000
13.35500 52.000
13.37000 48.000
13.38500 51.000
13.40000 46.000
13.41500 56.000
13.43000 57.000
13.44500 52.000
13.46000 53.000
13.47500 45.000
13.49000 55.000
13.50500 46.000
13.52000 38.000
13.53500 45.000
13.55000 43.000
13.56500 52.000
13.58000 50.000
13.59500 47.000
13.61000 44.000
13.62500 47.000
13.64000 47.000
13.65500 48.000
13.67000 55.000
13.68500 46.000
13.70000 35.000
13.71500 38.000
13.73000 53.000
13.74500 59.000
13.76000 39.000
13.77500 44.000
13.79000 54.000
13.80500 48.000
13.82000 41.000
13.83500 47.000
13.85000 55.000
13.86500 52.000
13.88000 56.000
13.89500 59.000
13.91000 49.000
13.92500 52.000
13.94000 39.000
13.95500 49.000
13.97000 46.000
13.98500 46.000
14.00000 50.000
14.01500 50.000
14.03000 45.000
14.04500 48.000
14.06000 42.000
14.07500 53.000
14.09000 55.000
14.10500 48.000
14.12000 57.000
14.13500 57.000
14.15000 47.000
14.16500 49.000
14.18000 57.000
14.19500 45.000
14.21000 50.000
14.22500 52.000
14.24000 49.000
14.25500 51.000
14.27000 44.000
14.28500 51.000
14.30000 54.000
14.31500 53.000
14.33000 45.000
14.34500 40.000
14.36000 41.000
14.37500 43.000
14.39000 53.000
14.40500 52.000
14.42000 47.000
14.43500 55.000
14.45000 43.000
14.46500 41.000
14.48000 43.000
14.49500 47.000
14.51000 47.000
14.52500 51.000
14.54000 44.000
14.55500 41.000
14.57000 52.000
14.58500 46.000
14.60000 39.000
14.61500 54.000
14.63000 44.000
14.64500 39.000
14.66000 40.000
14.67500 44.000
14.69000 36.000
14.70500 51.000
14.72000 50.000
14.73500 47.000
14.75000 41.000
14.76500 46.000
14.78000 52.000
14.79500 54.000
14.81000 51.000
14.82500 38.000
14.84000 49.000
14.85500 46.000
14.87000 47.000
14.88500 49.000
14.90000 46.000
14.91500 50.000
14.93000 51.000
14.94500 41.000
14.96000 45.000
14.97500 51.000
14.99000 45.000
15.00500 52.000
15.02000 40.000
15.03500 47.000
15.05000 52.000
15.06500 54.000
15.08000 49.000
15.09500 53.000
15.11000 51.000
15.12500 52.000
15.14000 51.000
15.15500 56.000
15.17000 63.000
15.18500 56.000
15.20000 65.000
15.21500 76.000
15.23000 78.000
15.24500 89.000
15.26000 104.000
15.27500 112.000
15.29000 148.000
15.30500 179.000
15.32000 228.000
15.33500 292.000
15.35000 414.000
15.36500 558.000
15.38000 742.000
15.39500 628.000
15.41000 345.000
15.42500 186.000
15.44000 102.000
15.45500 100.000
15.47000 101.000
15.48500 131.000
15.50000 151.000
15.51500 189.000
15.53000 266.000
15.54500 318.000
15.56000 260.000
15.57500 152.000
15.59000 93.000
15.60500 63.000
15.62000 51.000
15.63500 44.000
15.65000 41.000
15.66500 42.000
15.68000 48.000
15.69500 56.000
15.71000 47.000
15.72500 40.000
15.74000 43.000
15.75500 51.000
15.77000 57.000
15.78500 50.000
15.80000 54.000
15.81500 48.000
15.83000 38.000
15.84500 49.000
15.86000 53.000
15.87500 46.000
15.89000 50.000
15.90500 44.000
15.92000 51.000
15.93500 42.000
15.95000 48.000
15.96500 55.000
15.98000 43.000
15.99500 48.000
16.01000 37.000
16.02500 36.000
16.04000 42.000
16.05500 40.000
16.07000 48.000
16.08500 47.000
16.10000 47.000
16.11500 43.000
16.13000 44.000
16.14500 44.000
16.16000 48.000
16.17500 58.000
16.19000 53.000
16.20500 49.000
16.22000 48.000
16.23500 54.000
16.25000 51.000
16.26500 49.000
16.28000 47.000
16.29500 47.000
16.31000 46.000
16.32500 56.000
16.34000 49.000
16.35500 44.000
16.37000 46.000
16.38500 52.000
16.40000 46.000
16.41500 47.000
16.43000 50.000
16.44500 45.000
16.46000 32.000
16.47500 43.000
16.49000 37.000
16.50500 35.000
16.52000 42.000
16.53500 51.000
16.55000 38.000
16.56500 50.000
16.58000 54.000
16.59500 54.000
16.61000 51.000
16.62500 49.000
16.64000 55.000
16.65500 48.000
16.67000 46.000
16.68500 45.000
16.70000 45.000
16.71500 44.000
16.73000 45.000
16.74500 44.000
16.76000 55.000
16.77500 43.000
16.79000 34.000
16.80500 50.000
16.82000 49.000
16.83500 46.000
16.85000 48.000
16.86500 42.000
16.88000 49.000
16.89500 50.000
16.91000 49.000
16.92500 54.000
16.94000 45.000
16.95500 44.000
16.97000 50.000
16.98500 43.000
17.00000 41.000
17.01500 36.000
17.03000 48.000
17.04500 47.000
17.06000 44.000
17.07500 52.000
17.09000 42.000
17.10500 45.000
17.12000 45.000
17.13500 55.000
17.15000 50.000
17.16500 54.000
17.18000 54.000
17.19500 53.000
17.21000 44.000
17.22500 44.000
17.24000 55.000
17.25500 34.000
17.27000 40.000
17.28500 51.000
17.30000 42.000
17.31500 47.000
17.33000 40.000
17.34500 49.000
17.36000 49.000
17.37500 50.000
17.39000 40.000
17.40500 49.000
17.42000 48.000
17.43500 46.000
17.45000 48.000
17.46500 43.000
17.48000 38.000
17.49500 52.000
17.51000 54.000
17.52500 44.000
17.54000 46.000
17.55500 50.000
17.57000 57.000
17.58500 55.000
17.60000 49.000
17.61500 46.000
17.63000 44.000
17.64500 54.000
17.66000 49.000
17.67500 52.000
17.69000 46.000
17.70500 59.000
17.72000 46.000
17.73500 50.000
17.75000 50.000
17.76500 53.000
17.78000 45.000
17.79500 41.000
17.81000 51.000
17.82500 54.000
17.84000 50.000
17.85500 50.000
17.87000 48.000
17.88500 49.000
17.90000 49.000
17.91500 36.000
17.93000 43.000
17.94500 51.000
17.96000 43.000
17.97500 44.000
17.99000 50.000
18.00500 59.000
18.02000 55.000
18.03500 55.000
18.05000 47.000
18.06500 45.000
18.08000 54.000
18.09500 47.000
18.11000 44.000
18.12500 45.000
18.14000 45.000
18.15500 53.000
18.17000 50.000
18.18500 45.000
18.20000 48.000
18.21500 50.000
18.23000 44.000
18.24500 46.000
18.26000 44.000
18.27500 48.000
18.29000 54.000
18.30500 49.000
18.32000 63.000
18.33500 55.000
18.35000 66.000
18.36500 68.000
18.38000 92.000
18.39500 102.000
18.41000 126.000
18.42500 143.000
18.44000 124.000
18.45500 94.000
18.47000 64.000
18.48500 53.000
18.50000 58.000
18.51500 44.000
18.53000 51.000
18.54500 49.000
18.56000 57.000
18.57500 55.000
18.59000 49.000
18.60500 51.000
18.62000 53.000
18.63500 54.000
18.65000 55.000
18.66500 55.000
18.68000 46.000
18.69500 48.000
18.71000 48.000
18.72500 51.000
18.74000 49.000
18.75500 54.000
18.77000 48.000
18.78500 53.000
18.80000 60.000
18.81500 44.000
18.83000 52.000
18.84500 50.000
18.86000 39.000
18.87500 50.000
18.89000 57.000
18.90500 55.000
18.92000 50.000
18.93500 63.000
18.95000 50.000
18.96500 45.000
18.98000 54.000
18.99500 56.000
19.01000 53.000
19.02500 53.000
19.04000 56.000
19.05500 51.000
19.07000 49.000
19.08500 55.000
19.10000 52.000
19.11500 43.000
19.13000 52.000
19.14500 50.000
19.16000 56.000
19.17500 51.000
19.19000 50.000
19.20500 56.000
19.22000 47.000
19.23500 44.000
19.25000 52.000
19.26500 42.000
19.28000 46.000
19.29500 57.000
19.31000 56.000
19.32500 44.000
19.34000 46.000
19.35500 48.000
19.37000 36.000
19.38500 35.000
19.40000 45.000
19.41500 52.000
19.43000 55.000
19.44500 50.000
19.46000 62.000
19.47500 61.000
19.49000 52.000
19.50500 48.000
19.52000 52.000
19.53500 48.000
19.55000 54.000
19.56500 49.000
19.58000 33.000
19.59500 45.000
19.61000 60.000
19.62500 56.000
19.64000 53.000
19.65500 52.000
19.67000 54.000
19.68500 56.000
19.70000 59.000
19.71500 46.000
19.73000 45.000
19.74500 49.000
19.76000 49.000
19.77500 38.000
19.79000 51.000
19.80500 57.000
19.82000 43.000
19.83500 49.000
19.85000 52.000
19.86500 43.000
19.88000 48.000
19.89500 47.000
19.91000 53.000
19.92500 57.000
19.94000 58.000
19.95500 54.000
19.97000 45.000
19.98500 49.000
20.00000 53.000
20.01500 60.000
20.03000 53.000
20.04500 56.000
20.06000 56.000
20.07500 53.000
20.09000 55.000
20.10500 52.000
20.12000 47.000
20.13500 55.000
20.15000 50.000
20.16500 53.000
20.18000 55.000
20.19500 56.000
20.21000 49.000
20.22500 51.000
20.24000 40.000
20.25500 43.000
20.27000 57.000
20.28500 41.000
20.30000 52.000
20.31500 69.000
20.33000 60.000
20.34500 58.000
20.36000 54.000
20.37500 47.000
20.39000 58.000
20.40500 45.000
20.42000 52.000
20.43500 61.000
20.45000 50.000
20.46500 50.000
20.48000 56.000
20.49500 58.000
20.51000 60.000
20.52500 54.000
20.54000 65.000
20.55500 66.000
20.57000 55.000
20.58500 56.000
20.60000 48.000
20.61500 56.000
20.63000 67.000
20.64500 53.000
20.66000 48.000
20.67500 48.000
20.69000 53.000
20.70500 50.000
20.72000 63.000
20.73500 57.000
20.75000 62.000
20.76500 53.000
20.78000 52.000
20.79500 64.000
20.81000 56.000
20.82500 49.000
20.84000 52.000
20.85500 47.000
20.87000 44.000
20.88500 46.000
20.90000 56.000
20.91500 55.000
20.93000 55.000
20.94500 63.000
20.96000 59.000
20.97500 61.000
20.99000 58.000
21.00500 56.000
21.02000 54.000
21.03500 58.000
21.05000 63.000
21.06500 65.000
21.08000 70.000
21.09500 78.000
21.11000 81.000
21.12500 89.000
21.14000 112.000
21.15500 143.000
21.17000 183.000
21.18500 166.000
21.20000 112.000
21.21500 79.000
21.23000 68.000
21.24500 63.000
21.26000 50.000
21.27500 37.000
21.29000 53.000
21.30500 57.000
21.32000 56.000
21.33500 58.000
21.35000 58.000
21.36500 58.000
21.38000 53.000
21.39500 59.000
21.41000 59.000
21.42500 67.000
21.44000 66.000
21.45500 60.000
21.47000 63.000
21.48500 52.000
21.50000 55.000
21.51500 66.000
21.53000 58.000
21.54500 52.000
21.56000 51.000
21.57500 56.000
21.59000 63.000
21.60500 59.000
21.62000 63.000
21.63500 54.000
21.65000 65.000
21.66500 67.000
21.68000 64.000
21.69500 61.000
21.71000 64.000
21.72500 80.000
21.74000 90.000
21.75500 76.000
21.77000 106.000
21.78500 130.000
21.80000 135.000
21.81500 176.000
21.83000 222.000
21.84500 358.000
21.86000 516.000
21.87500 633.000
21.89000 551.000
21.90500 351.000
21.92000 169.000
21.93500 87.000
21.95000 67.000
21.96500 61.000
21.98000 69.000
21.99500 61.000
22.01000 65.000
22.02500 63.000
22.04000 69.000
22.05500 50.000
22.07000 59.000
22.08500 60.000
22.10000 63.000
22.11500 55.000
22.13000 60.000
22.14500 51.000
22.16000 57.000
22.17500 50.000
22.19000 58.000
22.20500 63.000
22.22000 59.000
22.23500 46.000
22.25000 57.000
22.26500 54.000
22.28000 62.000
22.29500 61.000
22.31000 58.000
22.32500 41.000
22.34000 55.000
22.35500 56.000
22.37000 50.000
22.38500 57.000
22.40000 59.000
22.41500 60.000
22.43000 66.000
22.44500 60.000
22.46000 60.000
22.47500 67.000
22.49000 67.000
22.50500 64.000
22.52000 78.000
22.53500 73.000
22.55000 98.000
22.56500 116.000
22.58000 136.000
22.59500 165.000
22.61000 181.000
22.62500 239.000
22.64000 340.000
22.65500 497.000
22.67000 654.000
22.68500 679.000
22.70000 493.000
22.71500 282.000
22.73000 141.000
22.74500 84.000
22.76000 86.000
22.77500 75.000
22.79000 69.000
22.80500 69.000
22.82000 79.000
22.83500 69.000
22.85000 78.000
22.86500 83.000
22.88000 92.000
22.89500 129.000
22.91000 156.000
22.92500 204.000
22.94000 266.000
22.95500 391.000
22.97000 525.000
22.98500 810.000
23.00000 1121.000
23.01500 1598.000
23.03000 2415.000
23.04500 3790.000
23.06000 4883.000
23.07500 4653.000
23.09000 2816.000
23.10500 1252.000
23.12000 419.000
23.13500 195.000
23.15000 131.000
23.16500 116.000
23.18000 87.000
23.19500 79.000
23.21000 75.000
23.22500 73.000
23.24000 77.000
23.25500 50.000
23.27000 56.000
23.28500 58.000
23.30000 59.000
23.31500 69.000
23.33000 68.000
23.34500 77.000
23.36000 74.000
23.37500 63.000
23.39000 56.000
23.40500 67.000
23.42000 64.000
23.43500 57.000
23.45000 66.000
23.46500 56.000
23.48000 60.000
23.49500 62.000
23.51000 60.000
23.52500 56.000
23.54000 52.000
23.55500 66.000
23.57000 63.000
23.58500 61.000
23.60000 62.000
23.61500 59.000
23.63000 62.000
23.64500 63.000
23.66000 70.000
23.67500 66.000
23.69000 74.000
23.70500 66.000
23.72000 58.000
23.73500 53.000
23.75000 57.000
23.76500 55.000
23.78000 54.000
23.79500 47.000
23.81000 54.000
23.82500 74.000
23.84000 60.000
23.85500 60.000
23.87000 62.000
23.88500 59.000
23.90000 49.000
23.91500 59.000
23.93000 55.000
23.94500 71.000
23.96000 66.000
23.97500 67.000
23.99000 59.000
24.00500 54.000
24.02000 65.000
24.03500 58.000
24.05000 64.000
24.06500 56.000
24.08000 65.000
24.09500 60.000
24.11000 58.000
24.12500 65.000
24.14000 57.000
24.15500 50.000
24.17000 53.000
24.18500 62.000
24.20000 61.000
24.21500 44.000
24.23000 64.000
24.24500 58.000
24.26000 56.000
24.27500 54.000
24.29000 59.000
24.30500 58.000
24.32000 61.000
24.33500 58.000
24.35000 63.000
24.36500 50.000
24.38000 53.000
24.39500 52.000
24.41000 60.000
24.42500 64.000
24.44000 57.000
24.45500 57.000
24.47000 52.000
24.48500 46.000
24.50000 49.000
24.51500 54.000
24.53000 56.000
24.54500 60.000
24.56000 50.000
24.57500 63.000
24.59000 48.000
24.60500 61.000
24.62000 78.000
24.63500 55.000
24.65000 62.000
24.66500 49.000
24.68000 61.000
24.69500 66.000
24.71000 62.000
24.72500 48.000
24.74000 62.000
24.75500 56.000
24.77000 62.000
24.78500 64.000
24.80000 77.000
24.81500 82.000
24.83000 74.000
24.84500 96.000
24.86000 132.000
24.87500 153.000
24.89000 236.000
24.90500 325.000
24.92000 391.000
24.93500 419.000
24.95000 294.000
24.96500 169.000
24.98000 97.000
24.99500 79.000
25.01000 70.000
25.02500 68.000
25.04000 55.000
25.05500 51.000
25.07000 56.000
25.08500 66.000
25.10000 63.000
25.11500 56.000
25.13000 55.000
25.14500 61.000
25.16000 60.000
25.17500 55.000
25.19000 57.000
25.20500 46.000
25.22000 50.000
25.23500 60.000
25.25000 65.000
25.26500 63.000
25.28000 58.000
25.29500 45.000
25.31000 56.000
25.32500 56.000
25.34000 70.000
25.35500 62.000
25.37000 63.000
25.38500 68.000
25.40000 59.000
25.41500 58.000
25.43000 63.000
25.44500 59.000
25.46000 61.000
25.47500 54.000
25.49000 62.000
25.50500 53.000
25.52000 57.000
25.53500 63.000
25.55000 54.000
25.56500 52.000
25.58000 59.000
25.59500 63.000
25.61000 54.000
25.62500 62.000
25.64000 68.000
25.65500 74.000
25.67000 67.000
25.68500 87.000
25.70000 106.000
25.71500 151.000
25.73000 193.000
25.74500 254.000
25.76000 400.000
25.77500 527.000
25.79000 783.000
25.80500 1159.000
25.82000 1863.000
25.83500 2174.000
25.85000 1644.000
25.86500 851.000
25.88000 393.000
25.89500 165.000
25.91000 100.000
25.92500 71.000
25.94000 72.000
25.95500 63.000
25.97000 65.000
25.98500 59.000
26.00000 54.000
26.01500 66.000
26.03000 70.000
26.04500 69.000
26.06000 62.000
26.07500 56.000
26.09000 51.000
26.10500 64.000
26.12000 61.000
26.13500 46.000
26.15000 74.000
26.16500 67.000
26.18000 66.000
26.19500 62.000
26.21000 62.000
26.22500 64.000
26.24000 86.000
26.25500 89.000
26.27000 99.000
26.28500 125.000
26.30000 168.000
26.31500 201.000
26.33000 197.000
26.34500 142.000
26.36000 108.000
26.37500 82.000
26.39000 66.000
26.40500 70.000
26.42000 61.000
26.43500 54.000
26.45000 53.000
26.46500 59.000
26.48000 62.000
26.49500 61.000
26.51000 65.000
26.52500 75.000
26.54000 73.000
26.55500 83.000
26.57000 74.000
26.58500 98.000
26.60000 122.000
26.61500 153.000
26.63000 219.000
26.64500 304.000
26.66000 415.000
26.67500 604.000
26.69000 908.000
26.70500 1131.000
26.72000 1016.000
26.73500 606.000
26.75000 292.000
26.76500 136.000
26.78000 99.000
26.79500 65.000
26.81000 65.000
26.82500 64.000
26.84000 68.000
26.85500 55.000
26.87000 55.000
26.88500 66.000
26.90000 58.000
26.91500 54.000
26.93000 52.000
26.94500 65.000
26.96000 56.000
26.97500 56.000
26.99000 65.000
27.00500 58.000
27.02000 62.000
27.03500 40.000
27.05000 62.000
27.06500 63.000
27.08000 53.000
27.09500 57.000
27.11000 58.000
27.12500 68.000
27.14000 59.000
27.15500 60.000
27.17000 61.000
27.18500 47.000
27.20000 42.000
27.21500 53.000
27.23000 62.000
27.24500 59.000
27.26000 53.000
27.27500 57.000
27.29000 59.000
27.30500 54.000
27.32000 56.000
27.33500 53.000
27.35000 61.000
27.36500 57.000
27.38000 51.000
27.39500 47.000
27.41000 49.000
27.42500 54.000
27.44000 49.000
27.45500 56.000
27.47000 54.000
27.48500 61.000
27.50000 60.000
27.51500 52.000
27.53000 66.000
27.54500 91.000
27.56000 98.000
27.57500 129.000
27.59000 169.000
27.60500 224.000
27.62000 330.000
27.63500 433.000
27.65000 591.000
27.66500 949.000
27.68000 1416.000
27.69500 1924.000
27.71000 2161.000
27.72500 1837.000
27.74000 1329.000
27.75500 928.000
27.77000 561.000
27.78500 304.000
27.80000 148.000
27.81500 101.000
27.83000 80.000
27.84500 66.000
27.86000 66.000
27.87500 68.000
27.89000 62.000
27.90500 66.000
27.92000 53.000
27.93500 59.000
27.95000 58.000
27.96500 63.000
27.98000 65.000
27.99500 60.000
28.01000 69.000
28.02500 70.000
28.04000 62.000
28.05500 57.000
28.07000 58.000
28.08500 56.000
28.10000 57.000
28.11500 61.000
28.13000 62.000
28.14500 52.000
28.16000 54.000
28.17500 63.000
28.19000 50.000
28.20500 49.000
28.22000 56.000
28.23500 57.000
28.25000 59.000
28.26500 54.000
28.28000 60.000
28.29500 62.000
28.31000 55.000
28.32500 51.000
28.34000 58.000
28.35500 47.000
28.37000 46.000
28.38500 49.000
28.40000 49.000
28.41500 44.000
28.43000 56.000
28.44500 66.000
28.46000 62.000
28.47500 73.000
28.49000 69.000
28.50500 63.000
28.52000 73.000
28.53500 75.000
28.55000 104.000
28.56500 131.000
28.58000 190.000
28.59500 264.000
28.61000 391.000
28.62500 588.000
28.64000 805.000
28.65500 1037.000
28.67000 1053.000
28.68500 685.000
28.70000 328.000
28.71500 178.000
28.73000 114.000
28.74500 91.000
28.76000 62.000
28.77500 67.000
28.79000 54.000
28.80500 75.000
28.82000 79.000
28.83500 105.000
28.85000 142.000
28.86500 180.000
28.88000 218.000
28.89500 314.000
28.91000 562.000
28.92500 744.000
28.94000 785.000
28.95500 581.000
28.97000 314.000
28.98500 161.000
29.00000 92.000
29.01500 72.000
29.03000 63.000
29.04500 72.000
29.06000 59.000
29.07500 65.000
29.09000 63.000
29.10500 67.000
29.12000 85.000
29.13500 115.000
29.15000 107.000
29.16500 108.000
29.18000 88.000
29.19500 77.000
29.21000 59.000
29.22500 56.000
29.24000 54.000
29.25500 54.000
29.27000 50.000
29.28500 54.000
29.30000 60.000
29.31500 62.000
29.33000 53.000
29.34500 45.000
29.36000 55.000
29.37500 60.000
29.39000 63.000
29.40500 68.000
29.42000 66.000
29.43500 66.000
29.45000 56.000
29.46500 44.000
29.48000 48.000
29.49500 52.000
29.51000 42.000
29.52500 56.000
29.54000 46.000
29.55500 56.000
29.57000 55.000
29.58500 43.000
29.60000 53.000
29.61500 64.000
29.63000 51.000
29.64500 44.000
29.66000 54.000
29.67500 65.000
29.69000 70.000
29.70500 51.000
29.72000 57.000
29.73500 65.000
29.75000 51.000
29.76500 62.000
29.78000 52.000
29.79500 54.000
29.81000 45.000
29.82500 52.000
29.84000 54.000
29.85500 45.000
29.87000 49.000
29.88500 50.000
29.90000 48.000
29.91500 60.000
29.93000 52.000
29.94500 48.000
29.96000 51.000
29.97500 48.000
29.99000 55.000
30.00500 48.000
30.02000 48.000
30.03500 43.000
30.05000 46.000
30.06500 52.000
30.08000 57.000
30.09500 54.000
30.11000 59.000
30.12500 55.000
30.14000 48.000
30.15500 49.000
30.17000 42.000
30.18500 50.000
30.20000 52.000
30.21500 53.000
30.23000 57.000
30.24500 43.000
30.26000 46.000
30.27500 50.000
30.29000 57.000
30.30500 58.000
30.32000 46.000
30.33500 53.000
30.35000 46.000
30.36500 49.000
30.38000 61.000
30.39500 57.000
30.41000 51.000
30.42500 51.000
30.44000 58.000
30.45500 63.000
30.47000 58.000
30.48500 50.000
30.50000 58.000
30.51500 45.000
30.53000 52.000
30.54500 44.000
30.56000 50.000
30.57500 54.000
30.59000 53.000
30.60500 51.000
30.62000 53.000
30.63500 45.000
30.65000 43.000
30.66500 52.000
30.68000 48.000
30.69500 45.000
30.71000 62.000
30.72500 59.000
30.74000 53.000
30.75500 35.000
30.77000 46.000
30.78500 59.000
30.80000 51.000
30.81500 52.000
30.83000 52.000
30.84500 57.000
30.86000 47.000
30.87500 56.000
30.89000 55.000
30.90500 56.000
30.92000 55.000
30.93500 54.000
30.95000 36.000
30.96500 52.000
30.98000 50.000
30.99500 53.000
31.01000 53.000
31.02500 44.000
31.04000 56.000
31.05500 50.000
31.07000 54.000
31.08500 55.000
31.10000 51.000
31.11500 52.000
31.13000 53.000
31.14500 50.000
31.16000 43.000
31.17500 46.000
31.19000 61.000
31.20500 51.000
31.22000 60.000
31.23500 58.000
31.25000 70.000
31.26500 79.000
31.28000 85.000
31.29500 106.000
31.31000 152.000
31.32500 219.000
31.34000 320.000
31.35500 514.000
31.37000 740.000
31.38500 934.000
31.40000 930.000
31.41500 627.000
31.43000 319.000
31.44500 143.000
31.46000 82.000
31.47500 77.000
31.49000 57.000
31.50500 48.000
31.52000 58.000
31.53500 67.000
31.55000 71.000
31.56500 54.000
31.58000 51.000
31.59500 55.000
31.61000 59.000
31.62500 40.000
31.64000 53.000
31.65500 52.000
31.67000 56.000
31.68500 57.000
31.70000 51.000
31.71500 52.000
31.73000 46.000
31.74500 52.000
31.76000 46.000
31.77500 45.000
31.79000 41.000
31.80500 53.000
31.82000 59.000
31.83500 45.000
31.85000 49.000
31.86500 43.000
31.88000 54.000
31.89500 44.000
31.91000 41.000
31.92500 46.000
31.94000 42.000
31.95500 49.000
31.97000 45.000
31.98500 45.000
32.00000 58.000
32.01500 55.000
32.03000 51.000
32.04500 47.000
32.06000 40.000
32.07500 36.000
32.09000 42.000
32.10500 37.000
32.12000 55.000
32.13500 51.000
32.15000 53.000
32.16500 50.000
32.18000 45.000
32.19500 51.000
32.21000 47.000
32.22500 56.000
32.24000 53.000
32.25500 55.000
32.27000 56.000
32.28500 53.000
32.30000 47.000
32.31500 41.000
32.33000 43.000
32.34500 45.000
32.36000 51.000
32.37500 55.000
32.39000 53.000
32.40500 51.000
32.42000 47.000
32.43500 45.000
32.45000 52.000
32.46500 54.000
32.48000 56.000
32.49500 39.000
32.51000 49.000
32.52500 55.000
32.54000 50.000
32.55500 46.000
32.57000 40.000
32.58500 60.000
32.60000 55.000
32.61500 46.000
32.63000 45.000
32.64500 44.000
32.66000 55.000
32.67500 57.000
32.69000 52.000
32.70500 56.000
32.72000 43.000
32.73500 54.000
32.75000 45.000
32.76500 45.000
32.78000 41.000
32.79500 51.000
32.81000 46.000
32.82500 46.000
32.84000 51.000
32.85500 61.000
32.87000 52.000
32.88500 50.000
32.90000 53.000
32.91500 38.000
32.93000 41.000
32.94500 41.000
32.96000 42.000
32.97500 34.000
32.99000 35.000
33.00500 51.000
33.02000 49.000
33.03500 43.000
33.05000 43.000
33.06500 42.000
33.08000 41.000
33.09500 43.000
33.11000 61.000
33.12500 53.000
33.14000 41.000
33.15500 53.000
33.17000 52.000
33.18500 51.000
33.20000 60.000
33.21500 75.000
33.23000 78.000
33.24500 99.000
33.26000 120.000
33.27500 164.000
33.29000 166.000
33.30500 111.000
33.32000 85.000
33.33500 64.000
33.35000 49.000
33.36500 46.000
33.38000 54.000
33.39500 53.000
33.41000 59.000
33.42500 68.000
33.44000 74.000
33.45500 81.000
33.47000 90.000
33.48500 101.000
33.50000 85.000
33.51500 71.000
33.53000 60.000
33.54500 50.000
33.56000 49.000
33.57500 48.000
33.59000 42.000
33.60500 52.000
33.62000 54.000
33.63500 54.000
33.65000 50.000
33.66500 54.000
33.68000 40.000
33.69500 46.000
33.71000 40.000
33.72500 46.000
33.74000 41.000
33.75500 52.000
33.77000 47.000
33.78500 45.000
33.80000 47.000
33.81500 53.000
33.83000 44.000
33.84500 50.000
33.86000 42.000
33.87500 47.000
33.89000 45.000
33.90500 46.000
33.92000 53.000
33.93500 49.000
33.95000 44.000
33.96500 50.000
33.98000 57.000
33.99500 51.000
34.01000 68.000
34.02500 71.000
34.04000 73.000
34.05500 108.000
34.07000 131.000
34.08500 200.000
34.10000 265.000
34.11500 377.000
34.13000 552.000
34.14500 600.000
34.16000 497.000
34.17500 320.000
34.19000 170.000
34.20500 137.000
34.22000 140.000
34.23500 185.000
34.25000 181.000
34.26500 159.000
34.28000 117.000
34.29500 75.000
34.31000 44.000
34.32500 50.000
34.34000 59.000
34.35500 51.000
34.37000 53.000
34.38500 44.000
34.40000 42.000
34.41500 42.000
34.43000 40.000
34.44500 45.000
34.46000 42.000
34.47500 42.000
34.49000 42.000
34.50500 46.000
34.52000 47.000
34.53500 45.000
34.55000 44.000
34.56500 41.000
34.58000 45.000
34.59500 42.000
34.61000 44.000
34.62500 54.000
34.64000 51.000
34.65500 43.000
34.67000 50.000
34.68500 44.000
34.70000 42.000
34.71500 49.000
34.73000 57.000
34.74500 65.000
34.76000 63.000
34.77500 66.000
34.79000 77.000
34.80500 76.000
34.82000 75.000
34.83500 87.000
34.85000 108.000
34.86500 152.000
34.88000 214.000
34.89500 220.000
34.91000 216.000
34.92500 170.000
34.94000 118.000
34.95500 85.000
34.97000 68.000
34.98500 53.000
35.00000 43.000
35.01500 45.000
35.03000 45.000
35.04500 47.000
35.06000 46.000
35.07500 43.000
35.09000 40.000
35.10500 39.000
35.12000 48.000
35.13500 42.000
35.15000 35.000
35.16500 40.000
35.18000 40.000
35.19500 40.000
35.21000 38.000
35.22500 41.000
35.24000 38.000
35.25500 37.000
35.27000 43.000
35.28500 38.000
35.30000 38.000
35.31500 44.000
35.33000 41.000
35.34500 48.000
35.36000 44.000
35.37500 35.000
35.39000 34.000
35.40500 31.000
35.42000 56.000
35.43500 44.000
35.45000 44.000
35.46500 54.000
35.48000 48.000
35.49500 50.000
35.51000 42.000
35.52500 52.000
35.54000 48.000
35.55500 54.000
35.57000 48.000
35.58500 52.000
35.60000 41.000
35.61500 45.000
35.63000 46.000
35.64500 45.000
35.66000 53.000
35.67500 40.000
35.69000 39.000
35.70500 47.000
35.72000 49.000
35.73500 44.000
35.75000 57.000
35.76500 62.000
35.78000 65.000
35.79500 91.000
35.81000 133.000
35.82500 167.000
35.84000 226.000
35.85500 347.000
35.87000 448.000
35.88500 446.000
35.90000 343.000
35.91500 185.000
35.93000 111.000
35.94500 77.000
35.96000 67.000
35.97500 56.000
35.99000 55.000
36.00500 63.000
36.02000 65.000
36.03500 78.000
36.05000 97.000
36.06500 144.000
36.08000 191.000
36.09500 225.000
36.11000 236.000
36.12500 155.000
36.14000 111.000
36.15500 64.000
36.17000 45.000
36.18500 59.000
36.20000 47.000
36.21500 32.000
36.23000 40.000
36.24500 38.000
36.26000 43.000
36.27500 50.000
36.29000 46.000
36.30500 44.000
36.32000 44.000
36.33500 48.000
36.35000 39.000
36.36500 47.000
36.38000 43.000
36.39500 35.000
36.41000 39.000
36.42500 36.000
36.44000 44.000
36.45500 29.000
36.47000 31.000
36.48500 44.000
36.50000 43.000
36.51500 29.000
36.53000 39.000
36.54500 46.000
36.56000 47.000
36.57500 40.000
36.59000 42.000
36.60500 39.000
36.62000 38.000
36.63500 40.000
36.65000 36.000
36.66500 35.000
36.68000 34.000
36.69500 43.000
36.71000 53.000
36.72500 43.000
36.74000 47.000
36.75500 46.000
36.77000 42.000
36.78500 33.000
36.80000 44.000
36.81500 41.000
36.83000 42.000
36.84500 40.000
36.86000 41.000
36.87500 47.000
36.89000 52.000
36.90500 69.000
36.92000 73.000
36.93500 92.000
36.95000 114.000
36.96500 157.000
36.98000 262.000
36.99500 373.000
37.01000 544.000
37.02500 662.000
37.04000 636.000
37.05500 486.000
37.07000 313.000
37.08500 138.000
37.10000 83.000
37.11500 76.000
37.13000 54.000
37.14500 50.000
37.16000 50.000
37.17500 46.000
37.19000 51.000
37.20500 42.000
37.22000 42.000
37.23500 48.000
37.25000 53.000
37.26500 59.000
37.28000 72.000
37.29500 65.000
37.31000 79.000
37.32500 108.000
37.34000 123.000
37.35500 142.000
37.37000 142.000
37.38500 100.000
37.40000 68.000
37.41500 51.000
37.43000 54.000
37.44500 47.000
37.46000 51.000
37.47500 47.000
37.49000 45.000
37.50500 33.000
37.52000 39.000
37.53500 35.000
37.55000 34.000
37.56500 41.000
37.58000 44.000
37.59500 47.000
37.61000 36.000
37.62500 43.000
37.64000 42.000
37.65500 45.000
37.67000 37.000
37.68500 41.000
37.70000 53.000
37.71500 55.000
37.73000 68.000
37.74500 81.000
37.76000 87.000
37.77500 140.000
37.79000 203.000
37.80500 235.000
37.82000 266.000
37.83500 202.000
37.85000 145.000
37.86500 97.000
37.88000 87.000
37.89500 109.000
37.91000 147.000
37.92500 178.000
37.94000 245.000
37.95500 317.000
37.97000 268.000
37.98500 196.000
38.00000 139.000
38.01500 74.000
38.03000 67.000
38.04500 49.000
38.06000 43.000
38.07500 44.000
38.09000 40.000
38.10500 42.000
38.12000 43.000
38.13500 43.000
38.15000 42.000
38.16500 39.000
38.18000 40.000
38.19500 44.000
38.21000 50.000
38.22500 37.000
38.24000 44.000
38.25500 51.000
38.27000 47.000
38.28500 45.000
38.30000 42.000
38.31500 41.000
38.33000 33.000
38.34500 39.000
38.36000 45.000
38.37500 43.000
38.39000 41.000
38.40500 33.000
38.42000 45.000
38.43500 34.000
38.45000 27.000
38.46500 31.000
38.48000 36.000
38.49500 33.000
38.51000 34.000
38.52500 38.000
38.54000 38.000
38.55500 31.000
38.57000 40.000
38.58500 38.000
38.60000 39.000
38.61500 42.000
38.63000 35.000
38.64500 42.000
38.66000 42.000
38.67500 40.000
38.69000 34.000
38.70500 33.000
38.72000 30.000
38.73500 41.000
38.75000 39.000
38.76500 28.000
38.78000 40.000
38.79500 39.000
38.81000 35.000
38.82500 37.000
38.84000 38.000
38.85500 37.000
38.87000 40.000
38.88500 41.000
38.90000 35.000
38.91500 37.000
38.93000 46.000
38.94500 40.000
38.96000 38.000
38.97500 28.000
38.99000 28.000
39.00500 45.000
39.02000 29.000
39.03500 38.000
39.05000 57.000
39.06500 38.000
39.08000 41.000
39.09500 33.000
39.11000 41.000
39.12500 48.000
39.14000 41.000
39.15500 44.000
39.17000 41.000
39.18500 36.000
39.20000 45.000
39.21500 51.000
39.23000 57.000
39.24500 58.000
39.26000 73.000
39.27500 113.000
39.29000 147.000
39.30500 223.000
39.32000 313.000
39.33500 384.000
39.35000 404.000
39.36500 307.000
39.38000 190.000
39.39500 107.000
39.41000 60.000
39.42500 49.000
39.44000 45.000
39.45500 41.000
39.47000 47.000
39.48500 47.000
39.50000 39.000
39.51500 47.000
39.53000 50.000
39.54500 50.000
39.56000 40.000
39.57500 42.000
39.59000 38.000
39.60500 42.000
39.62000 33.000
39.63500 38.000
39.65000 34.000
39.66500 41.000
39.68000 36.000
39.69500 28.000
39.71000 36.000
39.72500 38.000
39.74000 43.000
39.75500 46.000
39.77000 36.000
39.78500 38.000
39.80000 46.000
39.81500 43.000
39.83000 49.000
39.84500 44.000
39.86000 39.000
39.87500 45.000
39.89000 40.000
39.90500 44.000
39.92000 39.000
39.93500 42.000
39.95000 37.000
39.96500 50.000
39.98000 49.000
39.99500 50.000
40.01000 51.000
40.02500 43.000
40.04000 39.000
40.05500 42.000
40.07000 41.000
40.08500 35.000
40.10000 32.000
40.11500 38.000
40.13000 37.000
40.14500 35.000
40.16000 37.000
40.17500 38.000
40.19000 39.000
40.20500 42.000
40.22000 42.000
40.23500 41.000
40.25000 53.000
40.26500 46.000
40.28000 41.000
40.29500 38.000
40.31000 41.000
40.32500 28.000
40.34000 33.000
40.35500 44.000
40.37000 33.000
40.38500 38.000
40.40000 38.000
40.41500 43.000
40.43000 44.000
40.44500 56.000
40.46000 61.000
40.47500 67.000
40.49000 60.000
40.50500 52.000
40.52000 63.000
40.53500 57.000
40.55000 43.000
40.56500 39.000
40.58000 45.000
40.59500 55.000
40.61000 61.000
40.62500 83.000
40.64000 109.000
40.65500 124.000
40.67000 119.000
40.68500 94.000
40.70000 71.000
40.71500 50.000
40.73000 37.000
40.74500 38.000
40.76000 38.000
40.77500 42.000
40.79000 34.000
40.80500 43.000
40.82000 46.000
40.83500 41.000
40.85000 33.000
40.86500 44.000
40.88000 41.000
40.89500 41.000
40.91000 45.000
40.92500 54.000
40.94000 43.000
40.95500 36.000
40.97000 37.000
40.98500 37.000
41.00000 44.000
41.01500 43.000
41.03000 40.000
41.04500 39.000
41.06000 38.000
41.07500 39.000
41.09000 37.000
41.10500 36.000
41.12000 40.000
41.13500 39.000
41.15000 38.000
41.16500 37.000
41.18000 37.000
41.19500 45.000
41.21000 40.000
41.22500 39.000
41.24000 36.000
41.25500 45.000
41.27000 41.000
41.28500 41.000
41.30000 41.000
41.31500 41.000
41.33000 34.000
41.34500 44.000
41.36000 37.000
41.37500 33.000
41.39000 31.000
41.40500 31.000
41.42000 39.000
41.43500 44.000
41.45000 43.000
41.46500 39.000
41.48000 37.000
41.49500 35.000
41.51000 45.000
41.52500 42.000
41.54000 45.000
41.55500 37.000
41.57000 32.000
41.58500 37.000
41.60000 37.000
41.61500 40.000
41.63000 48.000
41.64500 40.000
41.66000 34.000
41.67500 43.000
41.69000 39.000
41.70500 37.000
41.72000 33.000
41.73500 33.000
41.75000 39.000
41.76500 47.000
41.78000 38.000
41.79500 31.000
41.81000 31.000
41.82500 31.000
41.84000 40.000
41.85500 42.000
41.87000 40.000
41.88500 48.000
41.90000 38.000
41.91500 38.000
41.93000 39.000
41.94500 46.000
41.96000 47.000
41.97500 70.000
41.99000 63.000
42.00500 81.000
42.02000 123.000
42.03500 148.000
42.05000 196.000
42.06500 230.000
42.08000 168.000
42.09500 127.000
42.11000 84.000
42.12500 61.000
42.14000 53.000
42.15500 64.000
42.17000 74.000
42.18500 61.000
42.20000 60.000
42.21500 66.000
42.23000 56.000
42.24500 46.000
42.26000 37.000
42.27500 41.000
42.29000 39.000
42.30500 44.000
42.32000 36.000
42.33500 35.000
42.35000 36.000
42.36500 37.000
42.38000 41.000
42.39500 44.000
42.41000 47.000
42.42500 36.000
42.44000 39.000
42.45500 36.000
42.47000 35.000
42.48500 40.000
42.50000 37.000
42.51500 43.000
42.53000 52.000
42.54500 53.000
42.56000 52.000
42.57500 59.000
42.59000 57.000
42.60500 73.000
42.62000 81.000
42.63500 128.000
42.65000 163.000
42.66500 224.000
42.68000 318.000
42.69500 370.000
42.71000 370.000
42.72500 361.000
42.74000 358.000
42.75500 391.000
42.77000 412.000
42.78500 394.000
42.80000 292.000
42.81500 200.000
42.83000 113.000
42.84500 76.000
42.86000 58.000
42.87500 53.000
42.89000 49.000
42.90500 52.000
42.92000 52.000
42.93500 51.000
42.95000 49.000
42.96500 39.000
42.98000 35.000
42.99500 44.000
43.01000 38.000
43.02500 47.000
43.04000 51.000
43.05500 68.000
43.07000 94.000
43.08500 111.000
43.10000 114.000
43.11500 126.000
43.13000 110.000
43.14500 91.000
43.16000 76.000
43.17500 48.000
43.19000 46.000
43.20500 47.000
43.22000 42.000
43.23500 44.000
43.25000 34.000
43.26500 30.000
43.28000 39.000
43.29500 46.000
43.31000 43.000
43.32500 38.000
43.34000 43.000
43.35500 38.000
43.37000 43.000
43.38500 42.000
43.40000 41.000
43.41500 49.000
43.43000 37.000
43.44500 40.000
43.46000 41.000
43.47500 41.000
43.49000 32.000
43.50500 38.000
43.52000 45.000
43.53500 46.000
43.55000 40.000
43.56500 35.000
43.58000 34.000
43.59500 40.000
43.61000 42.000
43.62500 38.000
43.64000 26.000
43.65500 30.000
43.67000 40.000
43.68500 31.000
43.70000 38.000
43.71500 47.000
43.73000 37.000
43.74500 43.000
43.76000 39.000
43.77500 34.000
43.79000 36.000
43.80500 55.000
43.82000 52.000
43.83500 36.000
43.85000 38.000
43.86500 39.000
43.88000 47.000
43.89500 68.000
43.91000 74.000
43.92500 82.000
43.94000 91.000
43.95500 99.000
43.97000 102.000
43.98500 78.000
44.00000 51.000
44.01500 45.000
44.03000 47.000
44.04500 48.000
44.06000 44.000
44.07500 47.000
44.09000 41.000
44.10500 44.000
44.12000 38.000
44.13500 43.000
44.15000 45.000
44.16500 44.000
44.18000 35.000
44.19500 41.000
44.21000 40.000
44.22500 43.000
44.24000 45.000
44.25500 41.000
44.27000 61.000
44.28500 63.000
44.30000 66.000
44.31500 78.000
44.33000 101.000
44.34500 95.000
44.36000 71.000
44.37500 67.000
44.39000 64.000
44.40500 62.000
44.42000 50.000
44.43500 43.000
44.45000 44.000
44.46500 37.000
44.48000 45.000
44.49500 37.000
44.51000 48.000
44.52500 50.000
44.54000 51.000
44.55500 47.000
44.57000 40.000
44.58500 46.000
44.60000 41.000
44.61500 46.000
44.63000 50.000
44.64500 50.000
44.66000 48.000
44.67500 36.000
44.69000 38.000
44.70500 35.000
44.72000 38.000
44.73500 52.000
44.75000 43.000
44.76500 47.000
44.78000 39.000
44.79500 42.000
44.81000 33.000
44.82500 35.000
44.84000 36.000
44.85500 39.000
44.87000 35.000
44.88500 47.000
44.90000 39.000
44.91500 39.000
44.93000 42.000
44.94500 37.000
44.96000 38.000
44.97500 35.000
44.99000 35.000
45.00500 41.000
45.02000 43.000
45.03500 42.000
45.05000 44.000
45.06500 53.000
45.08000 60.000
45.09500 81.000
45.11000 109.000
45.12500 103.000
45.14000 97.000
45.15500 102.000
45.17000 73.000
45.18500 62.000
45.20000 72.000
45.21500 80.000
45.23000 75.000
45.24500 97.000
45.26000 84.000
45.27500 80.000
45.29000 74.000
45.30500 52.000
45.32000 40.000
45.33500 35.000
45.35000 39.000
45.36500 42.000
45.38000 48.000
45.39500 48.000
45.41000 40.000
45.42500 37.000
45.44000 48.000
45.45500 39.000
45.47000 52.000
45.48500 53.000
45.50000 65.000
45.51500 82.000
45.53000 118.000
45.54500 153.000
45.56000 174.000
45.57500 188.000
45.59000 201.000
45.60500 185.000
45.62000 128.000
45.63500 95.000
45.65000 75.000
45.66500 48.000
45.68000 41.000
45.69500 46.000
45.71000 32.000
45.72500 38.000
45.74000 36.000
45.75500 42.000
45.77000 47.000
45.78500 37.000
45.80000 35.000
45.81500 35.000
45.83000 44.000
45.84500 39.000
45.86000 32.000
45.87500 37.000
45.89000 34.000
45.90500 31.000
45.92000 46.000
45.93500 38.000
45.95000 35.000
45.96500 40.000
45.98000 41.000
45.99500 35.000
46.01000 42.000
46.02500 48.000
46.04000 46.000
46.05500 40.000
46.07000 40.000
46.08500 46.000
46.10000 39.000
46.11500 41.000
46.13000 42.000
46.14500 31.000
46.16000 35.000
46.17500 40.000
46.19000 35.000
46.20500 41.000
46.22000 54.000
46.23500 64.000
46.25000 70.000
46.26500 92.000
46.28000 128.000
46.29500 153.000
46.31000 171.000
46.32500 164.000
46.34000 146.000
46.35500 100.000
46.37000 73.000
46.38500 51.000
46.40000 44.000
46.41500 41.000
46.43000 47.000
46.44500 43.000
46.46000 47.000
46.47500 34.000
46.49000 44.000
46.50500 42.000
46.52000 38.000
46.53500 41.000
46.55000 30.000
46.56500 40.000
46.58000 35.000
46.59500 28.000
46.61000 40.000
46.62500 39.000
46.64000 44.000
46.65500 38.000
46.67000 39.000
46.68500 37.000
46.70000 39.000
46.71500 41.000
46.73000 47.000
46.74500 36.000
46.76000 36.000
46.77500 33.000
46.79000 35.000
46.80500 50.000
46.82000 42.000
46.83500 37.000
46.85000 43.000
46.86500 43.000
46.88000 43.000
46.89500 46.000
46.91000 38.000
46.92500 40.000
46.94000 43.000
46.95500 33.000
46.97000 37.000
46.98500 36.000
47.00000 49.000
47.01500 50.000
47.03000 37.000
47.04500 38.000
47.06000 47.000
47.07500 61.000
47.09000 86.000
47.10500 92.000
47.12000 102.000
47.13500 116.000
47.15000 92.000
47.16500 96.000
47.18000 67.000
47.19500 48.000
47.21000 51.000
47.22500 42.000
47.24000 44.000
47.25500 47.000
47.27000 43.000
47.28500 47.000
47.30000 46.000
47.31500 34.000
47.33000 37.000
47.34500 43.000
47.36000 44.000
47.37500 40.000
47.39000 43.000
47.40500 40.000
47.42000 46.000
47.43500 31.000
47.45000 40.000
47.46500 46.000
47.48000 53.000
47.49500 50.000
47.51000 54.000
47.52500 49.000
47.54000 47.000
47.55500 52.000
47.57000 42.000
47.58500 65.000
47.60000 90.000
47.61500 103.000
47.63000 122.000
47.64500 132.000
47.66000 135.000
47.67500 122.000
47.69000 150.000
47.70500 196.000
47.72000 285.000
47.73500 316.000
47.75000 320.000
47.76500 324.000
47.78000 269.000
47.79500 212.000
47.81000 155.000
47.82500 186.000
47.84000 197.000
47.85500 196.000
47.87000 185.000
47.88500 134.000
47.90000 111.000
47.91500 84.000
47.93000 70.000
47.94500 58.000
47.96000 57.000
47.97500 57.000
47.99000 55.000
48.00500 40.000
48.02000 41.000
48.03500 44.000
48.05000 42.000
48.06500 47.000
48.08000 40.000
48.09500 50.000
48.11000 40.000
48.12500 36.000
48.14000 49.000
48.15500 45.000
48.17000 50.000
48.18500 58.000
48.20000 56.000
48.21500 39.000
48.23000 41.000
48.24500 39.000
48.26000 44.000
48.27500 40.000
48.29000 42.000
48.30500 47.000
48.32000 44.000
48.33500 42.000
48.35000 38.000
48.36500 42.000
48.38000 41.000
48.39500 37.000
48.41000 39.000
48.42500 41.000
48.44000 42.000
48.45500 37.000
48.47000 43.000
48.48500 52.000
48.50000 58.000
48.51500 48.000
48.53000 45.000
48.54500 56.000
48.56000 45.000
48.57500 33.000
48.59000 37.000
48.60500 32.000
48.62000 43.000
48.63500 41.000
48.65000 41.000
48.66500 41.000
48.68000 41.000
48.69500 28.000
48.71000 35.000
48.72500 48.000
48.74000 36.000
48.75500 35.000
48.77000 36.000
48.78500 52.000
48.80000 50.000
48.81500 48.000
48.83000 42.000
48.84500 41.000
48.86000 36.000
48.87500 44.000
48.89000 47.000
48.90500 47.000
48.92000 42.000
48.93500 49.000
48.95000 40.000
48.96500 43.000
48.98000 57.000
48.99500 57.000
49.01000 78.000
49.02500 77.000
49.04000 91.000
49.05500 79.000
49.07000 65.000
49.08500 45.000
49.10000 47.000
49.11500 41.000
49.13000 44.000
49.14500 44.000
49.16000 44.000
49.17500 47.000
49.19000 33.000
49.20500 42.000
49.22000 42.000
49.23500 38.000
49.25000 35.000
49.26500 38.000
49.28000 35.000
49.29500 41.000
49.31000 43.000
49.32500 47.000
49.34000 48.000
49.35500 36.000
49.37000 33.000
49.38500 43.000
49.40000 51.000
49.41500 55.000
49.43000 52.000
49.44500 58.000
49.46000 72.000
49.47500 79.000
49.49000 99.000
49.50500 103.000
49.52000 86.000
49.53500 69.000
49.55000 46.000
49.56500 41.000
49.58000 56.000
49.59500 55.000
49.61000 63.000
49.62500 84.000
49.64000 99.000
49.65500 95.000
49.67000 85.000
49.68500 84.000
49.70000 67.000
49.71500 56.000
49.73000 49.000
49.74500 57.000
49.76000 41.000
49.77500 46.000
49.79000 53.000
49.80500 55.000
49.82000 48.000
49.83500 57.000
49.85000 73.000
49.86500 104.000
49.88000 134.000
49.89500 149.000
49.91000 150.000
49.92500 154.000
49.94000 174.000
49.95500 209.000
49.97000 218.000
49.98500 235.000
50.00000 243.000
50.01500 205.000
50.03000 135.000
50.04500 99.000
50.06000 74.000
50.07500 47.000
50.09000 56.000
50.10500 60.000
50.12000 46.000
50.13500 47.000
50.15000 54.000
50.16500 48.000
50.18000 48.000
50.19500 61.000
50.21000 55.000
50.22500 48.000
50.24000 42.000
50.25500 38.000
50.27000 45.000
50.28500 49.000
50.30000 45.000
50.31500 39.000
50.33000 34.000
50.34500 37.000
50.36000 43.000
50.37500 38.000
50.39000 36.000
50.40500 46.000
50.42000 43.000
50.43500 51.000
50.45000 50.000
50.46500 61.000
50.48000 54.000
50.49500 63.000
50.51000 61.000
50.52500 59.000
50.54000 55.000
50.55500 50.000
50.57000 49.000
50.58500 55.000
50.60000 48.000
50.61500 45.000
50.63000 40.000
50.64500 46.000
50.66000 39.000
50.67500 42.000
50.69000 51.000
50.70500 47.000
50.72000 48.000
50.73500 44.000
50.75000 40.000
50.76500 37.000
50.78000 45.000
50.79500 47.000
50.81000 40.000
50.82500 37.000
50.84000 50.000
50.85500 50.000
50.87000 49.000
50.88500 47.000
50.90000 49.000
50.91500 61.000
50.93000 60.000
50.94500 50.000
50.96000 42.000
50.97500 45.000
50.99000 46.000
51.00500 40.000
51.02000 52.000
51.03500 55.000
51.05000 48.000
51.06500 51.000
51.08000 63.000
51.09500 58.000
51.11000 72.000
51.12500 77.000
51.14000 105.000
51.15500 154.000
51.17000 227.000
51.18500 322.000
51.20000 447.000
51.21500 537.000
51.23000 535.000
51.24500 493.000
51.26000 356.000
51.27500 214.000
51.29000 120.000
51.30500 92.000
51.32000 64.000
51.33500 55.000
51.35000 67.000
51.36500 50.000
51.38000 51.000
51.39500 47.000
51.41000 47.000
51.42500 37.000
51.44000 47.000
51.45500 53.000
51.47000 43.000
51.48500 38.000
51.50000 41.000
51.51500 53.000
51.53000 52.000
51.54500 50.000
51.56000 40.000
51.57500 48.000
51.59000 47.000
51.60500 63.000
51.62000 50.000
51.63500 50.000
51.65000 49.000
51.66500 54.000
51.68000 59.000
51.69500 64.000
51.71000 50.000
51.72500 55.000
51.74000 48.000
51.75500 45.000
51.77000 45.000
51.78500 43.000
51.80000 42.000
51.81500 49.000
51.83000 48.000
51.84500 45.000
51.86000 44.000
51.87500 47.000
51.89000 50.000
51.90500 60.000
51.92000 51.000
51.93500 57.000
51.95000 77.000
51.96500 97.000
51.98000 107.000
51.99500 165.000
52.01000 238.000
52.02500 309.000
52.04000 333.000
52.05500 328.000
52.07000 279.000
52.08500 176.000
52.10000 121.000
52.11500 84.000
52.13000 57.000
52.14500 50.000
52.16000 51.000
52.17500 54.000
52.19000 55.000
52.20500 53.000
52.22000 47.000
52.23500 47.000
52.25000 52.000
52.26500 45.000
52.28000 55.000
52.29500 56.000
52.31000 46.000
52.32500 49.000
52.34000 51.000
52.35500 52.000
52.37000 55.000
52.38500 41.000
52.40000 44.000
52.41500 59.000
52.43000 56.000
52.44500 44.000
52.46000 42.000
52.47500 39.000
52.49000 35.000
52.50500 42.000
52.52000 49.000
52.53500 53.000
52.55000 47.000
52.56500 48.000
52.58000 58.000
52.59500 56.000
52.61000 43.000
52.62500 44.000
52.64000 47.000
52.65500 49.000
52.67000 49.000
52.68500 48.000
52.70000 57.000
52.71500 54.000
52.73000 52.000
52.74500 46.000
52.76000 53.000
52.77500 53.000
52.79000 44.000
52.80500 48.000
52.82000 49.000
52.83500 49.000
52.85000 52.000
52.86500 64.000
52.88000 63.000
52.89500 69.000
52.91000 83.000
52.92500 98.000
52.94000 136.000
52.95500 185.000
52.97000 268.000
52.98500 321.000
53.00000 298.000
53.01500 284.000
53.03000 197.000
53.04500 170.000
53.06000 157.000
53.07500 192.000
53.09000 249.000
53.10500 292.000
53.12000 297.000
53.13500 294.000
53.15000 232.000
53.16500 185.000
53.18000 128.000
53.19500 97.000
53.21000 100.000
53.22500 77.000
53.24000 83.000
53.25500 86.000
53.27000 83.000
53.28500 68.000
53.30000 61.000
53.31500 55.000
53.33000 44.000
53.34500 59.000
53.36000 50.000
53.37500 43.000
53.39000 44.000
53.40500 47.000
53.42000 43.000
53.43500 45.000
53.45000 46.000
53.46500 45.000
53.48000 55.000
53.49500 44.000
53.51000 51.000
53.52500 44.000
53.54000 41.000
53.55500 37.000
53.57000 43.000
53.58500 46.000
53.60000 49.000
53.61500 52.000
53.63000 44.000
53.64500 46.000
53.66000 43.000
53.67500 47.000
53.69000 43.000
53.70500 47.000
53.72000 51.000
53.73500 42.000
53.75000 43.000
53.76500 43.000
53.78000 51.000
53.79500 47.000
53.81000 59.000
53.82500 56.000
53.84000 61.000
53.85500 87.000
53.87000 94.000
53.88500 136.000
53.90000 165.000
53.91500 238.000
53.93000 295.000
53.94500 373.000
53.96000 384.000
53.97500 326.000
53.99000 260.000
54.00500 173.000
54.02000 132.000
54.03500 82.000
54.05000 65.000
54.06500 59.000
54.08000 58.000
54.09500 51.000
54.11000 48.000
54.12500 47.000
54.14000 49.000
54.15500 45.000
54.17000 39.000
54.18500 48.000
54.20000 48.000
54.21500 52.000
54.23000 52.000
54.24500 37.000
54.26000 53.000
54.27500 46.000
54.29000 54.000
54.30500 63.000
54.32000 57.000
54.33500 42.000
54.35000 43.000
54.36500 44.000
54.38000 50.000
54.39500 50.000
54.41000 43.000
54.42500 44.000
54.44000 47.000
54.45500 48.000
54.47000 41.000
54.48500 40.000
54.50000 44.000
54.51500 53.000
54.53000 61.000
54.54500 46.000
54.56000 40.000
54.57500 37.000
54.59000 44.000
54.60500 49.000
54.62000 56.000
54.63500 56.000
54.65000 63.000
54.66500 45.000
54.68000 48.000
54.69500 52.000
54.71000 49.000
54.72500 44.000
54.74000 52.000
54.75500 52.000
54.77000 50.000
54.78500 50.000
54.80000 45.000
54.81500 42.000
54.83000 46.000
54.84500 43.000
54.86000 41.000
54.87500 51.000
54.89000 50.000
54.90500 45.000
54.92000 43.000
54.93500 50.000
54.95000 46.000
54.96500 48.000
54.98000 48.000
54.99500 57.000
55.01000 66.000
55.02500 59.000
55.04000 58.000
55.05500 76.000
55.07000 88.000
55.08500 110.000
55.10000 132.000
55.11500 112.000
55.13000 114.000
55.14500 123.000
55.16000 104.000
55.17500 85.000
55.19000 81.000
55.20500 99.000
55.22000 105.000
55.23500 90.000
55.25000 83.000
55.26500 67.000
55.28000 57.000
55.29500 60.000
55.31000 58.000
55.32500 63.000
55.34000 79.000
55.35500 81.000
55.37000 86.000
55.38500 98.000
55.40000 113.000
55.41500 121.000
55.43000 137.000
55.44500 119.000
55.46000 91.000
55.47500 77.000
55.49000 53.000
55.50500 47.000
55.52000 56.000
55.53500 57.000
55.55000 55.000
55.56500 54.000
55.58000 52.000
55.59500 49.000
55.61000 46.000
55.62500 56.000
55.64000 66.000
55.65500 76.000
55.67000 86.000
55.68500 119.000
55.70000 173.000
55.71500 222.000
55.73000 281.000
55.74500 285.000
55.76000 262.000
55.77500 210.000
55.79000 158.000
55.80500 117.000
55.82000 94.000
55.83500 96.000
55.85000 116.000
55.86500 108.000
55.88000 101.000
55.89500 109.000
55.91000 92.000
55.92500 69.000
55.94000 59.000
55.95500 57.000
55.97000 60.000
55.98500 57.000
56.00000 61.000
56.01500 62.000
56.03000 59.000
56.04500 39.000
56.06000 55.000
56.07500 45.000
56.09000 47.000
56.10500 48.000
56.12000 59.000
56.13500 70.000
56.15000 69.000
56.16500 59.000
56.18000 54.000
56.19500 61.000
56.21000 48.000
56.22500 60.000
56.24000 50.000
56.25500 45.000
56.27000 52.000
56.28500 51.000
56.30000 51.000
56.31500 48.000
56.33000 51.000
56.34500 49.000
56.36000 46.000
56.37500 46.000
56.39000 52.000
56.40500 47.000
56.42000 55.000
56.43500 46.000
56.45000 44.000
56.46500 50.000
56.48000 48.000
56.49500 55.000
56.51000 68.000
56.52500 62.000
56.54000 56.000
56.55500 64.000
56.57000 75.000
56.58500 79.000
56.60000 93.000
56.61500 142.000
56.63000 201.000
56.64500 288.000
56.66000 332.000
56.67500 349.000
56.69000 370.000
56.70500 301.000
56.72000 240.000
56.73500 166.000
56.75000 160.000
56.76500 151.000
56.78000 127.000
56.79500 114.000
56.81000 116.000
56.82500 100.000
56.84000 74.000
56.85500 57.000
56.87000 52.000
56.88500 66.000
56.90000 59.000
56.91500 56.000
56.93000 58.000
56.94500 52.000
56.96000 48.000
56.97500 52.000
56.99000 54.000
57.00500 57.000
57.02000 57.000
57.03500 57.000
57.05000 61.000
57.06500 63.000
57.08000 63.000
57.09500 71.000
57.11000 59.000
57.12500 66.000
57.14000 63.000
57.15500 76.000
57.17000 81.000
57.18500 90.000
57.20000 117.000
57.21500 105.000
57.23000 119.000
57.24500 124.000
57.26000 152.000
57.27500 172.000
57.29000 208.000
57.30500 261.000
57.32000 268.000
57.33500 274.000
57.35000 209.000
57.36500 141.000
57.38000 98.000
57.39500 73.000
57.41000 77.000
57.42500 68.000
57.44000 60.000
57.45500 62.000
57.47000 63.000
57.48500 90.000
57.50000 101.000
57.51500 115.000
57.53000 149.000
57.54500 157.000
57.56000 143.000
57.57500 117.000
57.59000 99.000
57.60500 74.000
57.62000 61.000
57.63500 47.000
57.65000 48.000
57.66500 58.000
57.68000 61.000
57.69500 70.000
57.71000 80.000
57.72500 93.000
57.74000 96.000
57.75500 103.000
57.77000 104.000
57.78500 108.000
57.80000 95.000
57.81500 95.000
57.83000 76.000
57.84500 81.000
57.86000 79.000
57.87500 73.000
57.89000 68.000
57.90500 66.000
57.92000 53.000
57.93500 48.000
57.95000 46.000
57.96500 47.000
57.98000 52.000
57.99500 41.000
58.01000 51.000
58.02500 54.000
58.04000 51.000
58.05500 57.000
58.07000 61.000
58.08500 57.000
58.10000 42.000
58.11500 42.000
58.13000 39.000
58.14500 48.000
58.16000 45.000
58.17500 51.000
58.19000 51.000
58.20500 55.000
58.22000 51.000
58.23500 48.000
58.25000 47.000
58.26500 57.000
58.28000 45.000
58.29500 43.000
58.31000 41.000
58.32500 44.000
58.34000 42.000
58.35500 42.000
58.37000 38.000
58.38500 39.000
58.40000 46.000
58.41500 42.000
58.43000 49.000
58.44500 46.000
58.46000 46.000
58.47500 54.000
58.49000 43.000
58.50500 47.000
58.52000 44.000
58.53500 43.000
58.55000 42.000
58.56500 32.000
58.58000 44.000
58.59500 44.000
58.61000 37.000
58.62500 46.000
58.64000 41.000
58.65500 43.000
58.67000 62.000
58.68500 61.000
58.70000 44.000
58.71500 37.000
58.73000 42.000
58.74500 51.000
58.76000 53.000
58.77500 53.000
58.79000 52.000
58.80500 43.000
58.82000 42.000
58.83500 42.000
58.85000 40.000
58.86500 44.000
58.88000 36.000
58.89500 47.000
58.91000 42.000
58.92500 42.000
58.94000 45.000
58.95500 42.000
58.97000 43.000
58.98500 48.000
59.00000 73.000
59.01500 90.000
59.03000 82.000
59.04500 127.000
59.06000 125.000
59.07500 114.000
59.09000 115.000
59.10500 115.000
59.12000 109.000
59.13500 91.000
59.15000 80.000
59.16500 79.000
59.18000 60.000
59.19500 57.000
59.21000 57.000
59.22500 54.000
59.24000 48.000
59.25500 52.000
59.27000 47.000
59.28500 44.000
59.30000 58.000
59.31500 45.000
59.33000 38.000
59.34500 43.000
59.36000 55.000
59.37500 53.000
59.39000 53.000
59.40500 48.000
59.42000 44.000
59.43500 49.000
59.45000 41.000
59.46500 53.000
59.48000 45.000
59.49500 41.000
59.51000 52.000
59.52500 53.000
59.54000 45.000
59.55500 48.000
59.57000 44.000
59.58500 48.000
59.60000 48.000
59.61500 55.000
59.63000 42.000
59.64500 47.000
59.66000 54.000
59.67500 49.000
59.69000 50.000
59.70500 53.000
59.72000 66.000
59.73500 63.000
59.75000 71.000
59.76500 88.000
59.78000 68.000
59.79500 64.000
59.81000 49.000
59.82500 55.000
59.84000 57.000
59.85500 54.000
59.87000 61.000
59.88500 67.000
59.90000 68.000
59.91500 94.000
59.93000 93.000
59.94500 104.000
59.96000 108.000
59.97500 102.000
59.99000 95.000
60.00500 70.000
60.02000 64.000
60.03500 58.000
60.05000 52.000
60.06500 54.000
60.08000 46.000
60.09500 47.000
60.11000 61.000
60.12500 66.000
60.14000 67.000
60.15500 80.000
60.17000 89.000
60.18500 97.000
60.20000 90.000
60.21500 85.000
60.23000 60.000
60.24500 71.000
60.26000 63.000
60.27500 49.000
60.29000 49.000
60.30500 42.000
60.32000 47.000
60.33500 54.000
60.35000 55.000
60.36500 57.000
60.38000 73.000
60.39500 69.000
60.41000 106.000
60.42500 113.000
60.44000 122.000
60.45500 130.000
60.47000 113.000
60.48500 102.000
60.50000 92.000
60.51500 74.000
60.53000 62.000
60.54500 56.000
60.56000 52.000
60.57500 53.000
60.59000 61.000
60.60500 56.000
60.62000 50.000
60.63500 65.000
60.65000 58.000
60.66500 53.000
60.68000 55.000
60.69500 51.000
60.71000 48.000
60.72500 44.000
60.74000 48.000
60.75500 50.000
60.77000 42.000
60.78500 50.000
60.80000 60.000
60.81500 41.000
60.83000 46.000
60.84500 53.000
60.86000 49.000
60.87500 51.000
60.89000 45.000
60.90500 43.000
60.92000 53.000
60.93500 43.000
60.95000 38.000
60.96500 43.000
60.98000 61.000
60.99500 43.000
61.01000 46.000
61.02500 57.000
61.04000 57.000
61.05500 61.000
61.07000 64.000
61.08500 67.000
61.10000 63.000
61.11500 57.000
61.13000 58.000
61.14500 60.000
61.16000 62.000
61.17500 62.000
61.19000 52.000
61.20500 60.000
61.22000 62.000
61.23500 51.000
61.25000 57.000
61.26500 55.000
61.28000 49.000
61.29500 44.000
61.31000 46.000
61.32500 48.000
61.34000 44.000
61.35500 51.000
61.37000 49.000
61.38500 57.000
61.40000 52.000
61.41500 52.000
61.43000 49.000
61.44500 45.000
61.46000 57.000
61.47500 55.000
61.49000 55.000
61.50500 50.000
61.52000 47.000
61.53500 53.000
61.55000 64.000
61.56500 86.000
61.58000 117.000
61.59500 125.000
61.61000 128.000
61.62500 127.000
61.64000 133.000
61.65500 98.000
61.67000 85.000
61.68500 47.000
61.70000 49.000
61.71500 55.000
61.73000 50.000
61.74500 42.000
61.76000 42.000
61.77500 56.000
61.79000 50.000
61.80500 45.000
61.82000 42.000
61.83500 53.000
61.85000 59.000
61.86500 53.000
61.88000 52.000
61.89500 47.000
61.91000 38.000
61.92500 41.000
61.94000 47.000
61.95500 39.000
61.97000 41.000
61.98500 47.000
