2.00000 1.000
2.01500 0.000
2.03000 1.000
2.04500 3.000
2.06000 2.000
2.07500 1.000
2.09000 0.000
2.10500 1.000
2.12000 0.000
2.13500 0.000
2.15000 1.000
2.16500 0.000
2.18000 1.000
2.19500 1.000
2.21000 0.000
2.22500 1.000
2.24000 2.000
2.25500 1.000
2.27000 1.000
2.28500 2.000
2.30000 2.000
2.31500 0.000
2.33000 0.000
2.34500 1.000
2.36000 1.000
2.37500 2.000
2.39000 2.000
2.40500 1.000
2.42000 1.000
2.43500 1.000
2.45000 1.000
2.46500 2.000
2.48000 2.000
2.49500 3.000
2.51000 2.000
2.52500 1.000
2.54000 1.000
2.55500 1.000
2.57000 2.000
2.58500 2.000
2.60000 2.000
2.61500 0.000
2.63000 1.000
2.64500 0.000
2.66000 1.000
2.67500 0.000
2.69000 0.000
2.70500 1.000
2.72000 0.000
2.73500 0.000
2.75000 0.000
2.76500 1.000
2.78000 0.000
2.79500 1.000
2.81000 1.000
2.82500 1.000
2.84000 1.000
2.85500 1.000
2.87000 1.000
2.88500 1.000
2.90000 2.000
2.91500 1.000
2.93000 0.000
2.94500 0.000
2.96000 2.000
2.97500 1.000
2.99000 0.000
3.00500 0.000
3.02000 1.000
3.03500 0.000
3.05000 1.000
3.06500 1.000
3.08000 0.000
3.09500 0.000
3.11000 3.000
3.12500 8.000
3.14000 7.000
3.15500 12.000
3.17000 14.000
3.18500 16.000
3.20000 16.000
3.21500 18.000
3.23000 28.000
3.24500 20.000
3.26000 27.000
3.27500 30.000
3.29000 28.000
3.30500 32.000
3.32000 25.000
3.33500 35.000
3.35000 37.000
3.36500 34.000
3.38000 27.000
3.39500 29.000
3.41000 31.000
3.42500 34.000
3.44000 33.000
3.45500 39.000
3.47000 37.000
3.48500 29.000
3.50000 36.000
3.51500 27.000
3.53000 31.000
3.54500 37.000
3.56000 31.000
3.57500 34.000
3.59000 33.000
3.60500 36.000
3.62000 34.000
3.63500 40.000
3.65000 36.000
3.66500 38.000
3.68000 33.000
3.69500 33.000
3.71000 34.000
3.72500 40.000
3.74000 47.000
3.75500 44.000
3.77000 36.000
3.78500 31.000
3.80000 39.000
3.81500 36.000
3.83000 40.000
3.84500 35.000
3.86000 33.000
3.87500 34.000
3.89000 35.000
3.90500 42.000
3.92000 36.000
3.93500 34.000
3.95000 31.000
3.96500 34.000
3.98000 31.000
3.99500 34.000
4.01000 38.000
4.02500 43.000
4.04000 30.000
4.05500 25.000
4.07000 32.000
4.08500 37.000
4.10000 38.000
4.11500 31.000
4.13000 38.000
4.14500 43.000
4.16000 42.000
4.17500 45.000
4.19000 44.000
4.20500 35.000
4.22000 29.000
4.23500 35.000
4.25000 44.000
4.26500 38.000
4.28000 41.000
4.29500 38.000
4.31000 42.000
4.32500 40.000
4.34000 35.000
4.35500 45.000
4.37000 47.000
4.38500 41.000
4.40000 41.000
4.41500 39.000
4.43000 35.000
4.44500 47.000
4.46000 49.000
4.47500 42.000
4.49000 47.000
4.50500 39.000
4.52000 45.000
4.53500 36.000
4.55000 35.000
4.56500 41.000
4.58000 42.000
4.59500 45.000
4.61000 37.000
4.62500 41.000
4.64000 41.000
4.65500 38.000
4.67000 40.000
4.68500 52.000
4.70000 40.000
4.71500 34.000
4.73000 32.000
4.74500 47.000
4.76000 43.000
4.77500 48.000
4.79000 41.000
4.80500 33.000
4.82000 48.000
4.83500 40.000
4.85000 46.000
4.86500 39.000
4.88000 35.000
4.89500 42.000
4.91000 39.000
4.92500 38.000
4.94000 42.000
4.95500 49.000
4.97000 57.000
4.98500 39.000
5.00000 44.000
5.01500 51.000
5.03000 45.000
5.04500 38.000
5.06000 44.000
5.07500 33.000
5.09000 34.000
5.10500 45.000
5.12000 48.000
5.13500 52.000
5.15000 50.000
5.16500 48.000
5.18000 46.000
5.19500 43.000
5.21000 46.000
5.22500 42.000
5.24000 41.000
5.25500 34.000
5.27000 44.000
5.28500 42.000
5.30000 48.000
5.31500 42.000
5.33000 37.000
5.34500 34.000
5.36000 40.000
5.37500 46.000
5.39000 47.000
5.40500 43.000
5.42000 45.000
5.43500 36.000
5.45000 41.000
5.46500 45.000
5.48000 45.000
5.49500 49.000
5.51000 46.000
5.52500 50.000
5.54000 34.000
5.55500 35.000
5.57000 43.000
5.58500 46.000
5.60000 44.000
5.61500 45.000
5.63000 36.000
5.64500 41.000
5.66000 44.000
5.67500 38.000
5.69000 44.000
5.70500 42.000
5.72000 44.000
5.73500 40.000
5.75000 33.000
5.76500 44.000
5.78000 43.000
5.79500 47.000
5.81000 47.000
5.82500 48.000
5.84000 49.000
5.85500 47.000
5.87000 46.000
5.88500 40.000
5.90000 50.000
5.91500 45.000
5.93000 48.000
5.94500 44.000
5.96000 41.000
5.97500 41.000
5.99000 44.000
6.00500 50.000
6.02000 49.000
6.03500 40.000
6.05000 45.000
6.06500 52.000
6.08000 45.000
6.09500 45.000
6.11000 47.000
6.12500 46.000
6.14000 44.000
6.15500 41.000
6.17000 48.000
6.18500 43.000
6.20000 43.000
6.21500 46.000
6.23000 49.000
6.24500 44.000
6.26000 44.000
6.27500 51.000
6.29000 43.000
6.30500 54.000
6.32000 49.000
6.33500 50.000
6.35000 44.000
6.36500 41.000
6.38000 43.000
6.39500 39.000
6.41000 42.000
6.42500 53.000
6.44000 54.000
6.45500 58.000
6.47000 55.000
6.48500 55.000
6.50000 45.000
6.51500 42.000
6.53000 46.000
6.54500 45.000
6.56000 50.000
6.57500 55.000
6.59000 58.000
6.60500 42.000
6.62000 45.000
6.63500 48.000
6.65000 58.000
6.66500 44.000
6.68000 41.000
6.69500 50.000
6.71000 46.000
6.72500 52.000
6.74000 60.000
6.75500 47.000
6.77000 45.000
6.78500 41.000
6.80000 48.000
6.81500 38.000
6.83000 43.000
6.84500 44.000
6.86000 47.000
6.87500 49.000
6.89000 48.000
6.90500 41.000
6.92000 44.000
6.93500 42.000
6.95000 38.000
6.96500 50.000
6.98000 49.000
6.99500 50.000
7.01000 53.000
7.02500 45.000
7.04000 51.000
7.05500 58.000
7.07000 48.000
7.08500 45.000
7.10000 49.000
7.11500 49.000
7.13000 53.000
7.14500 51.000
7.16000 42.000
7.17500 40.000
7.19000 48.000
7.20500 50.000
7.22000 38.000
7.23500 47.000
7.25000 48.000
7.26500 50.000
7.28000 46.000
7.29500 46.000
7.31000 46.000
7.32500 46.000
7.34000 45.000
7.35500 54.000
7.37000 47.000
7.38500 55.000
7.40000 45.000
7.41500 35.000
7.43000 49.000
7.44500 47.000
7.46000 47.000
7.47500 48.000
7.49000 54.000
7.50500 43.000
7.52000 47.000
7.53500 50.000
7.55000 40.000
7.56500 47.000
7.58000 54.000
7.59500 50.000
7.61000 53.000
7.62500 58.000
7.64000 58.000
7.65500 51.000
7.67000 53.000
7.68500 51.000
7.70000 55.000
7.71500 58.000
7.73000 54.000
7.74500 54.000
7.76000 55.000
7.77500 54.000
7.79000 53.000
7.80500 53.000
7.82000 52.000
7.83500 50.000
7.85000 56.000
7.86500 46.000
7.88000 50.000
7.89500 54.000
7.91000 63.000
7.92500 60.000
7.94000 58.000
7.95500 59.000
7.97000 53.000
7.98500 49.000
8.00000 48.000
8.01500 44.000
8.03000 48.000
8.04500 43.000
8.06000 56.000
8.07500 63.000
8.09000 56.000
8.10500 52.000
8.12000 51.000
8.13500 46.000
8.15000 72.000
8.16500 65.000
8.18000 48.000
8.19500 63.000
8.21000 71.000
8.22500 63.000
8.24000 47.000
8.25500 58.000
8.27000 56.000
8.28500 59.000
8.30000 53.000
8.31500 59.000
8.33000 56.000
8.34500 44.000
8.36000 51.000
8.37500 61.000
8.39000 63.000
8.40500 59.000
8.42000 49.000
8.43500 46.000
8.45000 54.000
8.46500 63.000
8.48000 55.000
8.49500 51.000
8.51000 51.000
8.52500 56.000
8.54000 61.000
8.55500 56.000
8.57000 59.000
8.58500 48.000
8.60000 49.000
8.61500 51.000
8.63000 45.000
8.64500 43.000
8.66000 46.000
8.67500 59.000
8.69000 52.000
8.70500 50.000
8.72000 56.000
8.73500 63.000
8.75000 53.000
8.76500 52.000
8.78000 56.000
8.79500 54.000
8.81000 54.000
8.82500 55.000
8.84000 57.000
8.85500 63.000
8.87000 58.000
8.88500 49.000
8.90000 62.000
8.91500 55.000
8.93000 54.000
8.94500 48.000
8.96000 48.000
8.97500 45.000
8.99000 51.000
9.00500 61.000
9.02000 61.000
9.03500 55.000
9.05000 62.000
9.06500 55.000
9.08000 53.000
9.09500 59.000
9.11000 57.000
9.12500 56.000
9.14000 50.000
9.15500 59.000
9.17000 61.000
9.18500 51.000
9.20000 54.000
9.21500 64.000
9.23000 56.000
9.24500 53.000
9.26000 53.000
9.27500 60.000
9.29000 47.000
9.30500 50.000
9.32000 58.000
9.33500 60.000
9.35000 61.000
9.36500 58.000
9.38000 60.000
9.39500 52.000
9.41000 45.000
9.42500 52.000
9.44000 56.000
9.45500 50.000
9.47000 57.000
9.48500 57.000
9.50000 58.000
9.51500 63.000
9.53000 49.000
9.54500 44.000
9.56000 68.000
9.57500 69.000
9.59000 48.000
9.60500 62.000
9.62000 57.000
9.63500 60.000
9.65000 55.000
9.66500 57.000
9.68000 52.000
9.69500 49.000
9.71000 52.000
9.72500 60.000
9.74000 51.000
9.75500 62.000
9.77000 58.000
9.78500 66.000
9.80000 59.000
9.81500 48.000
9.83000 52.000
9.84500 54.000
9.86000 62.000
9.87500 61.000
9.89000 51.000
9.90500 49.000
9.92000 50.000
9.93500 49.000
9.95000 54.000
9.96500 54.000
9.98000 58.000
9.99500 54.000
10.01000 56.000
10.02500 54.000
10.04000 60.000
10.05500 52.000
10.07000 55.000
10.08500 61.000
10.10000 52.000
10.11500 54.000
10.13000 54.000
10.14500 59.000
10.16000 58.000
10.17500 55.000
10.19000 51.000
10.20500 51.000
10.22000 54.000
10.23500 65.000
10.25000 65.000
10.26500 62.000
10.28000 49.000
10.29500 42.000
10.31000 50.000
10.32500 58.000
10.34000 47.000
10.35500 47.000
10.37000 57.000
10.38500 53.000
10.40000 41.000
10.41500 39.000
10.43000 54.000
10.44500 52.000
10.46000 49.000
10.47500 56.000
10.49000 62.000
10.50500 62.000
10.52000 48.000
10.53500 49.000
10.55000 54.000
10.56500 62.000
10.58000 64.000
10.59500 60.000
10.61000 45.000
10.62500 53.000
10.64000 52.000
10.65500 66.000
10.67000 46.000
10.68500 46.000
10.70000 51.000
10.71500 54.000
10.73000 57.000
10.74500 56.000
10.76000 57.000
10.77500 52.000
10.79000 52.000
10.80500 52.000
10.82000 48.000
10.83500 52.000
10.85000 59.000
10.86500 60.000
10.88000 60.000
10.89500 52.000
10.91000 59.000
10.92500 56.000
10.94000 57.000
10.95500 49.000
10.97000 57.000
10.98500 52.000
11.00000 47.000
11.01500 47.000
11.03000 54.000
11.04500 61.000
11.06000 45.000
11.07500 53.000
11.09000 51.000
11.10500 52.000
11.12000 58.000
11.13500 55.000
11.15000 60.000
11.16500 58.000
11.18000 60.000
11.19500 55.000
11.21000 66.000
11.22500 60.000
11.24000 68.000
11.25500 63.000
11.27000 62.000
11.28500 52.000
11.30000 63.000
11.31500 67.000
11.33000 89.000
11.34500 90.000
11.36000 88.000
11.37500 115.000
11.39000 138.000
11.40500 140.000
11.42000 157.000
11.43500 194.000
11.45000 249.000
11.46500 266.000
11.48000 207.000
11.49500 138.000
11.51000 85.000
11.52500 63.000
11.54000 54.000
11.55500 56.000
11.57000 57.000
11.58500 66.000
11.60000 53.000
11.61500 48.000
11.63000 60.000
11.64500 58.000
11.66000 59.000
11.67500 55.000
11.69000 55.000
11.70500 58.000
11.72000 49.000
11.73500 55.000
11.75000 51.000
11.76500 66.000
11.78000 66.000
11.79500 60.000
11.81000 54.000
11.82500 62.000
11.84000 56.000
11.85500 62.000
11.87000 53.000
11.88500 69.000
11.90000 50.000
11.91500 63.000
11.93000 54.000
11.94500 49.000
11.96000 64.000
11.97500 63.000
11.99000 54.000
12.00500 44.000
12.02000 60.000
12.03500 59.000
12.05000 56.000
12.06500 61.000
12.08000 53.000
12.09500 58.000
12.11000 61.000
12.12500 61.000
12.14000 62.000
12.15500 66.000
12.17000 56.000
12.18500 63.000
12.20000 63.000
12.21500 63.000
12.23000 56.000
12.24500 66.000
12.26000 69.000
12.27500 64.000
12.29000 58.000
12.30500 59.000
12.32000 51.000
12.33500 58.000
12.35000 56.000
12.36500 55.000
12.38000 59.000
12.39500 62.000
12.41000 66.000
12.42500 50.000
12.44000 60.000
12.45500 66.000
12.47000 62.000
12.48500 67.000
12.50000 67.000
12.51500 60.000
12.53000 56.000
12.54500 51.000
12.56000 67.000
12.57500 53.000
12.59000 57.000
12.60500 58.000
12.62000 71.000
12.63500 59.000
12.65000 54.000
12.66500 53.000
12.68000 57.000
12.69500 57.000
12.71000 54.000
12.72500 49.000
12.74000 60.000
12.75500 60.000
12.77000 62.000
12.78500 66.000
12.80000 66.000
12.81500 63.000
12.83000 59.000
12.84500 57.000
12.86000 59.000
12.87500 70.000
12.89000 62.000
12.90500 52.000
12.92000 57.000
12.93500 52.000
12.95000 55.000
12.96500 63.000
12.98000 52.000
12.99500 54.000
13.01000 49.000
13.02500 58.000
13.04000 52.000
13.05500 50.000
13.07000 50.000
13.08500 51.000
13.10000 58.000
13.11500 59.000
13.13000 48.000
13.14500 57.000
13.16000 53.000
13.17500 54.000
13.19000 60.000
13.20500 59.000
13.22000 62.000
13.23500 63.000
13.25000 69.000
13.26500 61.000
13.28000 56.000
13.29500 65.000
13.31000 70.000
13.32500 56.000
13.34000 62.000
13.35500 72.000
13.37000 58.000
13.38500 59.000
13.40000 66.000
13.41500 73.000
13.43000 69.000
13.44500 62.000
13.46000 63.000
13.47500 61.000
13.49000 60.000
13.50500 68.000
13.52000 63.000
13.53500 64.000
13.55000 67.000
13.56500 60.000
13.58000 67.000
13.59500 64.000
13.61000 58.000
13.62500 61.000
13.64000 62.000
13.65500 70.000
13.67000 60.000
13.68500 59.000
13.70000 65.000
13.71500 63.000
13.73000 67.000
13.74500 67.000
13.76000 67.000
13.77500 64.000
13.79000 67.000
13.80500 67.000
13.82000 67.000
13.83500 59.000
13.85000 73.000
13.86500 58.000
13.88000 61.000
13.89500 61.000
13.91000 55.000
13.92500 66.000
13.94000 65.000
13.95500 58.000
13.97000 49.000
13.98500 57.000
14.00000 61.000
14.01500 74.000
14.03000 67.000
14.04500 64.000
14.06000 62.000
14.07500 64.000
14.09000 63.000
14.10500 73.000
14.12000 74.000
14.13500 70.000
14.15000 73.000
14.16500 64.000
14.18000 73.000
14.19500 66.000
14.21000 68.000
14.22500 59.000
14.24000 62.000
14.25500 58.000
14.27000 74.000
14.28500 73.000
14.30000 67.000
14.31500 64.000
14.33000 56.000
14.34500 80.000
14.36000 80.000
14.37500 70.000
14.39000 67.000
14.40500 61.000
14.42000 72.000
14.43500 74.000
14.45000 69.000
14.46500 70.000
14.48000 61.000
14.49500 71.000
14.51000 73.000
14.52500 68.000
14.54000 60.000
14.55500 57.000
14.57000 63.000
14.58500 69.000
14.60000 64.000
14.61500 67.000
14.63000 76.000
14.64500 67.000
14.66000 63.000
14.67500 64.000
14.69000 61.000
14.70500 66.000
14.72000 69.000
14.73500 60.000
14.75000 60.000
14.76500 68.000
14.78000 73.000
14.79500 71.000
14.81000 58.000
14.82500 59.000
14.84000 69.000
14.85500 71.000
14.87000 70.000
14.88500 68.000
14.90000 55.000
14.91500 62.000
14.93000 59.000
14.94500 59.000
14.96000 67.000
14.97500 69.000
14.99000 62.000
15.00500 64.000
15.02000 61.000
15.03500 63.000
15.05000 70.000
15.06500 75.000
15.08000 65.000
15.09500 57.000
15.11000 67.000
15.12500 68.000
15.14000 70.000
15.15500 65.000
15.17000 76.000
15.18500 68.000
15.20000 78.000
15.21500 94.000
15.23000 82.000
15.24500 109.000
15.26000 111.000
15.27500 149.000
15.29000 169.000
15.30500 229.000
15.32000 295.000
15.33500 387.000
15.35000 532.000
15.36500 586.000
15.38000 563.000
15.39500 422.000
15.41000 251.000
15.42500 171.000
15.44000 116.000
15.45500 123.000
15.47000 145.000
15.48500 143.000
15.50000 176.000
15.51500 225.000
15.53000 232.000
15.54500 231.000
15.56000 201.000
15.57500 134.000
15.59000 94.000
15.60500 75.000
15.62000 70.000
15.63500 78.000
15.65000 62.000
15.66500 55.000
15.68000 54.000
15.69500 57.000
15.71000 59.000
15.72500 56.000
15.74000 62.000
15.75500 73.000
15.77000 63.000
15.78500 58.000
15.80000 60.000
15.81500 53.000
15.83000 62.000
15.84500 61.000
15.86000 55.000
15.87500 65.000
15.89000 64.000
15.90500 62.000
15.92000 65.000
15.93500 61.000
15.95000 59.000
15.96500 45.000
15.98000 61.000
15.99500 67.000
16.01000 75.000
16.02500 63.000
16.04000 55.000
16.05500 58.000
16.07000 62.000
16.08500 67.000
16.10000 58.000
16.11500 56.000
16.13000 72.000
16.14500 58.000
16.16000 48.000
16.17500 55.000
16.19000 75.000
16.20500 77.000
16.22000 69.000
16.23500 63.000
16.25000 62.000
16.26500 66.000
16.28000 74.000
16.29500 63.000
16.31000 60.000
16.32500 61.000
16.34000 60.000
16.35500 65.000
16.37000 65.000
16.38500 65.000
16.40000 75.000
16.41500 56.000
16.43000 57.000
16.44500 64.000
16.46000 75.000
16.47500 65.000
16.49000 62.000
16.50500 69.000
16.52000 66.000
16.53500 47.000
16.55000 57.000
16.56500 60.000
16.58000 80.000
16.59500 60.000
16.61000 53.000
16.62500 64.000
16.64000 57.000
16.65500 66.000
16.67000 56.000
16.68500 54.000
16.70000 61.000
16.71500 72.000
16.73000 69.000
16.74500 67.000
16.76000 69.000
16.77500 64.000
16.79000 64.000
16.80500 62.000
16.82000 65.000
16.83500 70.000
16.85000 70.000
16.86500 53.000
16.88000 68.000
16.89500 69.000
16.91000 65.000
16.92500 59.000
16.94000 60.000
16.95500 66.000
16.97000 68.000
16.98500 60.000
17.00000 67.000
17.01500 67.000
17.03000 66.000
17.04500 64.000
17.06000 71.000
17.07500 65.000
17.09000 62.000
17.10500 63.000
17.12000 68.000
17.13500 76.000
17.15000 87.000
17.16500 77.000
17.18000 54.000
17.19500 75.000
17.21000 66.000
17.22500 60.000
17.24000 60.000
17.25500 58.000
17.27000 62.000
17.28500 50.000
17.30000 66.000
17.31500 74.000
17.33000 56.000
17.34500 63.000
17.36000 69.000
17.37500 62.000
17.39000 74.000
17.40500 64.000
17.42000 62.000
17.43500 53.000
17.45000 59.000
17.46500 63.000
17.48000 62.000
17.49500 67.000
17.51000 61.000
17.52500 63.000
17.54000 63.000
17.55500 53.000
17.57000 70.000
17.58500 71.000
17.60000 67.000
17.61500 67.000
17.63000 51.000
17.64500 61.000
17.66000 61.000
17.67500 67.000
17.69000 56.000
17.70500 63.000
17.72000 62.000
17.73500 66.000
17.75000 70.000
17.76500 67.000
17.78000 59.000
17.79500 70.000
17.81000 64.000
17.82500 80.000
17.84000 70.000
17.85500 66.000
17.87000 59.000
17.88500 62.000
17.90000 68.000
17.91500 70.000
17.93000 73.000
17.94500 70.000
17.96000 68.000
17.97500 72.000
17.99000 70.000
18.00500 71.000
18.02000 61.000
18.03500 61.000
18.05000 56.000
18.06500 70.000
18.08000 69.000
18.09500 58.000
18.11000 62.000
18.12500 51.000
18.14000 56.000
18.15500 62.000
18.17000 72.000
18.18500 60.000
18.20000 74.000
18.21500 77.000
18.23000 71.000
18.24500 58.000
18.26000 64.000
18.27500 68.000
18.29000 62.000
18.30500 57.000
18.32000 68.000
18.33500 66.000
18.35000 78.000
18.36500 89.000
18.38000 105.000
18.39500 118.000
18.41000 132.000
18.42500 114.000
18.44000 100.000
18.45500 68.000
18.47000 79.000
18.48500 73.000
18.50000 76.000
18.51500 73.000
18.53000 62.000
18.54500 56.000
18.56000 61.000
18.57500 62.000
18.59000 57.000
18.60500 63.000
18.62000 57.000
18.63500 69.000
18.65000 73.000
18.66500 64.000
18.68000 54.000
18.69500 54.000
18.71000 61.000
18.72500 53.000
18.74000 65.000
18.75500 60.000
18.77000 67.000
18.78500 80.000
18.80000 64.000
18.81500 75.000
18.83000 70.000
18.84500 60.000
18.86000 59.000
18.87500 61.000
18.89000 61.000
18.90500 62.000
18.92000 62.000
18.93500 68.000
18.95000 56.000
18.96500 57.000
18.98000 68.000
18.99500 68.000
19.01000 78.000
19.02500 62.000
19.04000 59.000
19.05500 66.000
19.07000 65.000
19.08500 75.000
19.10000 77.000
19.11500 62.000
19.13000 60.000
19.14500 47.000
19.16000 65.000
19.17500 67.000
19.19000 60.000
19.20500 54.000
19.22000 71.000
19.23500 65.000
19.25000 71.000
19.26500 66.000
19.28000 67.000
19.29500 66.000
19.31000 58.000
19.32500 65.000
19.34000 76.000
19.35500 73.000
19.37000 59.000
19.38500 69.000
19.40000 65.000
19.41500 63.000
19.43000 66.000
19.44500 74.000
19.46000 65.000
19.47500 72.000
19.49000 71.000
19.50500 56.000
19.52000 63.000
19.53500 75.000
19.55000 69.000
19.56500 69.000
19.58000 63.000
19.59500 58.000
19.61000 62.000
19.62500 72.000
19.64000 66.000
19.65500 65.000
19.67000 65.000
19.68500 71.000
19.70000 73.000
19.71500 53.000
19.73000 66.000
19.74500 75.000
19.76000 66.000
19.77500 65.000
19.79000 64.000
19.80500 66.000
19.82000 83.000
19.83500 70.000
19.85000 70.000
19.86500 54.000
19.88000 71.000
19.89500 66.000
19.91000 64.000
19.92500 70.000
19.94000 69.000
19.95500 78.000
19.97000 82.000
19.98500 86.000
20.00000 78.000
20.01500 86.000
20.03000 76.000
20.04500 78.000
20.06000 73.000
20.07500 74.000
20.09000 80.000
20.10500 86.000
20.12000 87.000
20.13500 101.000
20.15000 98.000
20.16500 95.000
20.18000 94.000
20.19500 109.000
20.21000 102.000
20.22500 106.000
20.24000 92.000
20.25500 88.000
20.27000 89.000
20.28500 85.000
20.30000 89.000
20.31500 101.000
20.33000 88.000
20.34500 74.000
20.36000 88.000
20.37500 80.000
20.39000 83.000
20.40500 83.000
20.42000 81.000
20.43500 83.000
20.45000 83.000
20.46500 77.000
20.48000 80.000
20.49500 85.000
20.51000 71.000
20.52500 80.000
20.54000 81.000
20.55500 85.000
20.57000 80.000
20.58500 89.000
20.60000 67.000
20.61500 72.000
20.63000 80.000
20.64500 73.000
20.66000 73.000
20.67500 70.000
20.69000 81.000
20.70500 71.000
20.72000 69.000
20.73500 77.000
20.75000 79.000
20.76500 78.000
20.78000 75.000
20.79500 81.000
20.81000 68.000
20.82500 67.000
20.84000 79.000
20.85500 69.000
20.87000 69.000
20.88500 68.000
20.90000 78.000
20.91500 80.000
20.93000 75.000
20.94500 66.000
20.96000 76.000
20.97500 74.000
20.99000 86.000
21.00500 81.000
21.02000 72.000
21.03500 84.000
21.05000 72.000
21.06500 71.000
21.08000 82.000
21.09500 92.000
21.11000 107.000
21.12500 131.000
21.14000 154.000
21.15500 164.000
21.17000 139.000
21.18500 132.000
21.20000 125.000
21.21500 101.000
21.23000 86.000
21.24500 91.000
21.26000 74.000
21.27500 73.000
21.29000 92.000
21.30500 86.000
21.32000 81.000
21.33500 86.000
21.35000 87.000
21.36500 79.000
21.38000 77.000
21.39500 73.000
21.41000 79.000
21.42500 73.000
21.44000 80.000
21.45500 80.000
21.47000 65.000
21.48500 67.000
21.50000 72.000
21.51500 76.000
21.53000 95.000
21.54500 85.000
21.56000 91.000
21.57500 87.000
21.59000 74.000
21.60500 85.000
21.62000 90.000
21.63500 79.000
21.65000 75.000
21.66500 88.000
21.68000 85.000
21.69500 88.000
21.71000 94.000
21.72500 107.000
21.74000 118.000
21.75500 125.000
21.77000 146.000
21.78500 179.000
21.80000 225.000
21.81500 293.000
21.83000 369.000
21.84500 414.000
21.86000 462.000
21.87500 431.000
21.89000 379.000
21.90500 289.000
21.92000 168.000
21.93500 136.000
21.95000 106.000
21.96500 86.000
21.98000 82.000
21.99500 79.000
22.01000 70.000
22.02500 79.000
22.04000 85.000
22.05500 61.000
22.07000 74.000
22.08500 93.000
22.10000 82.000
22.11500 92.000
22.13000 79.000
22.14500 86.000
22.16000 85.000
22.17500 76.000
22.19000 76.000
22.20500 88.000
22.22000 74.000
22.23500 79.000
22.25000 86.000
22.26500 72.000
22.28000 88.000
22.29500 83.000
22.31000 75.000
22.32500 85.000
22.34000 85.000
22.35500 94.000
22.37000 93.000
22.38500 84.000
22.40000 96.000
22.41500 83.000
22.43000 96.000
22.44500 99.000
22.46000 90.000
22.47500 94.000
22.49000 88.000
22.50500 103.000
22.52000 116.000
22.53500 124.000
22.55000 141.000
22.56500 178.000
22.58000 202.000
22.59500 251.000
22.61000 313.000
22.62500 367.000
22.64000 431.000
22.65500 501.000
22.67000 473.000
22.68500 456.000
22.70000 359.000
22.71500 251.000
22.73000 171.000
22.74500 149.000
22.76000 117.000
22.77500 124.000
22.79000 113.000
22.80500 117.000
22.82000 115.000
22.83500 136.000
22.85000 119.000
22.86500 130.000
22.88000 149.000
22.89500 175.000
22.91000 249.000
22.92500 351.000
22.94000 489.000
22.95500 658.000
22.97000 917.000
22.98500 1323.000
23.00000 1696.000
23.01500 2279.000
23.03000 2824.000
23.04500 3308.000
23.06000 3281.000
23.07500 2619.000
23.09000 1758.000
23.10500 968.000
23.12000 559.000
23.13500 342.000
23.15000 218.000
23.16500 169.000
23.18000 154.000
23.19500 118.000
23.21000 126.000
23.22500 109.000
23.24000 107.000
23.25500 120.000
23.27000 119.000
23.28500 108.000
23.30000 100.000
23.31500 104.000
23.33000 108.000
23.34500 103.000
23.36000 97.000
23.37500 99.000
23.39000 100.000
23.40500 117.000
23.42000 110.000
23.43500 106.000
23.45000 100.000
23.46500 117.000
23.48000 130.000
23.49500 130.000
23.51000 113.000
23.52500 122.000
23.54000 116.000
23.55500 118.000
23.57000 132.000
23.58500 141.000
23.60000 131.000
23.61500 145.000
23.63000 142.000
23.64500 150.000
23.66000 147.000
23.67500 141.000
23.69000 135.000
23.70500 132.000
23.72000 126.000
23.73500 142.000
23.75000 146.000
23.76500 123.000
23.78000 126.000
23.79500 124.000
23.81000 124.000
23.82500 127.000
23.84000 121.000
23.85500 115.000
23.87000 117.000
23.88500 118.000
23.90000 118.000
23.91500 125.000
23.93000 118.000
23.94500 117.000
23.96000 106.000
23.97500 121.000
23.99000 125.000
24.00500 123.000
24.02000 119.000
24.03500 123.000
24.05000 131.000
24.06500 135.000
24.08000 152.000
24.09500 139.000
24.11000 144.000
24.12500 129.000
24.14000 129.000
24.15500 132.000
24.17000 126.000
24.18500 141.000
24.20000 152.000
24.21500 147.000
24.23000 136.000
24.24500 153.000
24.26000 131.000
24.27500 131.000
24.29000 145.000
24.30500 146.000
24.32000 148.000
24.33500 138.000
24.35000 134.000
24.36500 124.000
24.38000 127.000
24.39500 122.000
24.41000 118.000
24.42500 97.000
24.44000 121.000
24.45500 114.000
24.47000 119.000
24.48500 110.000
24.50000 108.000
24.51500 101.000
24.53000 114.000
24.54500 115.000
24.56000 98.000
24.57500 105.000
24.59000 100.000
24.60500 114.000
24.62000 118.000
24.63500 112.000
24.65000 88.000
24.66500 98.000
24.68000 92.000
24.69500 90.000
24.71000 103.000
24.72500 111.000
24.74000 115.000
24.75500 101.000
24.77000 117.000
24.78500 131.000
24.80000 127.000
24.81500 140.000
24.83000 156.000
24.84500 172.000
24.86000 239.000
24.87500 268.000
24.89000 349.000
24.90500 356.000
24.92000 374.000
24.93500 312.000
24.95000 244.000
24.96500 165.000
24.98000 151.000
24.99500 120.000
25.01000 114.000
25.02500 108.000
25.04000 95.000
25.05500 106.000
25.07000 95.000
25.08500 86.000
25.10000 108.000
25.11500 102.000
25.13000 96.000
25.14500 100.000
25.16000 109.000
25.17500 90.000
25.19000 102.000
25.20500 105.000
25.22000 93.000
25.23500 96.000
25.25000 100.000
25.26500 101.000
25.28000 100.000
25.29500 102.000
25.31000 99.000
25.32500 112.000
25.34000 101.000
25.35500 88.000
25.37000 90.000
25.38500 103.000
25.40000 101.000
25.41500 92.000
25.43000 102.000
25.44500 109.000
25.46000 97.000
25.47500 92.000
25.49000 108.000
25.50500 116.000
25.52000 106.000
25.53500 116.000
25.55000 105.000
25.56500 116.000
25.58000 126.000
25.59500 117.000
25.61000 123.000
25.62500 134.000
25.64000 142.000
25.65500 166.000
25.67000 170.000
25.68500 200.000
25.70000 212.000
25.71500 236.000
25.73000 316.000
25.74500 448.000
25.76000 577.000
25.77500 836.000
25.79000 1152.000
25.80500 1535.000
25.82000 1699.000
25.83500 1556.000
25.85000 1186.000
25.86500 715.000
25.88000 405.000
25.89500 242.000
25.91000 186.000
25.92500 133.000
25.94000 126.000
25.95500 117.000
25.97000 123.000
25.98500 117.000
26.00000 111.000
26.01500 120.000
26.03000 137.000
26.04500 109.000
26.06000 106.000
26.07500 95.000
26.09000 96.000
26.10500 107.000
26.12000 104.000
26.13500 88.000
26.15000 118.000
26.16500 124.000
26.18000 126.000
26.19500 120.000
26.21000 114.000
26.22500 118.000
26.24000 140.000
26.25500 136.000
26.27000 170.000
26.28500 201.000
26.30000 202.000
26.31500 204.000
26.33000 197.000
26.34500 167.000
26.36000 132.000
26.37500 125.000
26.39000 119.000
26.40500 121.000
26.42000 114.000
26.43500 120.000
26.45000 105.000
26.46500 109.000
26.48000 115.000
26.49500 120.000
26.51000 125.000
26.52500 131.000
26.54000 134.000
26.55500 153.000
26.57000 188.000
26.58500 227.000
26.60000 271.000
26.61500 296.000
26.63000 394.000
26.64500 512.000
26.66000 637.000
26.67500 833.000
26.69000 890.000
26.70500 795.000
26.72000 622.000
26.73500 455.000
26.75000 313.000
26.76500 217.000
26.78000 163.000
26.79500 151.000
26.81000 143.000
26.82500 134.000
26.84000 121.000
26.85500 122.000
26.87000 125.000
26.88500 119.000
26.90000 131.000
26.91500 137.000
26.93000 120.000
26.94500 120.000
26.96000 129.000
26.97500 140.000
26.99000 147.000
27.00500 150.000
27.02000 137.000
27.03500 126.000
27.05000 144.000
27.06500 134.000
27.08000 125.000
27.09500 128.000
27.11000 146.000
27.12500 146.000
27.14000 141.000
27.15500 147.000
27.17000 144.000
27.18500 161.000
27.20000 167.000
27.21500 155.000
27.23000 144.000
27.24500 150.000
27.26000 144.000
27.27500 157.000
27.29000 172.000
27.30500 166.000
27.32000 176.000
27.33500 162.000
27.35000 171.000
27.36500 163.000
27.38000 182.000
27.39500 184.000
27.41000 182.000
27.42500 179.000
27.44000 183.000
27.45500 176.000
27.47000 194.000
27.48500 190.000
27.50000 222.000
27.51500 245.000
27.53000 253.000
27.54500 266.000
27.56000 314.000
27.57500 348.000
27.59000 435.000
27.60500 533.000
27.62000 689.000
27.63500 870.000
27.65000 1107.000
27.66500 1342.000
27.68000 1548.000
27.69500 1593.000
27.71000 1628.000
27.72500 1476.000
27.74000 1281.000
27.75500 1036.000
27.77000 729.000
27.78500 558.000
27.80000 430.000
27.81500 366.000
27.83000 282.000
27.84500 297.000
27.86000 252.000
27.87500 221.000
27.89000 209.000
27.90500 219.000
27.92000 204.000
27.93500 189.000
27.95000 195.000
27.96500 184.000
27.98000 182.000
27.99500 182.000
28.01000 188.000
28.02500 179.000
28.04000 177.000
28.05500 168.000
28.07000 162.000
28.08500 163.000
28.10000 139.000
28.11500 150.000
28.13000 171.000
28.14500 169.000
28.16000 146.000
28.17500 135.000
28.19000 158.000
28.20500 149.000
28.22000 129.000
28.23500 122.000
28.25000 133.000
28.26500 130.000
28.28000 112.000
28.29500 129.000
28.31000 118.000
28.32500 118.000
28.34000 114.000
28.35500 119.000
28.37000 118.000
28.38500 131.000
28.40000 131.000
28.41500 113.000
28.43000 108.000
28.44500 108.000
28.46000 112.000
28.47500 119.000
28.49000 121.000
28.50500 137.000
28.52000 153.000
28.53500 178.000
28.55000 222.000
28.56500 289.000
28.58000 362.000
28.59500 465.000
28.61000 583.000
28.62500 672.000
28.64000 803.000
28.65500 824.000
28.67000 664.000
28.68500 513.000
28.70000 378.000
28.71500 248.000
28.73000 187.000
28.74500 162.000
28.76000 128.000
28.77500 134.000
28.79000 131.000
28.80500 153.000
28.82000 167.000
28.83500 197.000
28.85000 264.000
28.86500 351.000
28.88000 432.000
28.89500 558.000
28.91000 608.000
28.92500 603.000
28.94000 548.000
28.95500 453.000
28.97000 315.000
28.98500 242.000
29.00000 171.000
29.01500 135.000
29.03000 121.000
29.04500 135.000
29.06000 119.000
29.07500 141.000
29.09000 132.000
29.10500 144.000
29.12000 134.000
29.13500 139.000
29.15000 170.000
29.16500 154.000
29.18000 117.000
29.19500 125.000
29.21000 123.000
29.22500 125.000
29.24000 100.000
29.25500 96.000
29.27000 118.000
29.28500 125.000
29.30000 108.000
29.31500 110.000
29.33000 103.000
29.34500 104.000
29.36000 115.000
29.37500 117.000
29.39000 108.000
29.40500 102.000
29.42000 111.000
29.43500 123.000
29.45000 113.000
29.46500 94.000
29.48000 98.000
29.49500 95.000
29.51000 105.000
29.52500 113.000
29.54000 109.000
29.55500 114.000
29.57000 97.000
29.58500 114.000
29.60000 104.000
29.61500 105.000
29.63000 100.000
29.64500 101.000
29.66000 94.000
29.67500 102.000
29.69000 98.000
29.70500 100.000
29.72000 105.000
29.73500 105.000
29.75000 109.000
29.76500 91.000
29.78000 108.000
29.79500 96.000
29.81000 99.000
29.82500 103.000
29.84000 118.000
29.85500 106.000
29.87000 95.000
29.88500 92.000
29.90000 90.000
29.91500 111.000
29.93000 102.000
29.94500 88.000
29.96000 91.000
29.97500 103.000
29.99000 95.000
30.00500 111.000
30.02000 113.000
30.03500 96.000
30.05000 80.000
30.06500 92.000
30.08000 97.000
30.09500 106.000
30.11000 103.000
30.12500 102.000
30.14000 89.000
30.15500 96.000
30.17000 95.000
30.18500 93.000
30.20000 109.000
30.21500 94.000
30.23000 85.000
30.24500 100.000
30.26000 97.000
30.27500 84.000
30.29000 91.000
30.30500 89.000
30.32000 88.000
30.33500 107.000
30.35000 101.000
30.36500 111.000
30.38000 92.000
30.39500 94.000
30.41000 87.000
30.42500 77.000
30.44000 90.000
30.45500 95.000
30.47000 91.000
30.48500 97.000
30.50000 91.000
30.51500 84.000
30.53000 88.000
30.54500 93.000
30.56000 74.000
30.57500 104.000
30.59000 107.000
30.60500 95.000
30.62000 93.000
30.63500 92.000
30.65000 100.000
30.66500 103.000
30.68000 99.000
30.69500 90.000
30.71000 102.000
30.72500 94.000
30.74000 98.000
30.75500 77.000
30.77000 102.000
30.78500 104.000
30.80000 101.000
30.81500 101.000
30.83000 95.000
30.84500 96.000
30.86000 99.000
30.87500 97.000
30.89000 99.000
30.90500 96.000
30.92000 82.000
30.93500 101.000
30.95000 93.000
30.96500 81.000
30.98000 89.000
30.99500 103.000
31.01000 85.000
31.02500 78.000
31.04000 80.000
31.05500 90.000
31.07000 109.000
31.08500 98.000
31.10000 92.000
31.11500 88.000
31.13000 89.000
31.14500 81.000
31.16000 75.000
31.17500 103.000
31.19000 99.000
31.20500 89.000
31.22000 99.000
31.23500 117.000
31.25000 128.000
31.26500 153.000
31.28000 186.000
31.29500 229.000
31.31000 266.000
31.32500 351.000
31.34000 429.000
31.35500 511.000
31.37000 545.000
31.38500 556.000
31.40000 492.000
31.41500 373.000
31.43000 276.000
31.44500 195.000
31.46000 145.000
31.47500 114.000
31.49000 101.000
31.50500 88.000
31.52000 99.000
31.53500 95.000
31.55000 92.000
31.56500 93.000
31.58000 77.000
31.59500 86.000
31.61000 77.000
31.62500 77.000
31.64000 86.000
31.65500 75.000
31.67000 72.000
31.68500 82.000
31.70000 79.000
31.71500 84.000
31.73000 78.000
31.74500 73.000
31.76000 80.000
31.77500 84.000
31.79000 75.000
31.80500 88.000
31.82000 90.000
31.83500 77.000
31.85000 79.000
31.86500 87.000
31.88000 70.000
31.89500 74.000
31.91000 88.000
31.92500 86.000
31.94000 77.000
31.95500 69.000
31.97000 95.000
31.98500 87.000
32.00000 67.000
32.01500 63.000
32.03000 80.000
32.04500 80.000
32.06000 81.000
32.07500 82.000
32.09000 82.000
32.10500 77.000
32.12000 91.000
32.13500 90.000
32.15000 82.000
32.16500 79.000
32.18000 87.000
32.19500 72.000
32.21000 81.000
32.22500 88.000
32.24000 82.000
32.25500 81.000
32.27000 83.000
32.28500 86.000
32.30000 95.000
32.31500 95.000
32.33000 83.000
32.34500 92.000
32.36000 92.000
32.37500 84.000
32.39000 83.000
32.40500 83.000
32.42000 84.000
32.43500 78.000
32.45000 91.000
32.46500 89.000
32.48000 80.000
32.49500 91.000
32.51000 92.000
32.52500 80.000
32.54000 73.000
32.55500 97.000
32.57000 102.000
32.58500 74.000
32.60000 84.000
32.61500 84.000
32.63000 74.000
32.64500 86.000
32.66000 80.000
32.67500 81.000
32.69000 76.000
32.70500 80.000
32.72000 78.000
32.73500 89.000
32.75000 89.000
32.76500 83.000
32.78000 79.000
32.79500 97.000
32.81000 92.000
32.82500 97.000
32.84000 76.000
32.85500 91.000
32.87000 83.000
32.88500 79.000
32.90000 69.000
32.91500 88.000
32.93000 87.000
32.94500 84.000
32.96000 79.000
32.97500 74.000
32.99000 80.000
33.00500 81.000
33.02000 69.000
33.03500 68.000
33.05000 73.000
33.06500 72.000
33.08000 83.000
33.09500 85.000
33.11000 87.000
33.12500 80.000
33.14000 73.000
33.15500 74.000
33.17000 91.000
33.18500 91.000
33.20000 99.000
33.21500 111.000
33.23000 117.000
33.24500 138.000
33.26000 134.000
33.27500 119.000
33.29000 115.000
33.30500 125.000
33.32000 110.000
33.33500 84.000
33.35000 89.000
33.36500 87.000
33.38000 92.000
33.39500 73.000
33.41000 83.000
33.42500 87.000
33.44000 99.000
33.45500 97.000
33.47000 99.000
33.48500 94.000
33.50000 86.000
33.51500 76.000
33.53000 80.000
33.54500 83.000
33.56000 84.000
33.57500 74.000
33.59000 67.000
33.60500 68.000
33.62000 67.000
33.63500 64.000
33.65000 75.000
33.66500 69.000
33.68000 63.000
33.69500 69.000
33.71000 78.000
33.72500 76.000
33.74000 65.000
33.75500 67.000
33.77000 73.000
33.78500 77.000
33.80000 72.000
33.81500 79.000
33.83000 71.000
33.84500 73.000
33.86000 75.000
33.87500 72.000
33.89000 75.000
33.90500 80.000
33.92000 71.000
33.93500 68.000
33.95000 78.000
33.96500 84.000
33.98000 85.000
33.99500 92.000
34.01000 102.000
34.02500 115.000
34.04000 146.000
34.05500 170.000
34.07000 254.000
34.08500 325.000
34.10000 398.000
34.11500 477.000
34.13000 472.000
34.14500 457.000
34.16000 374.000
34.17500 314.000
34.19000 242.000
34.20500 195.000
34.22000 194.000
34.23500 167.000
34.25000 151.000
34.26500 137.000
34.28000 123.000
34.29500 102.000
34.31000 84.000
34.32500 78.000
34.34000 77.000
34.35500 70.000
34.37000 67.000
34.38500 66.000
34.40000 69.000
34.41500 60.000
34.43000 66.000
34.44500 72.000
34.46000 79.000
34.47500 82.000
34.49000 84.000
34.50500 74.000
34.52000 76.000
34.53500 74.000
34.55000 81.000
34.56500 85.000
34.58000 77.000
34.59500 86.000
34.61000 91.000
34.62500 89.000
34.64000 81.000
34.65500 85.000
34.67000 90.000
34.68500 94.000
34.70000 104.000
34.71500 92.000
34.73000 97.000
34.74500 98.000
34.76000 109.000
34.77500 103.000
34.79000 97.000
34.80500 112.000
34.82000 126.000
34.83500 137.000
34.85000 165.000
34.86500 179.000
34.88000 195.000
34.89500 163.000
34.91000 154.000
34.92500 146.000
34.94000 123.000
34.95500 100.000
34.97000 107.000
34.98500 90.000
35.00000 83.000
35.01500 71.000
35.03000 82.000
35.04500 85.000
35.06000 92.000
35.07500 84.000
35.09000 90.000
35.10500 85.000
35.12000 81.000
35.13500 75.000
35.15000 80.000
35.16500 80.000
35.18000 81.000
35.19500 72.000
35.21000 73.000
35.22500 68.000
35.24000 65.000
35.25500 61.000
35.27000 63.000
35.28500 63.000
35.30000 69.000
35.31500 72.000
35.33000 81.000
35.34500 88.000
35.36000 73.000
35.37500 70.000
35.39000 75.000
35.40500 73.000
35.42000 68.000
35.43500 82.000
35.45000 79.000
35.46500 74.000
35.48000 74.000
35.49500 94.000
35.51000 88.000
35.52500 83.000
35.54000 75.000
35.55500 81.000
35.57000 68.000
35.58500 81.000
35.60000 94.000
35.61500 85.000
35.63000 68.000
35.64500 83.000
35.66000 88.000
35.67500 84.000
35.69000 81.000
35.70500 87.000
35.72000 103.000
35.73500 110.000
35.75000 115.000
35.76500 154.000
35.78000 157.000
35.79500 182.000
35.81000 243.000
35.82500 264.000
35.84000 311.000
35.85500 311.000
35.87000 316.000
35.88500 295.000
35.90000 256.000
35.91500 190.000
35.93000 152.000
35.94500 132.000
35.96000 120.000
35.97500 130.000
35.99000 154.000
36.00500 140.000
36.02000 129.000
36.03500 140.000
36.05000 148.000
36.06500 181.000
36.08000 172.000
36.09500 170.000
36.11000 172.000
36.12500 150.000
36.14000 135.000
36.15500 117.000
36.17000 102.000
36.18500 88.000
36.20000 88.000
36.21500 92.000
36.23000 80.000
36.24500 78.000
36.26000 87.000
36.27500 73.000
36.29000 67.000
36.30500 67.000
36.32000 84.000
36.33500 80.000
36.35000 75.000
36.36500 71.000
36.38000 70.000
36.39500 66.000
36.41000 71.000
36.42500 71.000
36.44000 72.000
36.45500 72.000
36.47000 69.000
36.48500 70.000
36.50000 76.000
36.51500 75.000
36.53000 76.000
36.54500 72.000
36.56000 64.000
36.57500 60.000
36.59000 76.000
36.60500 61.000
36.62000 76.000
36.63500 76.000
36.65000 83.000
36.66500 87.000
36.68000 84.000
36.69500 79.000
36.71000 80.000
36.72500 78.000
36.74000 73.000
36.75500 81.000
36.77000 77.000
36.78500 78.000
36.80000 79.000
36.81500 94.000
36.83000 83.000
36.84500 81.000
36.86000 84.000
36.87500 102.000
36.89000 113.000
36.90500 139.000
36.92000 148.000
36.93500 198.000
36.95000 228.000
36.96500 283.000
36.98000 328.000
36.99500 460.000
37.01000 491.000
37.02500 479.000
37.04000 433.000
37.05500 382.000
37.07000 340.000
37.08500 246.000
37.10000 182.000
37.11500 136.000
37.13000 110.000
37.14500 110.000
37.16000 96.000
37.17500 89.000
37.19000 79.000
37.20500 80.000
37.22000 86.000
37.23500 95.000
37.25000 83.000
37.26500 108.000
37.28000 106.000
37.29500 121.000
37.31000 133.000
37.32500 134.000
37.34000 132.000
37.35500 138.000
37.37000 123.000
37.38500 109.000
37.40000 100.000
37.41500 92.000
37.43000 75.000
37.44500 65.000
37.46000 75.000
37.47500 78.000
37.49000 78.000
37.50500 73.000
37.52000 69.000
37.53500 73.000
37.55000 79.000
37.56500 84.000
37.58000 75.000
37.59500 75.000
37.61000 73.000
37.62500 67.000
37.64000 79.000
37.65500 84.000
37.67000 74.000
37.68500 92.000
37.70000 109.000
37.71500 127.000
37.73000 122.000
37.74500 137.000
37.76000 189.000
37.77500 202.000
37.79000 216.000
37.80500 236.000
37.82000 225.000
37.83500 188.000
37.85000 167.000
37.86500 162.000
37.88000 151.000
37.89500 175.000
37.91000 200.000
37.92500 206.000
37.94000 237.000
37.95500 229.000
37.97000 212.000
37.98500 155.000
38.00000 136.000
38.01500 110.000
38.03000 103.000
38.04500 78.000
38.06000 73.000
38.07500 77.000
38.09000 75.000
38.10500 67.000
38.12000 75.000
38.13500 65.000
38.15000 82.000
38.16500 87.000
38.18000 76.000
38.19500 73.000
38.21000 61.000
38.22500 60.000
38.24000 54.000
38.25500 69.000
38.27000 66.000
38.28500 65.000
38.30000 76.000
38.31500 69.000
38.33000 67.000
38.34500 64.000
38.36000 67.000
38.37500 56.000
38.39000 59.000
38.40500 64.000
38.42000 69.000
38.43500 71.000
38.45000 60.000
38.46500 62.000
38.48000 77.000
38.49500 71.000
38.51000 77.000
38.52500 69.000
38.54000 62.000
38.55500 78.000
38.57000 86.000
38.58500 82.000
38.60000 66.000
38.61500 69.000
38.63000 71.000
38.64500 68.000
38.66000 72.000
38.67500 61.000
38.69000 74.000
38.70500 67.000
38.72000 64.000
38.73500 60.000
38.75000 80.000
38.76500 78.000
38.78000 72.000
38.79500 70.000
38.81000 67.000
38.82500 61.000
38.84000 62.000
38.85500 67.000
38.87000 69.000
38.88500 67.000
38.90000 60.000
38.91500 58.000
38.93000 63.000
38.94500 67.000
38.96000 67.000
38.97500 70.000
38.99000 57.000
39.00500 58.000
39.02000 69.000
39.03500 84.000
39.05000 76.000
39.06500 73.000
39.08000 59.000
39.09500 65.000
39.11000 68.000
39.12500 67.000
39.14000 72.000
39.15500 80.000
39.17000 67.000
39.18500 78.000
39.20000 84.000
39.21500 79.000
39.23000 111.000
39.24500 140.000
39.26000 148.000
39.27500 188.000
39.29000 233.000
39.30500 266.000
39.32000 319.000
39.33500 316.000
39.35000 316.000
39.36500 277.000
39.38000 212.000
39.39500 156.000
39.41000 134.000
39.42500 106.000
39.44000 100.000
39.45500 76.000
39.47000 75.000
39.48500 75.000
39.50000 76.000
39.51500 68.000
39.53000 71.000
39.54500 69.000
39.56000 72.000
39.57500 68.000
39.59000 67.000
39.60500 85.000
39.62000 63.000
39.63500 68.000
39.65000 70.000
39.66500 67.000
39.68000 65.000
39.69500 62.000
39.71000 72.000
39.72500 73.000
39.74000 68.000
39.75500 56.000
39.77000 67.000
39.78500 68.000
39.80000 56.000
39.81500 51.000
39.83000 65.000
39.84500 65.000
39.86000 58.000
39.87500 68.000
39.89000 65.000
39.90500 55.000
39.92000 70.000
39.93500 67.000
39.95000 57.000
39.96500 64.000
39.98000 72.000
39.99500 77.000
40.01000 70.000
40.02500 66.000
40.04000 59.000
40.05500 58.000
40.07000 74.000
40.08500 67.000
40.10000 66.000
40.11500 61.000
40.13000 67.000
40.14500 68.000
40.16000 70.000
40.17500 79.000
40.19000 73.000
40.20500 60.000
40.22000 66.000
40.23500 70.000
40.25000 68.000
40.26500 68.000
40.28000 65.000
40.29500 70.000
40.31000 70.000
40.32500 61.000
40.34000 68.000
40.35500 76.000
40.37000 67.000
40.38500 69.000
40.40000 76.000
40.41500 78.000
40.43000 77.000
40.44500 82.000
40.46000 83.000
40.47500 77.000
40.49000 84.000
40.50500 90.000
40.52000 82.000
40.53500 73.000
40.55000 82.000
40.56500 84.000
40.58000 100.000
40.59500 100.000
40.61000 112.000
40.62500 108.000
40.64000 128.000
40.65500 123.000
40.67000 126.000
40.68500 105.000
40.70000 87.000
40.71500 72.000
40.73000 64.000
40.74500 69.000
40.76000 72.000
40.77500 84.000
40.79000 75.000
40.80500 78.000
40.82000 62.000
40.83500 61.000
40.85000 69.000
40.86500 69.000
40.88000 66.000
40.89500 79.000
40.91000 72.000
40.92500 61.000
40.94000 60.000
40.95500 69.000
40.97000 60.000
40.98500 66.000
41.00000 83.000
41.01500 61.000
41.03000 65.000
41.04500 74.000
41.06000 66.000
41.07500 72.000
41.09000 59.000
41.10500 73.000
41.12000 64.000
41.13500 72.000
41.15000 66.000
41.16500 68.000
41.18000 66.000
41.19500 64.000
41.21000 76.000
41.22500 61.000
41.24000 54.000
41.25500 51.000
41.27000 62.000
41.28500 73.000
41.30000 62.000
41.31500 70.000
41.33000 61.000
41.34500 56.000
41.36000 72.000
41.37500 68.000
41.39000 69.000
41.40500 56.000
41.42000 58.000
41.43500 67.000
41.45000 71.000
41.46500 66.000
41.48000 65.000
41.49500 65.000
41.51000 64.000
41.52500 61.000
41.54000 65.000
41.55500 59.000
41.57000 81.000
41.58500 53.000
41.60000 53.000
41.61500 63.000
41.63000 50.000
41.64500 59.000
41.66000 76.000
41.67500 58.000
41.69000 65.000
41.70500 62.000
41.72000 66.000
41.73500 68.000
41.75000 76.000
41.76500 59.000
41.78000 70.000
41.79500 57.000
41.81000 61.000
41.82500 61.000
41.84000 63.000
41.85500 62.000
41.87000 75.000
41.88500 71.000
41.90000 61.000
41.91500 76.000
41.93000 73.000
41.94500 83.000
41.96000 97.000
41.97500 109.000
41.99000 115.000
42.00500 125.000
42.02000 141.000
42.03500 169.000
42.05000 161.000
42.06500 182.000
42.08000 182.000
42.09500 151.000
42.11000 129.000
42.12500 113.000
42.14000 87.000
42.15500 80.000
42.17000 95.000
42.18500 91.000
42.20000 92.000
42.21500 73.000
42.23000 74.000
42.24500 82.000
42.26000 71.000
42.27500 64.000
42.29000 78.000
42.30500 71.000
42.32000 57.000
42.33500 71.000
42.35000 71.000
42.36500 70.000
42.38000 79.000
42.39500 73.000
42.41000 82.000
42.42500 76.000
42.44000 69.000
42.45500 69.000
42.47000 66.000
42.48500 83.000
42.50000 84.000
42.51500 82.000
42.53000 95.000
42.54500 97.000
42.56000 119.000
42.57500 110.000
42.59000 135.000
42.60500 173.000
42.62000 212.000
42.63500 223.000
42.65000 289.000
42.66500 310.000
42.68000 352.000
42.69500 388.000
42.71000 353.000
42.72500 354.000
42.74000 340.000
42.75500 349.000
42.77000 300.000
42.78500 259.000
42.80000 226.000
42.81500 181.000
42.83000 139.000
42.84500 128.000
42.86000 113.000
42.87500 97.000
42.89000 89.000
42.90500 88.000
42.92000 73.000
42.93500 68.000
42.95000 76.000
42.96500 73.000
42.98000 79.000
42.99500 87.000
43.01000 97.000
43.02500 104.000
43.04000 99.000
43.05500 125.000
43.07000 121.000
43.08500 128.000
43.10000 153.000
43.11500 118.000
43.13000 116.000
43.14500 105.000
43.16000 96.000
43.17500 101.000
43.19000 90.000
43.20500 72.000
43.22000 85.000
43.23500 80.000
43.25000 78.000
43.26500 71.000
43.28000 78.000
43.29500 57.000
43.31000 72.000
43.32500 72.000
43.34000 61.000
43.35500 70.000
43.37000 70.000
43.38500 75.000
43.40000 75.000
43.41500 76.000
43.43000 80.000
43.44500 68.000
43.46000 68.000
43.47500 77.000
43.49000 75.000
43.50500 68.000
43.52000 74.000
43.53500 71.000
43.55000 64.000
43.56500 72.000
43.58000 78.000
43.59500 74.000
43.61000 67.000
43.62500 67.000
43.64000 75.000
43.65500 70.000
43.67000 74.000
43.68500 53.000
43.70000 68.000
43.71500 73.000
43.73000 74.000
43.74500 70.000
43.76000 80.000
43.77500 80.000
43.79000 72.000
43.80500 77.000
43.82000 78.000
43.83500 72.000
43.85000 77.000
43.86500 88.000
43.88000 107.000
43.89500 109.000
43.91000 112.000
43.92500 106.000
43.94000 109.000
43.95500 98.000
43.97000 94.000
43.98500 118.000
44.00000 81.000
44.01500 72.000
44.03000 71.000
44.04500 66.000
44.06000 88.000
44.07500 82.000
44.09000 80.000
44.10500 72.000
44.12000 57.000
44.13500 82.000
44.15000 70.000
44.16500 59.000
44.18000 69.000
44.19500 83.000
44.21000 98.000
44.22500 89.000
44.24000 89.000
44.25500 93.000
44.27000 96.000
44.28500 109.000
44.30000 107.000
44.31500 107.000
44.33000 110.000
44.34500 115.000
44.36000 101.000
44.37500 86.000
44.39000 89.000
44.40500 72.000
44.42000 70.000
44.43500 89.000
44.45000 77.000
44.46500 80.000
44.48000 73.000
44.49500 78.000
44.51000 82.000
44.52500 85.000
44.54000 90.000
44.55500 80.000
44.57000 86.000
44.58500 83.000
44.60000 77.000
44.61500 72.000
44.63000 82.000
44.64500 73.000
44.66000 60.000
44.67500 72.000
44.69000 75.000
44.70500 61.000
44.72000 70.000
44.73500 79.000
44.75000 78.000
44.76500 80.000
44.78000 75.000
44.79500 67.000
44.81000 60.000
44.82500 81.000
44.84000 84.000
44.85500 73.000
44.87000 72.000
44.88500 77.000
44.90000 80.000
44.91500 70.000
44.93000 72.000
44.94500 75.000
44.96000 73.000
44.97500 73.000
44.99000 83.000
45.00500 82.000
45.02000 73.000
45.03500 93.000
45.05000 94.000
45.06500 93.000
45.08000 101.000
45.09500 126.000
45.11000 105.000
45.12500 101.000
45.14000 123.000
45.15500 122.000
45.17000 98.000
45.18500 113.000
45.20000 114.000
45.21500 96.000
45.23000 114.000
45.24500 103.000
45.26000 92.000
45.27500 90.000
45.29000 84.000
45.30500 91.000
45.32000 90.000
45.33500 78.000
45.35000 78.000
45.36500 81.000
45.38000 73.000
45.39500 75.000
45.41000 69.000
45.42500 83.000
45.44000 81.000
45.45500 88.000
45.47000 97.000
45.48500 101.000
45.50000 108.000
45.51500 113.000
45.53000 130.000
45.54500 160.000
45.56000 177.000
45.57500 169.000
45.59000 164.000
45.60500 145.000
45.62000 141.000
45.63500 138.000
45.65000 138.000
45.66500 111.000
45.68000 94.000
45.69500 83.000
45.71000 83.000
45.72500 83.000
45.74000 74.000
45.75500 80.000
45.77000 77.000
45.78500 75.000
45.80000 82.000
45.81500 75.000
45.83000 76.000
45.84500 69.000
45.86000 80.000
45.87500 68.000
45.89000 62.000
45.90500 71.000
45.92000 74.000
45.93500 69.000
45.95000 62.000
45.96500 64.000
45.98000 64.000
45.99500 74.000
46.01000 80.000
46.02500 73.000
46.04000 66.000
46.05500 82.000
46.07000 66.000
46.08500 67.000
46.10000 74.000
46.11500 72.000
46.13000 72.000
46.14500 85.000
46.16000 89.000
46.17500 93.000
46.19000 106.000
46.20500 106.000
46.22000 113.000
46.23500 108.000
46.25000 134.000
46.26500 145.000
46.28000 149.000
46.29500 150.000
46.31000 144.000
46.32500 136.000
46.34000 131.000
46.35500 114.000
46.37000 92.000
46.38500 89.000
46.40000 97.000
46.41500 94.000
46.43000 80.000
46.44500 69.000
46.46000 62.000
46.47500 66.000
46.49000 65.000
46.50500 69.000
46.52000 76.000
46.53500 76.000
46.55000 71.000
46.56500 70.000
46.58000 73.000
46.59500 76.000
46.61000 75.000
46.62500 85.000
46.64000 69.000
46.65500 64.000
46.67000 65.000
46.68500 69.000
46.70000 67.000
46.71500 57.000
46.73000 54.000
46.74500 55.000
46.76000 76.000
46.77500 67.000
46.79000 71.000
46.80500 77.000
46.82000 80.000
46.83500 72.000
46.85000 63.000
46.86500 67.000
46.88000 63.000
46.89500 60.000
46.91000 67.000
46.92500 69.000
46.94000 80.000
46.95500 72.000
46.97000 86.000
46.98500 86.000
47.00000 78.000
47.01500 90.000
47.03000 90.000
47.04500 81.000
47.06000 90.000
47.07500 86.000
47.09000 94.000
47.10500 105.000
47.12000 109.000
47.13500 105.000
47.15000 103.000
47.16500 107.000
47.18000 88.000
47.19500 78.000
47.21000 79.000
47.22500 71.000
47.24000 83.000
47.25500 70.000
47.27000 69.000
47.28500 82.000
47.30000 75.000
47.31500 81.000
47.33000 68.000
47.34500 84.000
47.36000 83.000
47.37500 80.000
47.39000 78.000
47.40500 74.000
47.42000 69.000
47.43500 83.000
47.45000 70.000
47.46500 71.000
47.48000 83.000
47.49500 84.000
47.51000 83.000
47.52500 91.000
47.54000 98.000
47.55500 106.000
47.57000 122.000
47.58500 137.000
47.60000 140.000
47.61500 153.000
47.63000 173.000
47.64500 180.000
47.66000 204.000
47.67500 218.000
47.69000 233.000
47.70500 259.000
47.72000 295.000
47.73500 300.000
47.75000 273.000
47.76500 268.000
47.78000 274.000
47.79500 233.000
47.81000 220.000
47.82500 214.000
47.84000 213.000
47.85500 207.000
47.87000 152.000
47.88500 140.000
47.90000 123.000
47.91500 108.000
47.93000 115.000
47.94500 100.000
47.96000 81.000
47.97500 87.000
47.99000 73.000
48.00500 78.000
48.02000 66.000
48.03500 76.000
48.05000 75.000
48.06500 85.000
48.08000 91.000
48.09500 75.000
48.11000 84.000
48.12500 79.000
48.14000 76.000
48.15500 73.000
48.17000 83.000
48.18500 87.000
48.20000 77.000
48.21500 72.000
48.23000 73.000
48.24500 76.000
48.26000 73.000
48.27500 75.000
48.29000 79.000
48.30500 74.000
48.32000 72.000
48.33500 78.000
48.35000 72.000
48.36500 79.000
48.38000 70.000
48.39500 64.000
48.41000 67.000
48.42500 60.000
48.44000 65.000
48.45500 65.000
48.47000 76.000
48.48500 71.000
48.50000 69.000
48.51500 74.000
48.53000 65.000
48.54500 66.000
48.56000 69.000
48.57500 67.000
48.59000 71.000
48.60500 67.000
48.62000 71.000
48.63500 60.000
48.65000 68.000
48.66500 72.000
48.68000 67.000
48.69500 74.000
48.71000 73.000
48.72500 72.000
48.74000 63.000
48.75500 66.000
48.77000 79.000
48.78500 75.000
48.80000 73.000
48.81500 59.000
48.83000 69.000
48.84500 71.000
48.86000 67.000
48.87500 68.000
48.89000 69.000
48.90500 81.000
48.92000 81.000
48.93500 78.000
48.95000 70.000
48.96500 87.000
48.98000 92.000
48.99500 97.000
49.01000 103.000
49.02500 85.000
49.04000 95.000
49.05500 109.000
49.07000 91.000
49.08500 89.000
49.10000 100.000
49.11500 78.000
49.13000 72.000
49.14500 83.000
49.16000 79.000
49.17500 80.000
49.19000 79.000
49.20500 78.000
49.22000 77.000
49.23500 68.000
49.25000 80.000
49.26500 79.000
49.28000 76.000
49.29500 71.000
49.31000 61.000
49.32500 84.000
49.34000 83.000
49.35500 77.000
49.37000 73.000
49.38500 74.000
49.40000 100.000
49.41500 100.000
49.43000 106.000
49.44500 119.000
49.46000 123.000
49.47500 123.000
49.49000 112.000
49.50500 111.000
49.52000 101.000
49.53500 83.000
49.55000 74.000
49.56500 92.000
49.58000 91.000
49.59500 81.000
49.61000 97.000
49.62500 92.000
49.64000 108.000
49.65500 115.000
49.67000 105.000
49.68500 111.000
49.70000 110.000
49.71500 104.000
49.73000 93.000
49.74500 104.000
49.76000 95.000
49.77500 101.000
49.79000 98.000
49.80500 105.000
49.82000 127.000
49.83500 113.000
49.85000 138.000
49.86500 155.000
49.88000 167.000
49.89500 186.000
49.91000 191.000
49.92500 211.000
49.94000 224.000
49.95500 202.000
49.97000 204.000
49.98500 213.000
50.00000 204.000
50.01500 198.000
50.03000 174.000
50.04500 148.000
50.06000 136.000
50.07500 119.000
50.09000 99.000
50.10500 85.000
50.12000 87.000
50.13500 95.000
50.15000 88.000
50.16500 80.000
50.18000 82.000
50.19500 76.000
50.21000 74.000
50.22500 73.000
50.24000 69.000
50.25500 78.000
50.27000 83.000
50.28500 75.000
50.30000 74.000
50.31500 76.000
50.33000 73.000
50.34500 87.000
50.36000 76.000
50.37500 74.000
50.39000 86.000
50.40500 68.000
50.42000 84.000
50.43500 73.000
50.45000 79.000
50.46500 77.000
50.48000 73.000
50.49500 74.000
50.51000 77.000
50.52500 79.000
50.54000 90.000
50.55500 86.000
50.57000 77.000
50.58500 69.000
50.60000 86.000
50.61500 86.000
50.63000 69.000
50.64500 66.000
50.66000 69.000
50.67500 71.000
50.69000 61.000
50.70500 59.000
50.72000 72.000
50.73500 79.000
50.75000 76.000
50.76500 64.000
50.78000 67.000
50.79500 79.000
50.81000 79.000
50.82500 84.000
50.84000 64.000
50.85500 68.000
50.87000 72.000
50.88500 74.000
50.90000 72.000
50.91500 80.000
50.93000 69.000
50.94500 78.000
50.96000 82.000
50.97500 78.000
50.99000 85.000
51.00500 100.000
51.02000 94.000
51.03500 98.000
51.05000 115.000
51.06500 127.000
51.08000 142.000
51.09500 172.000
51.11000 184.000
51.12500 203.000
51.14000 243.000
51.15500 281.000
51.17000 302.000
51.18500 350.000
51.20000 404.000
51.21500 381.000
51.23000 360.000
51.24500 327.000
51.26000 286.000
51.27500 254.000
51.29000 203.000
51.30500 169.000
51.32000 137.000
51.33500 121.000
51.35000 106.000
51.36500 91.000
51.38000 83.000
51.39500 95.000
51.41000 99.000
51.42500 93.000
51.44000 82.000
51.45500 84.000
51.47000 87.000
51.48500 85.000
51.50000 77.000
51.51500 85.000
51.53000 82.000
51.54500 91.000
51.56000 85.000
51.57500 79.000
51.59000 82.000
51.60500 97.000
51.62000 99.000
51.63500 97.000
51.65000 99.000
51.66500 95.000
51.68000 86.000
51.69500 83.000
51.71000 81.000
51.72500 92.000
51.74000 93.000
51.75500 88.000
51.77000 86.000
51.78500 84.000
51.80000 89.000
51.81500 92.000
51.83000 97.000
51.84500 105.000
51.86000 109.000
51.87500 103.000
51.89000 122.000
51.90500 115.000
51.92000 121.000
51.93500 147.000
51.95000 179.000
51.96500 180.000
51.98000 210.000
51.99500 244.000
52.01000 270.000
52.02500 268.000
52.04000 270.000
52.05500 256.000
52.07000 221.000
52.08500 227.000
52.10000 167.000
52.11500 128.000
52.13000 116.000
52.14500 116.000
52.16000 94.000
52.17500 97.000
52.19000 88.000
52.20500 71.000
52.22000 76.000
52.23500 75.000
52.25000 82.000
52.26500 61.000
52.28000 73.000
52.29500 85.000
52.31000 84.000
52.32500 81.000
52.34000 85.000
52.35500 83.000
52.37000 78.000
52.38500 77.000
52.40000 76.000
52.41500 70.000
52.43000 86.000
52.44500 89.000
52.46000 80.000
52.47500 83.000
52.49000 84.000
52.50500 76.000
52.52000 73.000
52.53500 91.000
52.55000 66.000
52.56500 76.000
52.58000 76.000
52.59500 72.000
52.61000 81.000
52.62500 74.000
52.64000 67.000
52.65500 68.000
52.67000 75.000
52.68500 70.000
52.70000 78.000
52.71500 86.000
52.73000 79.000
52.74500 74.000
52.76000 68.000
52.77500 93.000
52.79000 80.000
52.80500 99.000
52.82000 104.000
52.83500 120.000
52.85000 108.000
52.86500 116.000
52.88000 130.000
52.89500 170.000
52.91000 198.000
52.92500 211.000
52.94000 218.000
52.95500 242.000
52.97000 267.000
52.98500 270.000
53.00000 276.000
53.01500 274.000
53.03000 269.000
53.04500 288.000
53.06000 251.000
53.07500 287.000
53.09000 287.000
53.10500 272.000
53.12000 271.000
53.13500 266.000
53.15000 234.000
53.16500 199.000
53.18000 160.000
53.19500 165.000
53.21000 142.000
53.22500 143.000
53.24000 153.000
53.25500 125.000
53.27000 103.000
53.28500 102.000
53.30000 94.000
53.31500 106.000
53.33000 109.000
53.34500 95.000
53.36000 84.000
53.37500 86.000
53.39000 82.000
53.40500 76.000
53.42000 71.000
53.43500 83.000
53.45000 79.000
53.46500 74.000
53.48000 64.000
53.49500 72.000
53.51000 87.000
53.52500 90.000
53.54000 77.000
53.55500 82.000
53.57000 87.000
53.58500 74.000
53.60000 71.000
53.61500 72.000
53.63000 67.000
53.64500 80.000
53.66000 89.000
53.67500 95.000
53.69000 101.000
53.70500 89.000
53.72000 95.000
53.73500 92.000
53.75000 100.000
53.76500 103.000
53.78000 96.000
53.79500 116.000
53.81000 132.000
53.82500 145.000
53.84000 155.000
53.85500 166.000
53.87000 177.000
53.88500 205.000
53.90000 248.000
53.91500 219.000
53.93000 249.000
53.94500 239.000
53.96000 211.000
53.97500 226.000
53.99000 212.000
54.00500 178.000
54.02000 177.000
54.03500 126.000
54.05000 132.000
54.06500 112.000
54.08000 104.000
54.09500 95.000
54.11000 93.000
54.12500 89.000
54.14000 85.000
54.15500 94.000
54.17000 87.000
54.18500 87.000
54.20000 76.000
54.21500 71.000
54.23000 81.000
54.24500 79.000
54.26000 86.000
54.27500 86.000
54.29000 87.000
54.30500 89.000
54.32000 89.000
54.33500 97.000
54.35000 91.000
54.36500 83.000
54.38000 78.000
54.39500 81.000
54.41000 89.000
54.42500 84.000
54.44000 80.000
54.45500 90.000
54.47000 88.000
54.48500 82.000
54.50000 78.000
54.51500 76.000
54.53000 90.000
54.54500 83.000
54.56000 71.000
54.57500 82.000
54.59000 79.000
54.60500 79.000
54.62000 74.000
54.63500 78.000
54.65000 81.000
54.66500 66.000
54.68000 65.000
54.69500 66.000
54.71000 70.000
54.72500 82.000
54.74000 92.000
54.75500 75.000
54.77000 78.000
54.78500 81.000
54.80000 84.000
54.81500 93.000
54.83000 82.000
54.84500 82.000
54.86000 83.000
54.87500 89.000
54.89000 94.000
54.90500 90.000
54.92000 87.000
54.93500 75.000
54.95000 74.000
54.96500 92.000
54.98000 101.000
54.99500 102.000
55.01000 111.000
55.02500 104.000
55.04000 106.000
55.05500 123.000
55.07000 124.000
55.08500 127.000
55.10000 135.000
55.11500 137.000
55.13000 125.000
55.14500 141.000
55.16000 141.000
55.17500 123.000
55.19000 145.000
55.20500 141.000
55.22000 128.000
55.23500 133.000
55.25000 105.000
55.26500 104.000
55.28000 111.000
55.29500 100.000
55.31000 98.000
55.32500 107.000
55.34000 114.000
55.35500 121.000
55.37000 120.000
55.38500 124.000
55.40000 141.000
55.41500 144.000
55.43000 133.000
55.44500 138.000
55.46000 121.000
55.47500 96.000
55.49000 94.000
55.50500 104.000
55.52000 85.000
55.53500 82.000
55.55000 84.000
55.56500 95.000
55.58000 110.000
55.59500 103.000
55.61000 112.000
55.62500 133.000
55.64000 155.000
55.65500 173.000
55.67000 184.000
55.68500 206.000
55.70000 207.000
55.71500 232.000
55.73000 219.000
55.74500 197.000
55.76000 207.000
55.77500 199.000
55.79000 195.000
55.80500 160.000
55.82000 153.000
55.83500 150.000
55.85000 159.000
55.86500 123.000
55.88000 128.000
55.89500 133.000
55.91000 104.000
55.92500 99.000
55.94000 97.000
55.95500 109.000
55.97000 94.000
55.98500 84.000
56.00000 77.000
56.01500 78.000
56.03000 82.000
56.04500 76.000
56.06000 93.000
56.07500 83.000
56.09000 88.000
56.10500 92.000
56.12000 87.000
56.13500 86.000
56.15000 99.000
56.16500 97.000
56.18000 85.000
56.19500 93.000
56.21000 92.000
56.22500 106.000
56.24000 97.000
56.25500 88.000
56.27000 84.000
56.28500 84.000
56.30000 78.000
56.31500 69.000
56.33000 89.000
56.34500 88.000
56.36000 85.000
56.37500 83.000
56.39000 88.000
56.40500 95.000
56.42000 102.000
56.43500 99.000
56.45000 94.000
56.46500 108.000
56.48000 118.000
56.49500 128.000
56.51000 118.000
56.52500 138.000
56.54000 146.000
56.55500 167.000
56.57000 189.000
56.58500 195.000
56.60000 211.000
56.61500 234.000
56.63000 245.000
56.64500 258.000
56.66000 259.000
56.67500 268.000
56.69000 277.000
56.70500 224.000
56.72000 221.000
56.73500 214.000
56.75000 192.000
56.76500 193.000
56.78000 175.000
56.79500 159.000
56.81000 131.000
56.82500 132.000
56.84000 122.000
56.85500 93.000
56.87000 99.000
56.88500 102.000
56.90000 87.000
56.91500 84.000
56.93000 94.000
56.94500 94.000
56.96000 84.000
56.97500 93.000
56.99000 93.000
57.00500 95.000
57.02000 95.000
57.03500 96.000
57.05000 105.000
57.06500 109.000
57.08000 114.000
57.09500 109.000
57.11000 104.000
57.12500 100.000
57.14000 126.000
57.15500 132.000
57.17000 138.000
57.18500 138.000
57.20000 161.000
57.21500 172.000
57.23000 168.000
57.24500 192.000
57.26000 214.000
57.27500 228.000
57.29000 257.000
57.30500 265.000
57.32000 266.000
57.33500 243.000
57.35000 232.000
57.36500 176.000
57.38000 178.000
57.39500 179.000
57.41000 152.000
57.42500 149.000
57.44000 139.000
57.45500 149.000
57.47000 143.000
57.48500 138.000
57.50000 141.000
57.51500 151.000
57.53000 148.000
57.54500 148.000
57.56000 162.000
57.57500 142.000
57.59000 136.000
57.60500 139.000
57.62000 119.000
57.63500 111.000
57.65000 113.000
57.66500 121.000
57.68000 133.000
57.69500 133.000
57.71000 136.000
57.72500 120.000
57.74000 132.000
57.75500 125.000
57.77000 122.000
57.78500 123.000
57.80000 120.000
57.81500 123.000
57.83000 120.000
57.84500 102.000
57.86000 101.000
57.87500 92.000
57.89000 91.000
57.90500 93.000
57.92000 76.000
57.93500 81.000
57.95000 99.000
57.96500 80.000
57.98000 79.000
57.99500 75.000
58.01000 82.000
58.02500 76.000
58.04000 77.000
58.05500 76.000
58.07000 80.000
58.08500 80.000
58.10000 76.000
58.11500 75.000
58.13000 71.000
58.14500 78.000
58.16000 70.000
58.17500 74.000
58.19000 71.000
58.20500 72.000
58.22000 76.000
58.23500 88.000
58.25000 84.000
58.26500 83.000
58.28000 85.000
58.29500 75.000
58.31000 78.000
58.32500 83.000
58.34000 83.000
58.35500 73.000
58.37000 70.000
58.38500 73.000
58.40000 70.000
58.41500 65.000
58.43000 72.000
58.44500 76.000
58.46000 78.000
58.47500 79.000
58.49000 85.000
58.50500 88.000
58.52000 73.000
58.53500 63.000
58.55000 75.000
58.56500 84.000
58.58000 72.000
58.59500 83.000
58.61000 75.000
58.62500 54.000
58.64000 74.000
58.65500 80.000
58.67000 83.000
58.68500 81.000
58.70000 69.000
58.71500 73.000
58.73000 91.000
58.74500 75.000
58.76000 83.000
58.77500 80.000
58.79000 68.000
58.80500 76.000
58.82000 77.000
58.83500 87.000
58.85000 88.000
58.86500 83.000
58.88000 84.000
58.89500 92.000
58.91000 94.000
58.92500 86.000
58.94000 83.000
58.95500 104.000
58.97000 107.000
58.98500 111.000
59.00000 112.000
59.01500 122.000
59.03000 112.000
59.04500 117.000
59.06000 121.000
59.07500 143.000
59.09000 136.000
59.10500 120.000
59.12000 119.000
59.13500 126.000
59.15000 122.000
59.16500 111.000
59.18000 103.000
59.19500 99.000
59.21000 89.000
59.22500 85.000
59.24000 81.000
59.25500 80.000
59.27000 80.000
59.28500 81.000
59.30000 84.000
59.31500 87.000
59.33000 78.000
59.34500 84.000
59.36000 83.000
59.37500 89.000
59.39000 75.000
59.40500 71.000
59.42000 70.000
59.43500 76.000
59.45000 75.000
59.46500 85.000
59.48000 74.000
59.49500 76.000
59.51000 78.000
59.52500 71.000
59.54000 85.000
59.55500 85.000
59.57000 76.000
59.58500 80.000
59.60000 89.000
59.61500 87.000
59.63000 87.000
59.64500 74.000
59.66000 80.000
59.67500 85.000
59.69000 95.000
59.70500 89.000
59.72000 97.000
59.73500 101.000
59.75000 98.000
59.76500 98.000
59.78000 93.000
59.79500 100.000
59.81000 92.000
59.82500 102.000
59.84000 104.000
59.85500 106.000
59.87000 118.000
59.88500 102.000
59.90000 117.000
59.91500 113.000
59.93000 108.000
59.94500 121.000
59.96000 122.000
59.97500 112.000
59.99000 124.000
60.00500 97.000
60.02000 98.000
60.03500 99.000
60.05000 98.000
60.06500 101.000
60.08000 87.000
60.09500 101.000
60.11000 107.000
60.12500 119.000
60.14000 95.000
60.15500 98.000
60.17000 108.000
60.18500 104.000
60.20000 97.000
60.21500 95.000
60.23000 96.000
60.24500 92.000
60.26000 93.000
60.27500 80.000
60.29000 72.000
60.30500 94.000
60.32000 101.000
60.33500 100.000
60.35000 114.000
60.36500 103.000
60.38000 119.000
60.39500 124.000
60.41000 120.000
60.42500 114.000
60.44000 144.000
60.45500 126.000
60.47000 116.000
60.48500 122.000
60.50000 125.000
60.51500 138.000
60.53000 106.000
60.54500 101.000
60.56000 104.000
60.57500 103.000
60.59000 101.000
60.60500 76.000
60.62000 89.000
60.63500 96.000
60.65000 85.000
60.66500 90.000
60.68000 87.000
60.69500 85.000
60.71000 79.000
60.72500 80.000
60.74000 84.000
60.75500 90.000
60.77000 82.000
60.78500 89.000
60.80000 81.000
60.81500 82.000
60.83000 68.000
60.84500 86.000
60.86000 83.000
60.87500 91.000
60.89000 88.000
60.90500 84.000
60.92000 81.000
60.93500 66.000
60.95000 81.000
60.96500 73.000
60.98000 76.000
60.99500 90.000
61.01000 89.000
61.02500 86.000
61.04000 89.000
61.05500 93.000
61.07000 84.000
61.08500 90.000
61.10000 95.000
61.11500 102.000
61.13000 81.000
61.14500 79.000
61.16000 95.000
61.17500 83.000
61.19000 92.000
61.20500 71.000
61.22000 71.000
61.23500 88.000
61.25000 71.000
61.26500 78.000
61.28000 83.000
61.29500 82.000
61.31000 78.000
61.32500 84.000
61.34000 77.000
61.35500 80.000
61.37000 82.000
61.38500 88.000
61.40000 80.000
61.41500 98.000
61.43000 95.000
61.44500 82.000
61.46000 82.000
61.47500 83.000
61.49000 101.000
61.50500 104.000
61.52000 106.000
61.53500 119.000
61.55000 132.000
61.56500 124.000
61.58000 132.000
61.59500 144.000
61.61000 145.000
61.62500 127.000
61.64000 132.000
61.65500 128.000
61.67000 96.000
61.68500 102.000
61.70000 102.000
61.71500 90.000
61.73000 71.000
61.74500 71.000
61.76000 72.000
61.77500 86.000
61.79000 76.000
61.80500 79.000
61.82000 73.000
61.83500 73.000
61.85000 86.000
61.86500 80.000
61.88000 82.000
61.89500 87.000
61.91000 76.000
61.92500 73.000
61.94000 79.000
61.95500 78.000
61.97000 71.000
61.98500 73.000
