2.00000 2.000
2.01500 3.000
2.03000 2.000
2.04500 2.000
2.06000 2.000
2.07500 3.000
2.09000 3.000
2.10500 4.000
2.12000 2.000
2.13500 4.000
2.15000 2.000
2.16500 2.000
2.18000 5.000
2.19500 5.000
2.21000 4.000
2.22500 2.000
2.24000 3.000
2.25500 2.000
2.27000 1.000
2.28500 4.000
2.30000 1.000
2.31500 0.000
2.33000 2.000
2.34500 3.000
2.36000 4.000
2.37500 3.000
2.39000 3.000
2.40500 2.000
2.42000 4.000
2.43500 3.000
2.45000 6.000
2.46500 3.000
2.48000 2.000
2.49500 3.000
2.51000 1.000
2.52500 3.000
2.54000 4.000
2.55500 2.000
2.57000 4.000
2.58500 3.000
2.60000 2.000
2.61500 2.000
2.63000 1.000
2.64500 1.000
2.66000 2.000
2.67500 3.000
2.69000 5.000
2.70500 2.000
2.72000 4.000
2.73500 6.000
2.75000 3.000
2.76500 3.000
2.78000 3.000
2.79500 3.000
2.81000 4.000
2.82500 4.000
2.84000 6.000
2.85500 3.000
2.87000 3.000
2.88500 2.000
2.90000 4.000
2.91500 3.000
2.93000 3.000
2.94500 3.000
2.96000 1.000
2.97500 2.000
2.99000 5.000
3.00500 7.000
3.02000 14.000
3.03500 18.000
3.05000 15.000
3.06500 22.000
3.08000 38.000
3.09500 67.000
3.11000 100.000
3.12500 132.000
3.14000 165.000
3.15500 184.000
3.17000 223.000
3.18500 223.000
3.20000 224.000
3.21500 223.000
3.23000 243.000
3.24500 245.000
3.26000 229.000
3.27500 198.000
3.29000 227.000
3.30500 236.000
3.32000 230.000
3.33500 241.000
3.35000 242.000
3.36500 219.000
3.38000 203.000
3.39500 226.000
3.41000 218.000
3.42500 217.000
3.44000 211.000
3.45500 203.000
3.47000 224.000
3.48500 238.000
3.50000 228.000
3.51500 232.000
3.53000 207.000
3.54500 204.000
3.56000 217.000
3.57500 198.000
3.59000 194.000
3.60500 217.000
3.62000 206.000
3.63500 211.000
3.65000 214.000
3.66500 203.000
3.68000 191.000
3.69500 193.000
3.71000 166.000
3.72500 174.000
3.74000 195.000
3.75500 195.000
3.77000 200.000
3.78500 186.000
3.80000 198.000
3.81500 210.000
3.83000 195.000
3.84500 202.000
3.86000 191.000
3.87500 187.000
3.89000 190.000
3.90500 205.000
3.92000 205.000
3.93500 207.000
3.95000 192.000
3.96500 180.000
3.98000 190.000
3.99500 188.000
4.01000 196.000
4.02500 188.000
4.04000 195.000
4.05500 200.000
4.07000 201.000
4.08500 194.000
4.10000 172.000
4.11500 171.000
4.13000 183.000
4.14500 189.000
4.16000 178.000
4.17500 180.000
4.19000 188.000
4.20500 172.000
4.22000 177.000
4.23500 163.000
4.25000 183.000
4.26500 189.000
4.28000 164.000
4.29500 184.000
4.31000 185.000
4.32500 173.000
4.34000 162.000
4.35500 175.000
4.37000 181.000
4.38500 179.000
4.40000 190.000
4.41500 172.000
4.43000 164.000
4.44500 189.000
4.46000 191.000
4.47500 183.000
4.49000 184.000
4.50500 179.000
4.52000 174.000
4.53500 152.000
4.55000 167.000
4.56500 205.000
4.58000 187.000
4.59500 180.000
4.61000 183.000
4.62500 178.000
4.64000 174.000
4.65500 190.000
4.67000 178.000
4.68500 189.000
4.70000 176.000
4.71500 165.000
4.73000 174.000
4.74500 180.000
4.76000 166.000
4.77500 182.000
4.79000 185.000
4.80500 173.000
4.82000 187.000
4.83500 185.000
4.85000 176.000
4.86500 173.000
4.88000 166.000
4.89500 175.000
4.91000 177.000
4.92500 180.000
4.94000 181.000
4.95500 191.000
4.97000 175.000
4.98500 188.000
5.00000 167.000
5.01500 181.000
5.03000 184.000
5.04500 190.000
5.06000 170.000
5.07500 156.000
5.09000 170.000
5.10500 170.000
5.12000 175.000
5.13500 173.000
5.15000 162.000
5.16500 187.000
5.18000 192.000
5.19500 199.000
5.21000 176.000
5.22500 197.000
5.24000 197.000
5.25500 186.000
5.27000 173.000
5.28500 188.000
5.30000 181.000
5.31500 181.000
5.33000 166.000
5.34500 165.000
5.36000 188.000
5.37500 188.000
5.39000 188.000
5.40500 194.000
5.42000 184.000
5.43500 166.000
5.45000 160.000
5.46500 161.000
5.48000 157.000
5.49500 169.000
5.51000 194.000
5.52500 181.000
5.54000 179.000
5.55500 166.000
5.57000 166.000
5.58500 176.000
5.60000 186.000
5.61500 193.000
5.63000 183.000
5.64500 185.000
5.66000 171.000
5.67500 165.000
5.69000 201.000
5.70500 175.000
5.72000 185.000
5.73500 179.000
5.75000 185.000
5.76500 190.000
5.78000 192.000
5.79500 181.000
5.81000 175.000
5.82500 174.000
5.84000 172.000
5.85500 197.000
5.87000 169.000
5.88500 169.000
5.90000 165.000
5.91500 193.000
5.93000 192.000
5.94500 179.000
5.96000 179.000
5.97500 190.000
5.99000 185.000
6.00500 171.000
6.02000 178.000
6.03500 182.000
6.05000 170.000
6.06500 170.000
6.08000 180.000
6.09500 193.000
6.11000 194.000
6.12500 207.000
6.14000 184.000
6.15500 171.000
6.17000 180.000
6.18500 172.000
6.20000 181.000
6.21500 196.000
6.23000 178.000
6.24500 187.000
6.26000 185.000
6.27500 180.000
6.29000 175.000
6.30500 173.000
6.32000 201.000
6.33500 196.000
6.35000 182.000
6.36500 172.000
6.38000 199.000
6.39500 189.000
6.41000 194.000
6.42500 178.000
6.44000 193.000
6.45500 187.000
6.47000 169.000
6.48500 183.000
6.50000 183.000
6.51500 201.000
6.53000 194.000
6.54500 182.000
6.56000 169.000
6.57500 172.000
6.59000 204.000
6.60500 187.000
6.62000 178.000
6.63500 174.000
6.65000 178.000
6.66500 203.000
6.68000 186.000
6.69500 182.000
6.71000 179.000
6.72500 193.000
6.74000 202.000
6.75500 189.000
6.77000 205.000
6.78500 193.000
6.80000 221.000
6.81500 198.000
6.83000 165.000
6.84500 195.000
6.86000 183.000
6.87500 184.000
6.89000 168.000
6.90500 211.000
6.92000 190.000
6.93500 182.000
6.95000 195.000
6.96500 184.000
6.98000 189.000
6.99500 186.000
7.01000 208.000
7.02500 207.000
7.04000 200.000
7.05500 191.000
7.07000 179.000
7.08500 187.000
7.10000 205.000
7.11500 208.000
7.13000 200.000
7.14500 191.000
7.16000 195.000
7.17500 186.000
7.19000 201.000
7.20500 202.000
7.22000 196.000
7.23500 205.000
7.25000 177.000
7.26500 180.000
7.28000 199.000
7.29500 194.000
7.31000 192.000
7.32500 191.000
7.34000 208.000
7.35500 187.000
7.37000 182.000
7.38500 198.000
7.40000 200.000
7.41500 208.000
7.43000 195.000
7.44500 191.000
7.46000 213.000
7.47500 213.000
7.49000 229.000
7.50500 203.000
7.52000 191.000
7.53500 198.000
7.55000 215.000
7.56500 202.000
7.58000 207.000
7.59500 224.000
7.61000 210.000
7.62500 200.000
7.64000 189.000
7.65500 204.000
7.67000 215.000
7.68500 191.000
7.70000 208.000
7.71500 206.000
7.73000 213.000
7.74500 223.000
7.76000 208.000
7.77500 204.000
7.79000 212.000
7.80500 233.000
7.82000 240.000
7.83500 223.000
7.85000 193.000
7.86500 211.000
7.88000 220.000
7.89500 207.000
7.91000 186.000
7.92500 187.000
7.94000 188.000
7.95500 183.000
7.97000 209.000
7.98500 197.000
8.00000 192.000
8.01500 207.000
8.03000 199.000
8.04500 215.000
8.06000 191.000
8.07500 203.000
8.09000 191.000
8.10500 201.000
8.12000 217.000
8.13500 223.000
8.15000 204.000
8.16500 186.000
8.18000 230.000
8.19500 230.000
8.21000 208.000
8.22500 222.000
8.24000 206.000
8.25500 209.000
8.27000 216.000
8.28500 229.000
8.30000 219.000
8.31500 234.000
8.33000 226.000
8.34500 217.000
8.36000 216.000
8.37500 233.000
8.39000 213.000
8.40500 230.000
8.42000 218.000
8.43500 227.000
8.45000 245.000
8.46500 254.000
8.48000 241.000
8.49500 257.000
8.51000 261.000
8.52500 238.000
8.54000 249.000
8.55500 259.000
8.57000 263.000
8.58500 258.000
8.60000 267.000
8.61500 275.000
8.63000 273.000
8.64500 275.000
8.66000 307.000
8.67500 295.000
8.69000 298.000
8.70500 332.000
8.72000 308.000
8.73500 346.000
8.75000 392.000
8.76500 409.000
8.78000 433.000
8.79500 513.000
8.81000 556.000
8.82500 576.000
8.84000 645.000
8.85500 758.000
8.87000 845.000
8.88500 961.000
8.90000 1116.000
8.91500 1234.000
8.93000 1448.000
8.94500 1667.000
8.96000 2024.000
8.97500 2585.000
8.99000 3075.000
9.00500 3346.000
9.02000 3250.000
9.03500 2602.000
9.05000 1637.000
9.06500 979.000
9.08000 628.000
9.09500 495.000
9.11000 439.000
9.12500 364.000
9.14000 337.000
9.15500 336.000
9.17000 281.000
9.18500 269.000
9.20000 291.000
9.21500 267.000
9.23000 260.000
9.24500 243.000
9.26000 240.000
9.27500 219.000
9.29000 235.000
9.30500 241.000
9.32000 228.000
9.33500 224.000
9.35000 243.000
9.36500 232.000
9.38000 235.000
9.39500 219.000
9.41000 248.000
9.42500 236.000
9.44000 222.000
9.45500 229.000
9.47000 227.000
9.48500 229.000
9.50000 235.000
9.51500 216.000
9.53000 217.000
9.54500 224.000
9.56000 228.000
9.57500 208.000
9.59000 226.000
9.60500 207.000
9.62000 223.000
9.63500 232.000
9.65000 222.000
9.66500 224.000
9.68000 209.000
9.69500 203.000
9.71000 215.000
9.72500 229.000
9.74000 230.000
9.75500 197.000
9.77000 203.000
9.78500 213.000
9.80000 215.000
9.81500 232.000
9.83000 218.000
9.84500 214.000
9.86000 240.000
9.87500 215.000
9.89000 219.000
9.90500 218.000
9.92000 229.000
9.93500 220.000
9.95000 206.000
9.96500 216.000
9.98000 225.000
9.99500 208.000
10.01000 207.000
10.02500 217.000
10.04000 229.000
10.05500 235.000
10.07000 230.000
10.08500 229.000
10.10000 211.000
10.11500 229.000
10.13000 238.000
10.14500 250.000
10.16000 218.000
10.17500 236.000
10.19000 252.000
10.20500 265.000
10.22000 258.000
10.23500 273.000
10.25000 299.000
10.26500 307.000
10.28000 301.000
10.29500 328.000
10.31000 344.000
10.32500 372.000
10.34000 436.000
10.35500 488.000
10.37000 511.000
10.38500 562.000
10.40000 622.000
10.41500 703.000
10.43000 846.000
10.44500 966.000
10.46000 1149.000
10.47500 1281.000
10.49000 1474.000
10.50500 1818.000
10.52000 2157.000
10.53500 2648.000
10.55000 2942.000
10.56500 2832.000
10.58000 2214.000
10.59500 1492.000
10.61000 993.000
10.62500 735.000
10.64000 585.000
10.65500 501.000
10.67000 432.000
10.68500 372.000
10.70000 355.000
10.71500 341.000
10.73000 326.000
10.74500 311.000
10.76000 319.000
10.77500 329.000
10.79000 340.000
10.80500 365.000
10.82000 340.000
10.83500 291.000
10.85000 285.000
10.86500 257.000
10.88000 233.000
10.89500 239.000
10.91000 225.000
10.92500 230.000
10.94000 262.000
10.95500 266.000
10.97000 235.000
10.98500 235.000
11.00000 243.000
11.01500 249.000
11.03000 226.000
11.04500 225.000
11.06000 234.000
11.07500 239.000
11.09000 250.000
11.10500 241.000
11.12000 243.000
11.13500 232.000
11.15000 252.000
11.16500 244.000
11.18000 249.000
11.19500 259.000
11.21000 268.000
11.22500 277.000
11.24000 255.000
11.25500 256.000
11.27000 270.000
11.28500 273.000
11.30000 284.000
11.31500 279.000
11.33000 286.000
11.34500 306.000
11.36000 327.000
11.37500 330.000
11.39000 376.000
11.40500 416.000
11.42000 436.000
11.43500 446.000
11.45000 461.000
11.46500 531.000
11.48000 574.000
11.49500 675.000
11.51000 796.000
11.52500 908.000
11.54000 1038.000
11.55500 1203.000
11.57000 1354.000
11.58500 1655.000
11.60000 1912.000
11.61500 2273.000
11.63000 2734.000
11.64500 3391.000
11.66000 4130.000
11.67500 4895.000
11.69000 5155.000
11.70500 4269.000
11.72000 3081.000
11.73500 2254.000
11.75000 1551.000
11.76500 1277.000
11.78000 974.000
11.79500 891.000
11.81000 741.000
11.82500 713.000
11.84000 629.000
11.85500 555.000
11.87000 483.000
11.88500 471.000
11.90000 472.000
11.91500 427.000
11.93000 416.000
11.94500 378.000
11.96000 391.000
11.97500 384.000
11.99000 363.000
12.00500 326.000
12.02000 318.000
12.03500 294.000
12.05000 277.000
12.06500 265.000
12.08000 284.000
12.09500 287.000
12.11000 284.000
12.12500 264.000
12.14000 274.000
12.15500 264.000
12.17000 233.000
12.18500 240.000
12.20000 247.000
12.21500 247.000
12.23000 234.000
12.24500 254.000
12.26000 248.000
12.27500 243.000
12.29000 274.000
12.30500 250.000
12.32000 258.000
12.33500 290.000
12.35000 288.000
12.36500 282.000
12.38000 286.000
12.39500 256.000
12.41000 245.000
12.42500 220.000
12.44000 229.000
12.45500 244.000
12.47000 249.000
12.48500 250.000
12.50000 252.000
12.51500 246.000
12.53000 232.000
12.54500 231.000
12.56000 229.000
12.57500 208.000
12.59000 233.000
12.60500 227.000
12.62000 235.000
12.63500 223.000
12.65000 214.000
12.66500 192.000
12.68000 213.000
12.69500 228.000
12.71000 248.000
12.72500 237.000
12.74000 252.000
12.75500 264.000
12.77000 299.000
12.78500 309.000
12.80000 306.000
12.81500 318.000
12.83000 364.000
12.84500 409.000
12.86000 448.000
12.87500 512.000
12.89000 564.000
12.90500 679.000
12.92000 802.000
12.93500 963.000
12.95000 1199.000
12.96500 1502.000
12.98000 1945.000
12.99500 2496.000
13.01000 3131.000
13.02500 2979.000
13.04000 2139.000
13.05500 1284.000
13.07000 852.000
13.08500 577.000
13.10000 461.000
13.11500 441.000
13.13000 421.000
13.14500 399.000
13.16000 331.000
13.17500 293.000
13.19000 314.000
13.20500 352.000
13.22000 361.000
13.23500 369.000
13.25000 418.000
13.26500 438.000
13.28000 462.000
13.29500 586.000
13.31000 715.000
13.32500 900.000
13.34000 1027.000
13.35500 1259.000
13.37000 1520.000
13.38500 1837.000
13.40000 1917.000
13.41500 1565.000
13.43000 897.000
13.44500 503.000
13.46000 347.000
13.47500 287.000
13.49000 262.000
13.50500 265.000
13.52000 222.000
13.53500 234.000
13.55000 213.000
13.56500 213.000
13.58000 202.000
13.59500 228.000
13.61000 203.000
13.62500 211.000
13.64000 196.000
13.65500 217.000
13.67000 214.000
13.68500 210.000
13.70000 226.000
13.71500 236.000
13.73000 247.000
13.74500 215.000
13.76000 203.000
13.77500 213.000
13.79000 195.000
13.80500 220.000
13.82000 214.000
13.83500 225.000
13.85000 222.000
13.86500 219.000
13.88000 232.000
13.89500 240.000
13.91000 253.000
13.92500 272.000
13.94000 272.000
13.95500 313.000
13.97000 326.000
13.98500 342.000
14.00000 290.000
14.01500 286.000
14.03000 244.000
14.04500 248.000
14.06000 224.000
14.07500 207.000
14.09000 218.000
14.10500 200.000
14.12000 205.000
14.13500 208.000
14.15000 204.000
14.16500 190.000
14.18000 222.000
14.19500 216.000
14.21000 218.000
14.22500 221.000
14.24000 230.000
14.25500 207.000
14.27000 205.000
14.28500 236.000
14.30000 219.000
14.31500 198.000
14.33000 217.000
14.34500 202.000
14.36000 223.000
14.37500 214.000
14.39000 205.000
14.40500 217.000
14.42000 225.000
14.43500 215.000
14.45000 213.000
14.46500 222.000
14.48000 203.000
14.49500 200.000
14.51000 229.000
14.52500 221.000
14.54000 216.000
14.55500 225.000
14.57000 249.000
14.58500 229.000
14.60000 228.000
14.61500 225.000
14.63000 222.000
14.64500 227.000
14.66000 235.000
14.67500 231.000
14.69000 224.000
14.70500 234.000
14.72000 260.000
14.73500 287.000
14.75000 266.000
14.76500 277.000
14.78000 328.000
14.79500 358.000
14.81000 385.000
14.82500 445.000
14.84000 537.000
14.85500 660.000
14.87000 689.000
14.88500 832.000
14.90000 1068.000
14.91500 1344.000
14.93000 1668.000
14.94500 2115.000
14.96000 2834.000
14.97500 3762.000
14.99000 4285.000
15.00500 3906.000
15.02000 2771.000
15.03500 1594.000
15.05000 888.000
15.06500 569.000
15.08000 433.000
15.09500 356.000
15.11000 317.000
15.12500 305.000
15.14000 283.000
15.15500 267.000
15.17000 244.000
15.18500 243.000
15.20000 243.000
15.21500 231.000
15.23000 231.000
15.24500 263.000
15.26000 229.000
15.27500 235.000
15.29000 246.000
15.30500 245.000
15.32000 227.000
15.33500 231.000
15.35000 216.000
15.36500 228.000
15.38000 239.000
15.39500 256.000
15.41000 257.000
15.42500 261.000
15.44000 295.000
15.45500 267.000
15.47000 240.000
15.48500 246.000
15.50000 236.000
15.51500 215.000
15.53000 226.000
15.54500 231.000
15.56000 250.000
15.57500 255.000
15.59000 242.000
15.60500 240.000
15.62000 251.000
15.63500 287.000
15.65000 280.000
15.66500 290.000
15.68000 300.000
15.69500 359.000
15.71000 364.000
15.72500 337.000
15.74000 303.000
15.75500 255.000
15.77000 262.000
15.78500 248.000
15.80000 248.000
15.81500 224.000
15.83000 212.000
15.84500 257.000
15.86000 261.000
15.87500 266.000
15.89000 278.000
15.90500 274.000
15.92000 295.000
15.93500 339.000
15.95000 351.000
15.96500 418.000
15.98000 454.000
15.99500 490.000
16.01000 561.000
16.02500 616.000
16.04000 694.000
16.05500 774.000
16.07000 909.000
16.08500 911.000
16.10000 869.000
16.11500 747.000
16.13000 586.000
16.14500 536.000
16.16000 434.000
16.17500 408.000
16.19000 337.000
16.20500 314.000
16.22000 310.000
16.23500 288.000
16.25000 302.000
16.26500 283.000
16.28000 261.000
16.29500 291.000
16.31000 252.000
16.32500 246.000
16.34000 247.000
16.35500 235.000
16.37000 283.000
16.38500 272.000
16.40000 265.000
16.41500 244.000
16.43000 260.000
16.44500 276.000
16.46000 291.000
16.47500 310.000
16.49000 340.000
16.50500 343.000
16.52000 362.000
16.53500 453.000
16.55000 511.000
16.56500 548.000
16.58000 649.000
16.59500 805.000
16.61000 1006.000
16.62500 1216.000
16.64000 1470.000
16.65500 1761.000
16.67000 1857.000
16.68500 1600.000
16.70000 1286.000
16.71500 996.000
16.73000 667.000
16.74500 541.000
16.76000 472.000
16.77500 371.000
16.79000 337.000
16.80500 323.000
16.82000 328.000
16.83500 283.000
16.85000 278.000
16.86500 255.000
16.88000 270.000
16.89500 210.000
16.91000 246.000
16.92500 233.000
16.94000 246.000
16.95500 243.000
16.97000 222.000
16.98500 225.000
17.00000 225.000
17.01500 237.000
17.03000 234.000
17.04500 233.000
17.06000 233.000
17.07500 235.000
17.09000 225.000
17.10500 221.000
17.12000 212.000
17.13500 209.000
17.15000 222.000
17.16500 226.000
17.18000 237.000
17.19500 226.000
17.21000 236.000
17.22500 225.000
17.24000 231.000
17.25500 229.000
17.27000 234.000
17.28500 206.000
17.30000 209.000
17.31500 232.000
17.33000 222.000
17.34500 202.000
17.36000 204.000
17.37500 214.000
17.39000 211.000
17.40500 209.000
17.42000 211.000
17.43500 233.000
17.45000 224.000
17.46500 224.000
17.48000 208.000
17.49500 201.000
17.51000 216.000
17.52500 214.000
17.54000 224.000
17.55500 219.000
17.57000 210.000
17.58500 221.000
17.60000 243.000
17.61500 226.000
17.63000 220.000
17.64500 232.000
17.66000 224.000
17.67500 231.000
17.69000 247.000
17.70500 230.000
17.72000 256.000
17.73500 244.000
17.75000 248.000
17.76500 221.000
17.78000 228.000
17.79500 247.000
17.81000 253.000
17.82500 258.000
17.84000 271.000
17.85500 299.000
17.87000 302.000
17.88500 327.000
17.90000 342.000
17.91500 379.000
17.93000 413.000
17.94500 481.000
17.96000 518.000
17.97500 645.000
17.99000 750.000
18.00500 875.000
18.02000 1079.000
18.03500 1291.000
18.05000 1447.000
18.06500 1745.000
18.08000 1936.000
18.09500 1955.000
18.11000 1770.000
18.12500 1488.000
18.14000 1240.000
18.15500 982.000
18.17000 751.000
18.18500 619.000
18.20000 511.000
18.21500 461.000
18.23000 365.000
18.24500 380.000
18.26000 348.000
18.27500 313.000
18.29000 300.000
18.30500 291.000
18.32000 293.000
18.33500 286.000
18.35000 288.000
18.36500 252.000
18.38000 270.000
18.39500 256.000
18.41000 269.000
18.42500 275.000
18.44000 272.000
18.45500 279.000
18.47000 278.000
18.48500 280.000
18.50000 295.000
18.51500 317.000
18.53000 277.000
18.54500 270.000
18.56000 266.000
18.57500 226.000
18.59000 228.000
18.60500 243.000
18.62000 255.000
18.63500 247.000
18.65000 241.000
18.66500 238.000
18.68000 237.000
18.69500 248.000
18.71000 246.000
18.72500 249.000
18.74000 241.000
18.75500 241.000
18.77000 237.000
18.78500 208.000
18.80000 242.000
18.81500 240.000
18.83000 228.000
18.84500 257.000
18.86000 280.000
18.87500 286.000
18.89000 260.000
18.90500 236.000
18.92000 231.000
18.93500 235.000
18.95000 277.000
18.96500 218.000
18.98000 211.000
18.99500 217.000
19.01000 222.000
19.02500 221.000
19.04000 230.000
19.05500 258.000
19.07000 262.000
19.08500 238.000
19.10000 235.000
19.11500 217.000
19.13000 231.000
19.14500 231.000
19.16000 205.000
19.17500 191.000
19.19000 209.000
19.20500 229.000
19.22000 243.000
19.23500 240.000
19.25000 243.000
19.26500 247.000
19.28000 227.000
19.29500 240.000
19.31000 232.000
19.32500 219.000
19.34000 227.000
19.35500 241.000
19.37000 237.000
19.38500 216.000
19.40000 242.000
19.41500 251.000
19.43000 265.000
19.44500 337.000
19.46000 361.000
19.47500 402.000
19.49000 432.000
19.50500 553.000
19.52000 700.000
19.53500 883.000
19.55000 1054.000
19.56500 1455.000
19.58000 1949.000
19.59500 2526.000
19.61000 3041.000
19.62500 2819.000
19.64000 2009.000
19.65500 1222.000
19.67000 699.000
19.68500 497.000
19.70000 374.000
19.71500 342.000
19.73000 312.000
19.74500 299.000
19.76000 254.000
19.77500 240.000
19.79000 241.000
19.80500 234.000
19.82000 232.000
19.83500 245.000
19.85000 222.000
19.86500 224.000
19.88000 227.000
19.89500 246.000
19.91000 227.000
19.92500 257.000
19.94000 255.000
19.95500 247.000
19.97000 234.000
19.98500 243.000
20.00000 215.000
20.01500 244.000
20.03000 242.000
20.04500 252.000
20.06000 253.000
20.07500 245.000
20.09000 242.000
20.10500 239.000
20.12000 246.000
20.13500 258.000
20.15000 247.000
20.16500 251.000
20.18000 280.000
20.19500 286.000
20.21000 303.000
20.22500 353.000
20.24000 379.000
20.25500 436.000
20.27000 531.000
20.28500 718.000
20.30000 892.000
20.31500 913.000
20.33000 786.000
20.34500 596.000
20.36000 408.000
20.37500 326.000
20.39000 312.000
20.40500 268.000
20.42000 275.000
20.43500 293.000
20.45000 280.000
20.46500 283.000
20.48000 247.000
20.49500 263.000
20.51000 257.000
20.52500 262.000
20.54000 254.000
20.55500 255.000
20.57000 274.000
20.58500 296.000
20.60000 292.000
20.61500 307.000
20.63000 319.000
20.64500 337.000
20.66000 392.000
20.67500 403.000
20.69000 456.000
20.70500 404.000
20.72000 364.000
20.73500 324.000
20.75000 308.000
20.76500 275.000
20.78000 274.000
20.79500 284.000
20.81000 294.000
20.82500 281.000
20.84000 278.000
20.85500 299.000
20.87000 296.000
20.88500 287.000
20.90000 302.000
20.91500 316.000
20.93000 333.000
20.94500 298.000
20.96000 336.000
20.97500 381.000
20.99000 397.000
21.00500 417.000
21.02000 434.000
21.03500 507.000
21.05000 583.000
21.06500 670.000
21.08000 724.000
21.09500 835.000
21.11000 930.000
21.12500 916.000
21.14000 849.000
21.15500 876.000
21.17000 861.000
21.18500 871.000
21.20000 939.000
21.21500 940.000
21.23000 865.000
21.24500 769.000
21.26000 705.000
21.27500 643.000
21.29000 610.000
21.30500 585.000
21.32000 570.000
21.33500 587.000
21.35000 631.000
21.36500 615.000
21.38000 676.000
21.39500 744.000
21.41000 844.000
21.42500 900.000
21.44000 1051.000
21.45500 1202.000
21.47000 1433.000
21.48500 1754.000
21.50000 2182.000
21.51500 2611.000
21.53000 3139.000
21.54500 3794.000
21.56000 4438.000
21.57500 5040.000
21.59000 5739.000
21.60500 5902.000
21.62000 5229.000
21.63500 4200.000
21.65000 3130.000
21.66500 2326.000
21.68000 1778.000
21.69500 1419.000
21.71000 1151.000
21.72500 973.000
21.74000 876.000
21.75500 784.000
21.77000 700.000
21.78500 646.000
21.80000 630.000
21.81500 594.000
21.83000 536.000
21.84500 516.000
21.86000 491.000
21.87500 454.000
21.89000 419.000
21.90500 461.000
21.92000 454.000
21.93500 417.000
21.95000 397.000
21.96500 394.000
21.98000 389.000
21.99500 395.000
22.01000 376.000
22.02500 389.000
22.04000 354.000
22.05500 363.000
22.07000 371.000
22.08500 357.000
22.10000 339.000
22.11500 346.000
22.13000 349.000
22.14500 330.000
22.16000 324.000
22.17500 340.000
22.19000 327.000
22.20500 307.000
22.22000 332.000
22.23500 327.000
22.25000 323.000
22.26500 335.000
22.28000 356.000
22.29500 393.000
22.31000 372.000
22.32500 346.000
22.34000 411.000
22.35500 433.000
22.37000 460.000
22.38500 464.000
22.40000 521.000
22.41500 605.000
22.43000 656.000
22.44500 808.000
22.46000 935.000
22.47500 872.000
22.49000 815.000
22.50500 722.000
22.52000 577.000
22.53500 499.000
22.55000 424.000
22.56500 378.000
22.58000 358.000
22.59500 368.000
22.61000 329.000
22.62500 298.000
22.64000 281.000
22.65500 276.000
22.67000 290.000
22.68500 295.000
22.70000 301.000
22.71500 301.000
22.73000 331.000
22.74500 330.000
22.76000 313.000
22.77500 377.000
22.79000 417.000
22.80500 429.000
22.82000 495.000
22.83500 446.000
22.85000 419.000
22.86500 397.000
22.88000 392.000
22.89500 367.000
22.91000 343.000
22.92500 305.000
22.94000 292.000
22.95500 251.000
22.97000 279.000
22.98500 281.000
23.00000 271.000
23.01500 261.000
23.03000 266.000
23.04500 267.000
23.06000 257.000
23.07500 248.000
23.09000 256.000
23.10500 253.000
23.12000 264.000
23.13500 263.000
23.15000 264.000
23.16500 253.000
23.18000 256.000
23.19500 240.000
23.21000 260.000
23.22500 282.000
23.24000 296.000
23.25500 266.000
23.27000 290.000
23.28500 297.000
23.30000 306.000
23.31500 307.000
23.33000 277.000
23.34500 322.000
23.36000 373.000
23.37500 378.000
23.39000 386.000
23.40500 404.000
23.42000 437.000
23.43500 426.000
23.45000 426.000
23.46500 445.000
23.48000 428.000
23.49500 430.000
23.51000 415.000
23.52500 394.000
23.54000 377.000
23.55500 362.000
23.57000 314.000
23.58500 293.000
23.60000 296.000
23.61500 255.000
23.63000 257.000
23.64500 270.000
23.66000 281.000
23.67500 250.000
23.69000 244.000
23.70500 247.000
23.72000 253.000
23.73500 282.000
23.75000 277.000
23.76500 251.000
23.78000 255.000
23.79500 265.000
23.81000 251.000
23.82500 232.000
23.84000 252.000
23.85500 245.000
23.87000 258.000
23.88500 258.000
23.90000 266.000
23.91500 246.000
23.93000 236.000
23.94500 236.000
23.96000 259.000
23.97500 230.000
23.99000 221.000
24.00500 248.000
24.02000 248.000
24.03500 261.000
24.05000 229.000
24.06500 243.000
24.08000 244.000
24.09500 254.000
24.11000 231.000
24.12500 251.000
24.14000 238.000
24.15500 242.000
24.17000 251.000
24.18500 273.000
24.20000 268.000
24.21500 245.000
24.23000 237.000
24.24500 240.000
24.26000 244.000
24.27500 261.000
24.29000 253.000
24.30500 256.000
24.32000 251.000
24.33500 244.000
24.35000 232.000
24.36500 239.000
24.38000 244.000
24.39500 237.000
24.41000 244.000
24.42500 236.000
24.44000 241.000
24.45500 245.000
24.47000 238.000
24.48500 254.000
24.50000 246.000
24.51500 254.000
24.53000 268.000
24.54500 264.000
24.56000 245.000
24.57500 242.000
24.59000 258.000
24.60500 273.000
24.62000 281.000
24.63500 250.000
24.65000 226.000
24.66500 246.000
24.68000 244.000
24.69500 249.000
24.71000 259.000
24.72500 228.000
24.74000 234.000
24.75500 245.000
24.77000 227.000
24.78500 225.000
24.80000 244.000
24.81500 235.000
24.83000 223.000
24.84500 221.000
24.86000 248.000
24.87500 246.000
24.89000 247.000
24.90500 258.000
24.92000 238.000
24.93500 235.000
24.95000 226.000
24.96500 238.000
24.98000 220.000
24.99500 250.000
25.01000 254.000
25.02500 246.000
25.04000 240.000
25.05500 214.000
25.07000 215.000
25.08500 218.000
25.10000 229.000
25.11500 223.000
25.13000 210.000
25.14500 222.000
25.16000 217.000
25.17500 222.000
25.19000 234.000
25.20500 232.000
25.22000 227.000
25.23500 220.000
25.25000 223.000
25.26500 223.000
25.28000 238.000
25.29500 233.000
25.31000 243.000
25.32500 216.000
25.34000 212.000
25.35500 219.000
25.37000 230.000
25.38500 237.000
25.40000 231.000
25.41500 224.000
25.43000 260.000
25.44500 250.000
25.46000 239.000
25.47500 261.000
25.49000 229.000
25.50500 218.000
25.52000 241.000
25.53500 261.000
25.55000 269.000
25.56500 256.000
25.58000 240.000
25.59500 252.000
25.61000 238.000
25.62500 232.000
25.64000 230.000
25.65500 221.000
25.67000 228.000
25.68500 233.000
25.70000 238.000
25.71500 222.000
25.73000 246.000
25.74500 240.000
25.76000 237.000
25.77500 209.000
25.79000 231.000
25.80500 231.000
25.82000 244.000
25.83500 231.000
25.85000 239.000
25.86500 239.000
25.88000 257.000
25.89500 220.000
25.91000 208.000
25.92500 222.000
25.94000 232.000
25.95500 237.000
25.97000 227.000
25.98500 251.000
26.00000 235.000
26.01500 259.000
26.03000 238.000
26.04500 236.000
26.06000 271.000
26.07500 288.000
26.09000 298.000
26.10500 319.000
26.12000 350.000
26.13500 391.000
26.15000 481.000
26.16500 574.000
26.18000 650.000
26.19500 797.000
26.21000 870.000
26.22500 759.000
26.24000 599.000
26.25500 490.000
26.27000 375.000
26.28500 339.000
26.30000 336.000
26.31500 300.000
26.33000 270.000
26.34500 255.000
26.36000 252.000
26.37500 259.000
26.39000 247.000
26.40500 276.000
26.42000 271.000
26.43500 277.000
26.45000 270.000
26.46500 283.000
26.48000 283.000
26.49500 301.000
26.51000 299.000
26.52500 304.000
26.54000 314.000
26.55500 306.000
26.57000 298.000
26.58500 288.000
26.60000 284.000
26.61500 319.000
26.63000 294.000
26.64500 328.000
26.66000 369.000
26.67500 364.000
26.69000 390.000
26.70500 433.000
26.72000 488.000
26.73500 588.000
26.75000 686.000
26.76500 756.000
26.78000 687.000
26.79500 675.000
26.81000 582.000
26.82500 522.000
26.84000 480.000
26.85500 460.000
26.87000 417.000
26.88500 397.000
26.90000 427.000
26.91500 418.000
26.93000 396.000
26.94500 424.000
26.96000 424.000
26.97500 435.000
26.99000 460.000
27.00500 403.000
27.02000 467.000
27.03500 465.000
27.05000 521.000
27.06500 543.000
27.08000 653.000
27.09500 713.000
27.11000 814.000
27.12500 963.000
27.14000 973.000
27.15500 1021.000
27.17000 869.000
27.18500 738.000
27.20000 581.000
27.21500 514.000
27.23000 415.000
27.24500 386.000
27.26000 346.000
27.27500 346.000
27.29000 334.000
27.30500 332.000
27.32000 304.000
27.33500 301.000
27.35000 308.000
27.36500 314.000
27.38000 340.000
27.39500 322.000
27.41000 341.000
27.42500 375.000
27.44000 434.000
27.45500 454.000
27.47000 502.000
27.48500 568.000
27.50000 664.000
27.51500 819.000
27.53000 977.000
27.54500 1244.000
27.56000 1529.000
27.57500 1898.000
27.59000 2052.000
27.60500 1846.000
27.62000 1465.000
27.63500 1047.000
27.65000 810.000
27.66500 605.000
27.68000 538.000
27.69500 489.000
27.71000 457.000
27.72500 446.000
27.74000 447.000
27.75500 464.000
27.77000 484.000
27.78500 470.000
27.80000 521.000
27.81500 511.000
27.83000 482.000
27.84500 416.000
27.86000 368.000
27.87500 327.000
27.89000 346.000
27.90500 335.000
27.92000 299.000
27.93500 301.000
27.95000 297.000
27.96500 317.000
27.98000 327.000
27.99500 331.000
28.01000 331.000
28.02500 405.000
28.04000 445.000
28.05500 493.000
28.07000 521.000
28.08500 553.000
28.10000 513.000
28.11500 464.000
28.13000 382.000
28.14500 332.000
28.16000 283.000
28.17500 272.000
28.19000 256.000
28.20500 240.000
28.22000 249.000
28.23500 271.000
28.25000 238.000
28.26500 243.000
28.28000 245.000
28.29500 251.000
28.31000 261.000
28.32500 270.000
28.34000 267.000
28.35500 278.000
28.37000 281.000
28.38500 277.000
28.40000 267.000
28.41500 303.000
28.43000 340.000
28.44500 326.000
28.46000 387.000
28.47500 416.000
28.49000 453.000
28.50500 543.000
28.52000 625.000
28.53500 744.000
28.55000 910.000
28.56500 1110.000
28.58000 1217.000
28.59500 1183.000
28.61000 1083.000
28.62500 888.000
28.64000 724.000
28.65500 577.000
28.67000 543.000
28.68500 494.000
28.70000 488.000
28.71500 522.000
28.73000 555.000
28.74500 493.000
28.76000 495.000
28.77500 486.000
28.79000 449.000
28.80500 433.000
28.82000 474.000
28.83500 482.000
28.85000 445.000
28.86500 431.000
28.88000 382.000
28.89500 358.000
28.91000 340.000
28.92500 331.000
28.94000 332.000
28.95500 325.000
28.97000 310.000
28.98500 280.000
29.00000 313.000
29.01500 311.000
29.03000 297.000
29.04500 304.000
29.06000 313.000
29.07500 372.000
29.09000 411.000
29.10500 461.000
29.12000 481.000
29.13500 443.000
29.15000 395.000
29.16500 361.000
29.18000 292.000
29.19500 276.000
29.21000 271.000
29.22500 269.000
29.24000 267.000
29.25500 234.000
29.27000 247.000
29.28500 263.000
29.30000 252.000
29.31500 236.000
29.33000 265.000
29.34500 241.000
29.36000 255.000
29.37500 274.000
29.39000 292.000
29.40500 310.000
29.42000 298.000
29.43500 288.000
29.45000 261.000
29.46500 247.000
29.48000 253.000
29.49500 253.000
29.51000 247.000
29.52500 239.000
29.54000 248.000
29.55500 250.000
29.57000 238.000
29.58500 271.000
29.60000 255.000
29.61500 248.000
29.63000 244.000
29.64500 239.000
29.66000 253.000
29.67500 246.000
29.69000 253.000
29.70500 256.000
29.72000 230.000
29.73500 238.000
29.75000 228.000
29.76500 229.000
29.78000 246.000
29.79500 252.000
29.81000 251.000
29.82500 232.000
29.84000 254.000
29.85500 260.000
29.87000 231.000
29.88500 248.000
29.90000 247.000
29.91500 251.000
29.93000 256.000
29.94500 271.000
29.96000 275.000
29.97500 258.000
29.99000 283.000
30.00500 298.000
30.02000 321.000
30.03500 322.000
30.05000 313.000
30.06500 346.000
30.08000 333.000
30.09500 371.000
30.11000 368.000
30.12500 398.000
30.14000 449.000
30.15500 523.000
30.17000 607.000
30.18500 719.000
30.20000 872.000
30.21500 1078.000
30.23000 1362.000
30.24500 1611.000
30.26000 1924.000
30.27500 2015.000
30.29000 1973.000
30.30500 1919.000
30.32000 1970.000
30.33500 2056.000
30.35000 2141.000
30.36500 2245.000
30.38000 2163.000
30.39500 1888.000
30.41000 1507.000
30.42500 1157.000
30.44000 903.000
30.45500 762.000
30.47000 643.000
30.48500 550.000
30.50000 512.000
30.51500 427.000
30.53000 373.000
30.54500 361.000
30.56000 353.000
30.57500 330.000
30.59000 309.000
30.60500 311.000
30.62000 288.000
30.63500 294.000
30.65000 271.000
30.66500 288.000
30.68000 277.000
30.69500 241.000
30.71000 269.000
30.72500 262.000
30.74000 269.000
30.75500 265.000
30.77000 246.000
30.78500 245.000
30.80000 259.000
30.81500 269.000
30.83000 255.000
30.84500 241.000
30.86000 242.000
30.87500 255.000
30.89000 249.000
30.90500 255.000
30.92000 269.000
30.93500 272.000
30.95000 241.000
30.96500 250.000
30.98000 235.000
30.99500 238.000
31.01000 268.000
31.02500 251.000
31.04000 243.000
31.05500 286.000
31.07000 296.000
31.08500 293.000
31.10000 289.000
31.11500 300.000
31.13000 310.000
31.14500 326.000
31.16000 349.000
31.17500 338.000
31.19000 304.000
31.20500 282.000
31.22000 279.000
31.23500 274.000
31.25000 294.000
31.26500 279.000
31.28000 279.000
31.29500 301.000
31.31000 286.000
31.32500 275.000
31.34000 305.000
31.35500 303.000
31.37000 325.000
31.38500 313.000
31.40000 302.000
31.41500 307.000
31.43000 346.000
31.44500 361.000
31.46000 351.000
31.47500 332.000
31.49000 387.000
31.50500 393.000
31.52000 390.000
31.53500 445.000
31.55000 434.000
31.56500 470.000
31.58000 570.000
31.59500 585.000
31.61000 640.000
31.62500 743.000
31.64000 860.000
31.65500 918.000
31.67000 1107.000
31.68500 1307.000
31.70000 1526.000
31.71500 1737.000
31.73000 1912.000
31.74500 1958.000
31.76000 1988.000
31.77500 2120.000
31.79000 2212.000
31.80500 2434.000
31.82000 2682.000
31.83500 2812.000
31.85000 2885.000
31.86500 2762.000
31.88000 2489.000
31.89500 2033.000
31.91000 1620.000
31.92500 1305.000
31.94000 1108.000
31.95500 912.000
31.97000 778.000
31.98500 672.000
32.00000 607.000
32.01500 570.000
32.03000 510.000
32.04500 514.000
32.06000 445.000
32.07500 415.000
32.09000 401.000
32.10500 377.000
32.12000 366.000
32.13500 357.000
32.15000 365.000
32.16500 372.000
32.18000 353.000
32.19500 358.000
32.21000 326.000
32.22500 324.000
32.24000 309.000
32.25500 316.000
32.27000 319.000
32.28500 307.000
32.30000 305.000
32.31500 314.000
32.33000 325.000
32.34500 350.000
32.36000 352.000
32.37500 393.000
32.39000 437.000
32.40500 458.000
32.42000 557.000
32.43500 658.000
32.45000 763.000
32.46500 924.000
32.48000 1249.000
32.49500 1731.000
32.51000 2214.000
32.52500 2697.000
32.54000 2823.000
32.55500 2576.000
32.57000 1940.000
32.58500 1318.000
32.60000 898.000
32.61500 727.000
32.63000 613.000
32.64500 560.000
32.66000 520.000
32.67500 561.000
32.69000 556.000
32.70500 526.000
32.72000 501.000
32.73500 464.000
32.75000 410.000
32.76500 389.000
32.78000 364.000
32.79500 368.000
32.81000 348.000
32.82500 319.000
32.84000 311.000
32.85500 290.000
32.87000 251.000
32.88500 274.000
32.90000 248.000
32.91500 237.000
32.93000 233.000
32.94500 227.000
32.96000 223.000
32.97500 242.000
32.99000 238.000
33.00500 227.000
33.02000 226.000
33.03500 208.000
33.05000 219.000
33.06500 215.000
33.08000 215.000
33.09500 252.000
33.11000 237.000
33.12500 207.000
33.14000 229.000
33.15500 252.000
33.17000 240.000
33.18500 254.000
33.20000 276.000
33.21500 299.000
33.23000 299.000
33.24500 310.000
33.26000 321.000
33.27500 307.000
33.29000 291.000
33.30500 269.000
33.32000 246.000
33.33500 239.000
33.35000 248.000
33.36500 225.000
33.38000 214.000
33.39500 215.000
33.41000 230.000
33.42500 235.000
33.44000 230.000
33.45500 290.000
33.47000 313.000
33.48500 347.000
33.50000 406.000
33.51500 476.000
33.53000 571.000
33.54500 570.000
33.56000 500.000
33.57500 372.000
33.59000 317.000
33.60500 292.000
33.62000 277.000
33.63500 282.000
33.65000 269.000
33.66500 310.000
33.68000 319.000
33.69500 296.000
33.71000 324.000
33.72500 305.000
33.74000 273.000
33.75500 242.000
33.77000 253.000
33.78500 232.000
33.80000 221.000
33.81500 208.000
33.83000 206.000
33.84500 229.000
33.86000 225.000
33.87500 221.000
33.89000 201.000
33.90500 190.000
33.92000 192.000
33.93500 202.000
33.95000 199.000
33.96500 200.000
33.98000 216.000
33.99500 194.000
34.01000 187.000
34.02500 186.000
34.04000 200.000
34.05500 201.000
34.07000 199.000
34.08500 195.000
34.10000 180.000
34.11500 192.000
34.13000 185.000
34.14500 184.000
34.16000 204.000
34.17500 196.000
34.19000 197.000
34.20500 193.000
34.22000 175.000
34.23500 178.000
34.25000 181.000
34.26500 204.000
34.28000 197.000
34.29500 207.000
34.31000 190.000
34.32500 181.000
34.34000 196.000
34.35500 186.000
34.37000 178.000
34.38500 204.000
34.40000 212.000
34.41500 186.000
34.43000 190.000
34.44500 175.000
34.46000 174.000
34.47500 183.000
34.49000 187.000
34.50500 186.000
34.52000 174.000
34.53500 195.000
34.55000 171.000
34.56500 186.000
34.58000 195.000
34.59500 174.000
34.61000 172.000
34.62500 195.000
34.64000 187.000
34.65500 187.000
34.67000 167.000
34.68500 171.000
34.70000 175.000
34.71500 178.000
34.73000 174.000
34.74500 189.000
34.76000 185.000
34.77500 184.000
34.79000 180.000
34.80500 197.000
34.82000 208.000
34.83500 186.000
34.85000 182.000
34.86500 180.000
34.88000 185.000
34.89500 199.000
34.91000 218.000
34.92500 240.000
34.94000 219.000
34.95500 228.000
34.97000 232.000
34.98500 261.000
35.00000 286.000
35.01500 332.000
35.03000 345.000
35.04500 419.000
35.06000 464.000
35.07500 512.000
35.09000 554.000
35.10500 517.000
35.12000 479.000
35.13500 383.000
35.15000 338.000
35.16500 303.000
35.18000 292.000
35.19500 262.000
35.21000 268.000
35.22500 265.000
35.24000 247.000
35.25500 235.000
35.27000 253.000
35.28500 249.000
35.30000 265.000
35.31500 279.000
35.33000 282.000
35.34500 311.000
35.36000 318.000
35.37500 323.000
35.39000 355.000
35.40500 352.000
35.42000 402.000
35.43500 458.000
35.45000 489.000
35.46500 559.000
35.48000 629.000
35.49500 846.000
35.51000 1090.000
35.52500 1296.000
35.54000 1380.000
35.55500 1270.000
35.57000 1081.000
35.58500 859.000
35.60000 670.000
35.61500 554.000
35.63000 440.000
35.64500 406.000
35.66000 351.000
35.67500 337.000
35.69000 307.000
35.70500 306.000
35.72000 258.000
35.73500 247.000
35.75000 249.000
35.76500 252.000
35.78000 232.000
35.79500 218.000
35.81000 219.000
35.82500 206.000
35.84000 220.000
35.85500 215.000
35.87000 218.000
35.88500 227.000
35.90000 245.000
35.91500 256.000
35.93000 232.000
35.94500 245.000
35.96000 236.000
35.97500 219.000
35.99000 239.000
36.00500 270.000
36.02000 272.000
36.03500 254.000
36.05000 262.000
36.06500 288.000
36.08000 350.000
36.09500 396.000
36.11000 445.000
36.12500 478.000
36.14000 568.000
36.15500 666.000
36.17000 801.000
36.18500 941.000
36.20000 934.000
36.21500 906.000
36.23000 899.000
36.24500 861.000
36.26000 839.000
36.27500 903.000
36.29000 946.000
36.30500 960.000
36.32000 907.000
36.33500 798.000
36.35000 676.000
36.36500 511.000
36.38000 442.000
36.39500 367.000
36.41000 339.000
36.42500 286.000
36.44000 252.000
36.45500 260.000
36.47000 239.000
36.48500 238.000
36.50000 261.000
36.51500 256.000
36.53000 272.000
36.54500 270.000
36.56000 252.000
36.57500 273.000
36.59000 270.000
36.60500 301.000
36.62000 301.000
36.63500 331.000
36.65000 334.000
36.66500 336.000
36.68000 339.000
36.69500 301.000
36.71000 319.000
36.72500 281.000
36.74000 282.000
36.75500 280.000
36.77000 293.000
36.78500 306.000
36.80000 302.000
36.81500 284.000
36.83000 315.000
36.84500 294.000
36.86000 291.000
36.87500 294.000
36.89000 268.000
36.90500 249.000
36.92000 254.000
36.93500 220.000
36.95000 212.000
36.96500 225.000
36.98000 224.000
36.99500 207.000
37.01000 209.000
37.02500 227.000
37.04000 235.000
37.05500 239.000
37.07000 246.000
37.08500 244.000
37.10000 248.000
37.11500 190.000
37.13000 209.000
37.14500 215.000
37.16000 202.000
37.17500 205.000
37.19000 241.000
37.20500 269.000
37.22000 263.000
37.23500 284.000
37.25000 294.000
37.26500 306.000
37.28000 298.000
37.29500 308.000
37.31000 308.000
37.32500 342.000
37.34000 342.000
37.35500 381.000
37.37000 469.000
37.38500 566.000
37.40000 627.000
37.41500 762.000
37.43000 928.000
37.44500 1000.000
37.46000 1088.000
37.47500 1108.000
37.49000 987.000
37.50500 889.000
37.52000 784.000
37.53500 657.000
37.55000 544.000
37.56500 513.000
37.58000 477.000
37.59500 416.000
37.61000 409.000
37.62500 376.000
37.64000 396.000
37.65500 392.000
37.67000 449.000
37.68500 493.000
37.70000 523.000
37.71500 538.000
37.73000 567.000
37.74500 563.000
37.76000 527.000
37.77500 474.000
37.79000 405.000
37.80500 388.000
37.82000 353.000
37.83500 314.000
37.85000 285.000
37.86500 263.000
37.88000 218.000
37.89500 209.000
37.91000 193.000
37.92500 208.000
37.94000 214.000
37.95500 202.000
37.97000 210.000
37.98500 215.000
38.00000 206.000
38.01500 195.000
38.03000 184.000
38.04500 196.000
38.06000 170.000
38.07500 181.000
38.09000 186.000
38.10500 188.000
38.12000 165.000
38.13500 192.000
38.15000 179.000
38.16500 183.000
38.18000 188.000
38.19500 217.000
38.21000 204.000
38.22500 259.000
38.24000 270.000
38.25500 270.000
38.27000 298.000
38.28500 299.000
38.30000 220.000
38.31500 230.000
38.33000 205.000
38.34500 190.000
38.36000 193.000
38.37500 218.000
38.39000 203.000
38.40500 200.000
38.42000 243.000
38.43500 245.000
38.45000 228.000
38.46500 263.000
38.48000 293.000
38.49500 262.000
38.51000 269.000
38.52500 276.000
38.54000 260.000
38.55500 271.000
38.57000 229.000
38.58500 218.000
38.60000 197.000
38.61500 215.000
38.63000 193.000
38.64500 194.000
38.66000 169.000
38.67500 164.000
38.69000 162.000
38.70500 178.000
38.72000 161.000
38.73500 159.000
38.75000 148.000
38.76500 174.000
38.78000 161.000
38.79500 146.000
38.81000 165.000
38.82500 165.000
38.84000 185.000
38.85500 173.000
38.87000 168.000
38.88500 155.000
38.90000 151.000
38.91500 154.000
38.93000 158.000
38.94500 158.000
38.96000 155.000
38.97500 161.000
38.99000 164.000
39.00500 179.000
39.02000 146.000
39.03500 155.000
39.05000 163.000
39.06500 172.000
39.08000 162.000
39.09500 155.000
39.11000 170.000
39.12500 159.000
39.14000 182.000
39.15500 207.000
39.17000 188.000
39.18500 196.000
39.20000 176.000
39.21500 174.000
39.23000 173.000
39.24500 193.000
39.26000 197.000
39.27500 178.000
39.29000 192.000
39.30500 191.000
39.32000 205.000
39.33500 221.000
39.35000 194.000
39.36500 181.000
39.38000 207.000
39.39500 207.000
39.41000 222.000
39.42500 239.000
39.44000 213.000
39.45500 207.000
39.47000 207.000
39.48500 214.000
39.50000 215.000
39.51500 180.000
39.53000 170.000
39.54500 182.000
39.56000 194.000
39.57500 177.000
39.59000 188.000
39.60500 203.000
39.62000 183.000
39.63500 211.000
39.65000 203.000
39.66500 223.000
39.68000 202.000
39.69500 217.000
39.71000 243.000
39.72500 274.000
39.74000 256.000
39.75500 290.000
39.77000 337.000
39.78500 325.000
39.80000 374.000
39.81500 458.000
39.83000 481.000
39.84500 469.000
39.86000 445.000
39.87500 410.000
39.89000 391.000
39.90500 370.000
39.92000 385.000
39.93500 393.000
39.95000 421.000
39.96500 372.000
39.98000 326.000
39.99500 269.000
40.01000 243.000
40.02500 218.000
40.04000 175.000
40.05500 198.000
40.07000 205.000
40.08500 204.000
40.10000 163.000
40.11500 175.000
40.13000 170.000
40.14500 170.000
40.16000 166.000
40.17500 143.000
40.19000 157.000
40.20500 184.000
40.22000 171.000
40.23500 173.000
40.25000 178.000
40.26500 173.000
40.28000 163.000
40.29500 182.000
40.31000 186.000
40.32500 186.000
40.34000 196.000
40.35500 180.000
40.37000 197.000
40.38500 210.000
40.40000 209.000
40.41500 208.000
40.43000 233.000
40.44500 244.000
40.46000 247.000
40.47500 244.000
40.49000 244.000
40.50500 218.000
40.52000 234.000
40.53500 214.000
40.55000 216.000
40.56500 220.000
40.58000 215.000
40.59500 198.000
40.61000 215.000
40.62500 230.000
40.64000 227.000
40.65500 219.000
40.67000 210.000
40.68500 202.000
40.70000 246.000
40.71500 259.000
40.73000 262.000
40.74500 273.000
40.76000 294.000
40.77500 353.000
40.79000 363.000
40.80500 404.000
40.82000 455.000
40.83500 514.000
40.85000 537.000
40.86500 579.000
40.88000 567.000
40.89500 582.000
40.91000 595.000
40.92500 599.000
40.94000 662.000
40.95500 727.000
40.97000 708.000
40.98500 613.000
41.00000 565.000
41.01500 432.000
41.03000 351.000
41.04500 291.000
41.06000 260.000
41.07500 252.000
41.09000 251.000
41.10500 235.000
41.12000 209.000
41.13500 220.000
41.15000 214.000
41.16500 207.000
41.18000 222.000
41.19500 253.000
41.21000 250.000
41.22500 247.000
41.24000 274.000
41.25500 297.000
41.27000 287.000
41.28500 314.000
41.30000 298.000
41.31500 300.000
41.33000 292.000
41.34500 281.000
41.36000 258.000
41.37500 213.000
41.39000 207.000
41.40500 200.000
41.42000 202.000
41.43500 209.000
41.45000 215.000
41.46500 218.000
41.48000 209.000
41.49500 216.000
41.51000 211.000
41.52500 218.000
41.54000 233.000
41.55500 221.000
41.57000 238.000
41.58500 211.000
41.60000 218.000
41.61500 210.000
41.63000 205.000
41.64500 233.000
41.66000 222.000
41.67500 229.000
41.69000 245.000
41.70500 265.000
41.72000 284.000
41.73500 332.000
41.75000 349.000
41.76500 372.000
41.78000 407.000
41.79500 414.000
41.81000 431.000
41.82500 440.000
41.84000 502.000
41.85500 542.000
41.87000 488.000
41.88500 497.000
41.90000 538.000
41.91500 517.000
41.93000 512.000
41.94500 495.000
41.96000 447.000
41.97500 459.000
41.99000 503.000
42.00500 487.000
42.02000 497.000
42.03500 462.000
42.05000 380.000
42.06500 359.000
42.08000 343.000
42.09500 303.000
42.11000 285.000
42.12500 284.000
42.14000 267.000
42.15500 296.000
42.17000 285.000
42.18500 285.000
42.20000 286.000
42.21500 292.000
42.23000 272.000
42.24500 251.000
42.26000 263.000
42.27500 297.000
42.29000 266.000
42.30500 277.000
42.32000 296.000
42.33500 312.000
42.35000 309.000
42.36500 286.000
42.38000 289.000
42.39500 267.000
42.41000 257.000
42.42500 265.000
42.44000 260.000
42.45500 234.000
42.47000 252.000
42.48500 244.000
42.50000 228.000
42.51500 234.000
42.53000 247.000
42.54500 256.000
42.56000 280.000
42.57500 328.000
42.59000 421.000
42.60500 446.000
42.62000 505.000
42.63500 593.000
42.65000 726.000
42.66500 743.000
42.68000 758.000
42.69500 756.000
42.71000 704.000
42.72500 675.000
42.74000 627.000
42.75500 669.000
42.77000 726.000
42.78500 825.000
42.80000 933.000
42.81500 974.000
42.83000 999.000
42.84500 935.000
42.86000 892.000
42.87500 780.000
42.89000 635.000
42.90500 542.000
42.92000 476.000
42.93500 437.000
42.95000 377.000
42.96500 359.000
42.98000 319.000
42.99500 346.000
43.01000 342.000
43.02500 324.000
43.04000 304.000
43.05500 312.000
43.07000 280.000
43.08500 301.000
43.10000 309.000
43.11500 311.000
43.13000 293.000
43.14500 294.000
43.16000 299.000
43.17500 305.000
43.19000 289.000
43.20500 332.000
43.22000 308.000
43.23500 272.000
43.25000 305.000
43.26500 313.000
43.28000 307.000
43.29500 320.000
43.31000 353.000
43.32500 381.000
43.34000 427.000
43.35500 500.000
43.37000 583.000
43.38500 687.000
43.40000 807.000
43.41500 1037.000
43.43000 1341.000
43.44500 1637.000
43.46000 1800.000
43.47500 1796.000
43.49000 1594.000
43.50500 1292.000
43.52000 954.000
43.53500 675.000
43.55000 534.000
43.56500 456.000
43.58000 382.000
43.59500 361.000
43.61000 301.000
43.62500 272.000
43.64000 248.000
43.65500 267.000
43.67000 257.000
43.68500 247.000
43.70000 214.000
43.71500 225.000
43.73000 221.000
43.74500 233.000
43.76000 255.000
43.77500 251.000
43.79000 232.000
43.80500 255.000
43.82000 272.000
43.83500 282.000
43.85000 274.000
43.86500 277.000
43.88000 301.000
43.89500 335.000
43.91000 318.000
43.92500 337.000
43.94000 318.000
43.95500 364.000
43.97000 379.000
43.98500 366.000
44.00000 394.000
44.01500 434.000
44.03000 430.000
44.04500 402.000
44.06000 406.000
44.07500 413.000
44.09000 395.000
44.10500 348.000
44.12000 344.000
44.13500 349.000
44.15000 332.000
44.16500 334.000
44.18000 319.000
44.19500 281.000
44.21000 306.000
44.22500 266.000
44.24000 267.000
44.25500 265.000
44.27000 221.000
44.28500 221.000
44.30000 217.000
44.31500 231.000
44.33000 222.000
44.34500 211.000
44.36000 187.000
44.37500 222.000
44.39000 226.000
44.40500 212.000
44.42000 178.000
44.43500 187.000
44.45000 194.000
44.46500 204.000
44.48000 203.000
44.49500 222.000
44.51000 218.000
44.52500 201.000
44.54000 231.000
44.55500 230.000
44.57000 272.000
44.58500 297.000
44.60000 313.000
44.61500 399.000
44.63000 443.000
44.64500 521.000
44.66000 522.000
44.67500 532.000
44.69000 481.000
44.70500 419.000
44.72000 384.000
44.73500 364.000
44.75000 327.000
44.76500 303.000
44.78000 295.000
44.79500 296.000
44.81000 329.000
44.82500 342.000
44.84000 367.000
44.85500 339.000
44.87000 313.000
44.88500 309.000
44.90000 312.000
44.91500 312.000
44.93000 290.000
44.94500 283.000
44.96000 277.000
44.97500 267.000
44.99000 246.000
45.00500 232.000
45.02000 220.000
45.03500 215.000
45.05000 183.000
45.06500 202.000
45.08000 186.000
45.09500 209.000
45.11000 210.000
45.12500 207.000
45.14000 197.000
45.15500 200.000
45.17000 203.000
45.18500 199.000
45.20000 204.000
45.21500 209.000
45.23000 230.000
45.24500 241.000
45.26000 238.000
45.27500 249.000
45.29000 292.000
45.30500 284.000
45.32000 291.000
45.33500 315.000
45.35000 319.000
45.36500 351.000
45.38000 426.000
45.39500 454.000
45.41000 463.000
45.42500 605.000
45.44000 670.000
45.45500 724.000
45.47000 872.000
45.48500 983.000
45.50000 1074.000
45.51500 1163.000
45.53000 1119.000
45.54500 1014.000
45.56000 830.000
45.57500 765.000
45.59000 664.000
45.60500 542.000
45.62000 503.000
45.63500 483.000
45.65000 465.000
45.66500 410.000
45.68000 396.000
45.69500 339.000
45.71000 304.000
45.72500 324.000
45.74000 269.000
45.75500 262.000
45.77000 268.000
45.78500 263.000
45.80000 265.000
45.81500 255.000
45.83000 253.000
45.84500 265.000
45.86000 253.000
45.87500 270.000
45.89000 294.000
45.90500 294.000
45.92000 318.000
45.93500 332.000
45.95000 300.000
45.96500 279.000
45.98000 273.000
45.99500 280.000
46.01000 243.000
46.02500 232.000
46.04000 237.000
46.05500 253.000
46.07000 257.000
46.08500 246.000
46.10000 239.000
46.11500 234.000
46.13000 277.000
46.14500 266.000
46.16000 249.000
46.17500 265.000
46.19000 253.000
46.20500 245.000
46.22000 231.000
46.23500 245.000
46.25000 275.000
46.26500 234.000
46.28000 221.000
46.29500 233.000
46.31000 247.000
46.32500 203.000
46.34000 220.000
46.35500 217.000
46.37000 220.000
46.38500 215.000
46.40000 234.000
46.41500 244.000
46.43000 267.000
46.44500 277.000
46.46000 309.000
46.47500 315.000
46.49000 314.000
46.50500 294.000
46.52000 260.000
46.53500 278.000
46.55000 272.000
46.56500 252.000
46.58000 280.000
46.59500 307.000
46.61000 322.000
46.62500 359.000
46.64000 404.000
46.65500 487.000
46.67000 479.000
46.68500 481.000
46.70000 503.000
46.71500 510.000
46.73000 552.000
46.74500 549.000
46.76000 589.000
46.77500 606.000
46.79000 594.000
46.80500 602.000
46.82000 635.000
46.83500 636.000
46.85000 697.000
46.86500 699.000
46.88000 648.000
46.89500 644.000
46.91000 573.000
46.92500 495.000
46.94000 461.000
46.95500 428.000
46.97000 409.000
46.98500 415.000
47.00000 386.000
47.01500 355.000
47.03000 311.000
47.04500 288.000
47.06000 251.000
47.07500 253.000
47.09000 234.000
47.10500 254.000
47.12000 259.000
47.13500 246.000
47.15000 239.000
47.16500 233.000
47.18000 230.000
47.19500 250.000
47.21000 231.000
47.22500 208.000
47.24000 187.000
47.25500 196.000
47.27000 196.000
47.28500 196.000
47.30000 194.000
47.31500 203.000
47.33000 197.000
47.34500 174.000
47.36000 192.000
47.37500 223.000
47.39000 247.000
47.40500 245.000
47.42000 278.000
47.43500 327.000
47.45000 342.000
47.46500 362.000
47.48000 400.000
47.49500 496.000
47.51000 543.000
47.52500 601.000
47.54000 659.000
47.55500 681.000
47.57000 681.000
47.58500 615.000
47.60000 509.000
47.61500 420.000
47.63000 358.000
47.64500 307.000
47.66000 293.000
47.67500 250.000
47.69000 266.000
47.70500 257.000
47.72000 237.000
47.73500 237.000
47.75000 242.000
47.76500 221.000
47.78000 204.000
47.79500 239.000
47.81000 247.000
47.82500 252.000
47.84000 265.000
47.85500 277.000
47.87000 295.000
47.88500 316.000
47.90000 311.000
47.91500 317.000
47.93000 373.000
47.94500 380.000
47.96000 411.000
47.97500 435.000
47.99000 486.000
48.00500 562.000
48.02000 551.000
48.03500 586.000
48.05000 541.000
48.06500 501.000
48.08000 474.000
48.09500 450.000
48.11000 405.000
48.12500 433.000
48.14000 446.000
48.15500 405.000
48.17000 403.000
48.18500 397.000
48.20000 390.000
48.21500 362.000
48.23000 422.000
48.24500 408.000
48.26000 401.000
48.27500 426.000
48.29000 408.000
48.30500 404.000
48.32000 408.000
48.33500 419.000
48.35000 384.000
48.36500 364.000
48.38000 353.000
48.39500 376.000
48.41000 368.000
48.42500 393.000
48.44000 352.000
48.45500 370.000
48.47000 354.000
48.48500 390.000
48.50000 366.000
48.51500 390.000
48.53000 404.000
48.54500 363.000
48.56000 390.000
48.57500 358.000
48.59000 354.000
48.60500 378.000
48.62000 380.000
48.63500 381.000
48.65000 406.000
48.66500 437.000
48.68000 458.000
48.69500 457.000
48.71000 494.000
48.72500 553.000
48.74000 550.000
48.75500 545.000
48.77000 526.000
48.78500 448.000
48.80000 386.000
48.81500 369.000
48.83000 325.000
48.84500 285.000
48.86000 297.000
48.87500 284.000
48.89000 245.000
48.90500 232.000
48.92000 264.000
48.93500 292.000
48.95000 275.000
48.96500 278.000
48.98000 268.000
48.99500 266.000
49.01000 253.000
49.02500 240.000
49.04000 244.000
49.05500 219.000
49.07000 230.000
49.08500 218.000
49.10000 189.000
49.11500 193.000
49.13000 193.000
49.14500 190.000
49.16000 182.000
49.17500 191.000
49.19000 203.000
49.20500 191.000
49.22000 192.000
49.23500 233.000
49.25000 273.000
49.26500 306.000
49.28000 353.000
49.29500 447.000
49.31000 504.000
49.32500 523.000
49.34000 533.000
49.35500 471.000
49.37000 366.000
49.38500 267.000
49.40000 262.000
49.41500 213.000
49.43000 196.000
49.44500 180.000
49.46000 167.000
49.47500 181.000
49.49000 148.000
49.50500 165.000
49.52000 164.000
49.53500 185.000
49.55000 159.000
49.56500 160.000
49.58000 151.000
49.59500 170.000
49.61000 182.000
49.62500 158.000
49.64000 184.000
49.65500 176.000
49.67000 180.000
49.68500 180.000
49.70000 199.000
49.71500 220.000
49.73000 191.000
49.74500 180.000
49.76000 212.000
49.77500 220.000
49.79000 221.000
49.80500 241.000
49.82000 293.000
49.83500 287.000
49.85000 305.000
49.86500 363.000
49.88000 384.000
49.89500 404.000
49.91000 471.000
49.92500 494.000
49.94000 475.000
49.95500 451.000
49.97000 424.000
49.98500 418.000
50.00000 386.000
50.01500 403.000
50.03000 381.000
50.04500 350.000
50.06000 318.000
50.07500 298.000
50.09000 300.000
50.10500 261.000
50.12000 266.000
50.13500 256.000
50.15000 225.000
50.16500 239.000
50.18000 238.000
50.19500 249.000
50.21000 216.000
50.22500 219.000
50.24000 228.000
50.25500 223.000
50.27000 222.000
50.28500 222.000
50.30000 214.000
50.31500 220.000
50.33000 202.000
50.34500 192.000
50.36000 206.000
50.37500 198.000
50.39000 205.000
50.40500 199.000
50.42000 199.000
50.43500 206.000
50.45000 226.000
50.46500 215.000
50.48000 236.000
50.49500 240.000
50.51000 218.000
50.52500 222.000
50.54000 208.000
50.55500 225.000
50.57000 236.000
50.58500 251.000
50.60000 257.000
50.61500 263.000
50.63000 279.000
50.64500 268.000
50.66000 298.000
50.67500 304.000
50.69000 292.000
50.70500 322.000
50.72000 312.000
50.73500 307.000
50.75000 295.000
50.76500 303.000
50.78000 260.000
50.79500 255.000
50.81000 241.000
50.82500 247.000
50.84000 286.000
50.85500 278.000
50.87000 311.000
50.88500 340.000
50.90000 392.000
50.91500 471.000
50.93000 516.000
50.94500 600.000
50.96000 660.000
50.97500 677.000
50.99000 553.000
51.00500 464.000
51.02000 426.000
51.03500 349.000
51.05000 295.000
51.06500 269.000
51.08000 235.000
51.09500 242.000
51.11000 229.000
51.12500 233.000
51.14000 207.000
51.15500 185.000
51.17000 188.000
51.18500 189.000
51.20000 177.000
51.21500 170.000
51.23000 166.000
51.24500 161.000
51.26000 172.000
51.27500 185.000
51.29000 178.000
51.30500 205.000
51.32000 185.000
51.33500 156.000
51.35000 167.000
51.36500 167.000
51.38000 168.000
51.39500 158.000
51.41000 171.000
51.42500 157.000
51.44000 161.000
51.45500 170.000
51.47000 163.000
51.48500 168.000
51.50000 162.000
51.51500 179.000
51.53000 195.000
51.54500 205.000
51.56000 190.000
51.57500 175.000
51.59000 200.000
51.60500 204.000
51.62000 178.000
51.63500 165.000
51.65000 184.000
51.66500 173.000
51.68000 196.000
51.69500 201.000
51.71000 199.000
51.72500 209.000
51.74000 215.000
51.75500 240.000
51.77000 245.000
51.78500 227.000
51.80000 217.000
51.81500 229.000
51.83000 221.000
51.84500 214.000
51.86000 193.000
51.87500 227.000
51.89000 226.000
51.90500 235.000
51.92000 241.000
51.93500 245.000
51.95000 245.000
51.96500 225.000
51.98000 221.000
51.99500 227.000
52.01000 212.000
52.02500 219.000
52.04000 214.000
52.05500 212.000
52.07000 201.000
52.08500 184.000
52.10000 165.000
52.11500 152.000
52.13000 153.000
52.14500 165.000
52.16000 168.000
52.17500 165.000
52.19000 164.000
52.20500 157.000
52.22000 156.000
52.23500 141.000
52.25000 163.000
52.26500 158.000
52.28000 162.000
52.29500 152.000
52.31000 155.000
52.32500 163.000
52.34000 165.000
52.35500 154.000
52.37000 147.000
52.38500 174.000
52.40000 158.000
52.41500 155.000
52.43000 156.000
52.44500 159.000
52.46000 174.000
52.47500 167.000
52.49000 147.000
52.50500 159.000
52.52000 173.000
52.53500 164.000
52.55000 182.000
52.56500 179.000
52.58000 211.000
52.59500 213.000
52.61000 199.000
52.62500 212.000
52.64000 227.000
52.65500 248.000
52.67000 272.000
52.68500 267.000
52.70000 306.000
52.71500 303.000
52.73000 309.000
52.74500 344.000
52.76000 353.000
52.77500 414.000
52.79000 452.000
52.80500 426.000
52.82000 436.000
52.83500 391.000
52.85000 380.000
52.86500 338.000
52.88000 330.000
52.89500 307.000
52.91000 312.000
52.92500 294.000
52.94000 310.000
52.95500 298.000
52.97000 265.000
52.98500 228.000
53.00000 244.000
53.01500 272.000
53.03000 245.000
53.04500 269.000
53.06000 254.000
53.07500 262.000
53.09000 234.000
53.10500 239.000
53.12000 241.000
53.13500 260.000
53.15000 251.000
53.16500 251.000
53.18000 246.000
53.19500 251.000
53.21000 214.000
53.22500 234.000
53.24000 231.000
53.25500 196.000
53.27000 194.000
53.28500 192.000
53.30000 169.000
53.31500 174.000
53.33000 170.000
53.34500 184.000
53.36000 165.000
53.37500 157.000
53.39000 175.000
53.40500 169.000
53.42000 180.000
53.43500 193.000
53.45000 191.000
53.46500 191.000
53.48000 191.000
53.49500 182.000
53.51000 170.000
53.52500 168.000
53.54000 181.000
53.55500 143.000
53.57000 162.000
53.58500 164.000
53.60000 182.000
53.61500 184.000
53.63000 182.000
53.64500 169.000
53.66000 148.000
53.67500 165.000
53.69000 179.000
53.70500 174.000
53.72000 148.000
53.73500 142.000
53.75000 145.000
53.76500 146.000
53.78000 139.000
53.79500 146.000
53.81000 154.000
53.82500 167.000
53.84000 164.000
53.85500 160.000
53.87000 155.000
53.88500 174.000
53.90000 179.000
53.91500 167.000
53.93000 179.000
53.94500 154.000
53.96000 175.000
53.97500 186.000
53.99000 165.000
54.00500 150.000
54.02000 158.000
54.03500 157.000
54.05000 145.000
54.06500 157.000
54.08000 146.000
54.09500 160.000
54.11000 153.000
54.12500 143.000
54.14000 148.000
54.15500 168.000
54.17000 163.000
54.18500 167.000
54.20000 149.000
54.21500 162.000
54.23000 164.000
54.24500 158.000
54.26000 162.000
54.27500 168.000
54.29000 201.000
54.30500 181.000
54.32000 181.000
54.33500 178.000
54.35000 186.000
54.36500 203.000
54.38000 217.000
54.39500 228.000
54.41000 226.000
54.42500 247.000
54.44000 253.000
54.45500 246.000
54.47000 247.000
54.48500 257.000
54.50000 280.000
54.51500 291.000
54.53000 309.000
54.54500 324.000
54.56000 358.000
54.57500 362.000
54.59000 466.000
54.60500 447.000
54.62000 482.000
54.63500 487.000
54.65000 435.000
54.66500 452.000
54.68000 450.000
54.69500 385.000
54.71000 383.000
54.72500 348.000
54.74000 330.000
54.75500 338.000
54.77000 338.000
54.78500 324.000
54.80000 329.000
54.81500 346.000
54.83000 346.000
54.84500 343.000
54.86000 360.000
54.87500 362.000
54.89000 362.000
54.90500 366.000
54.92000 380.000
54.93500 361.000
54.95000 372.000
54.96500 396.000
54.98000 391.000
54.99500 400.000
55.01000 388.000
55.02500 342.000
55.04000 311.000
55.05500 330.000
55.07000 298.000
55.08500 326.000
55.10000 310.000
55.11500 292.000
55.13000 317.000
55.14500 334.000
55.16000 371.000
55.17500 417.000
55.19000 480.000
55.20500 544.000
55.22000 601.000
55.23500 704.000
55.25000 749.000
55.26500 787.000
55.28000 768.000
55.29500 681.000
55.31000 579.000
55.32500 547.000
55.34000 503.000
55.35500 562.000
55.37000 607.000
55.38500 708.000
55.40000 822.000
55.41500 912.000
55.43000 912.000
55.44500 813.000
55.46000 708.000
55.47500 589.000
55.49000 464.000
55.50500 391.000
55.52000 332.000
55.53500 325.000
55.55000 311.000
55.56500 324.000
55.58000 326.000
55.59500 325.000
55.61000 301.000
55.62500 289.000
55.64000 276.000
55.65500 247.000
55.67000 246.000
55.68500 247.000
55.70000 220.000
55.71500 205.000
55.73000 193.000
55.74500 203.000
55.76000 201.000
55.77500 190.000
55.79000 207.000
55.80500 195.000
55.82000 198.000
55.83500 201.000
55.85000 200.000
55.86500 186.000
55.88000 199.000
55.89500 197.000
55.91000 205.000
55.92500 208.000
55.94000 216.000
55.95500 232.000
55.97000 210.000
55.98500 218.000
56.00000 238.000
56.01500 235.000
56.03000 235.000
56.04500 222.000
56.06000 274.000
56.07500 285.000
56.09000 284.000
56.10500 294.000
56.12000 310.000
56.13500 303.000
56.15000 289.000
56.16500 302.000
56.18000 279.000
56.19500 276.000
56.21000 294.000
56.22500 243.000
56.24000 263.000
56.25500 255.000
56.27000 252.000
56.28500 256.000
56.30000 240.000
56.31500 249.000
56.33000 249.000
56.34500 260.000
56.36000 250.000
56.37500 247.000
56.39000 252.000
56.40500 275.000
56.42000 264.000
56.43500 280.000
56.45000 287.000
56.46500 267.000
56.48000 268.000
56.49500 290.000
56.51000 295.000
56.52500 284.000
56.54000 262.000
56.55500 300.000
56.57000 304.000
56.58500 273.000
56.60000 290.000
56.61500 329.000
56.63000 318.000
56.64500 336.000
56.66000 344.000
56.67500 348.000
56.69000 339.000
56.70500 313.000
56.72000 314.000
56.73500 291.000
56.75000 320.000
56.76500 309.000
56.78000 319.000
56.79500 324.000
56.81000 315.000
56.82500 303.000
56.84000 296.000
56.85500 295.000
56.87000 295.000
56.88500 320.000
56.90000 316.000
56.91500 294.000
56.93000 244.000
56.94500 283.000
56.96000 317.000
56.97500 274.000
56.99000 270.000
57.00500 267.000
57.02000 243.000
57.03500 232.000
57.05000 226.000
57.06500 210.000
57.08000 228.000
57.09500 245.000
57.11000 221.000
57.12500 218.000
57.14000 207.000
57.15500 217.000
57.17000 235.000
57.18500 238.000
57.20000 229.000
57.21500 225.000
57.23000 247.000
57.24500 213.000
57.26000 253.000
57.27500 250.000
57.29000 229.000
57.30500 248.000
57.32000 256.000
57.33500 269.000
57.35000 270.000
57.36500 279.000
57.38000 248.000
57.39500 251.000
57.41000 223.000
57.42500 216.000
57.44000 204.000
57.45500 186.000
57.47000 214.000
57.48500 195.000
57.50000 193.000
57.51500 205.000
57.53000 205.000
57.54500 206.000
57.56000 226.000
57.57500 237.000
57.59000 218.000
57.60500 231.000
57.62000 219.000
57.63500 229.000
57.65000 208.000
57.66500 228.000
57.68000 204.000
57.69500 194.000
57.71000 195.000
57.72500 206.000
57.74000 214.000
57.75500 196.000
57.77000 201.000
57.78500 205.000
57.80000 209.000
57.81500 208.000
57.83000 197.000
57.84500 187.000
57.86000 196.000
57.87500 200.000
57.89000 199.000
57.90500 208.000
57.92000 167.000
57.93500 193.000
57.95000 205.000
57.96500 205.000
57.98000 226.000
57.99500 220.000
58.01000 241.000
58.02500 246.000
58.04000 238.000
58.05500 271.000
58.07000 299.000
58.08500 298.000
58.10000 325.000
58.11500 336.000
58.13000 350.000
58.14500 379.000
58.16000 358.000
58.17500 352.000
58.19000 304.000
58.20500 284.000
58.22000 289.000
58.23500 283.000
58.25000 264.000
58.26500 258.000
58.28000 253.000
58.29500 257.000
58.31000 250.000
58.32500 233.000
58.34000 262.000
58.35500 247.000
58.37000 239.000
58.38500 234.000
58.40000 250.000
58.41500 229.000
58.43000 227.000
58.44500 221.000
58.46000 239.000
58.47500 233.000
58.49000 203.000
58.50500 209.000
58.52000 215.000
58.53500 223.000
58.55000 217.000
58.56500 218.000
58.58000 217.000
58.59500 201.000
58.61000 206.000
58.62500 191.000
58.64000 194.000
58.65500 225.000
58.67000 196.000
58.68500 212.000
58.70000 215.000
58.71500 204.000
58.73000 202.000
58.74500 198.000
58.76000 192.000
58.77500 189.000
58.79000 195.000
58.80500 202.000
58.82000 208.000
58.83500 210.000
58.85000 203.000
58.86500 217.000
58.88000 207.000
58.89500 211.000
58.91000 218.000
58.92500 212.000
58.94000 177.000
58.95500 188.000
58.97000 185.000
58.98500 199.000
59.00000 187.000
59.01500 185.000
59.03000 172.000
59.04500 169.000
59.06000 175.000
59.07500 168.000
59.09000 169.000
59.10500 149.000
59.12000 162.000
59.13500 180.000
59.15000 163.000
59.16500 165.000
59.18000 159.000
59.19500 161.000
59.21000 161.000
59.22500 164.000
59.24000 186.000
59.25500 184.000
59.27000 174.000
59.28500 184.000
59.30000 172.000
59.31500 176.000
59.33000 186.000
59.34500 168.000
59.36000 194.000
59.37500 207.000
59.39000 214.000
59.40500 221.000
59.42000 235.000
59.43500 230.000
59.45000 223.000
59.46500 260.000
59.48000 256.000
59.49500 293.000
59.51000 285.000
59.52500 286.000
59.54000 257.000
59.55500 282.000
59.57000 268.000
59.58500 239.000
59.60000 253.000
59.61500 256.000
59.63000 238.000
59.64500 248.000
59.66000 219.000
59.67500 224.000
59.69000 246.000
59.70500 241.000
59.72000 231.000
59.73500 242.000
59.75000 242.000
59.76500 200.000
59.78000 213.000
59.79500 217.000
59.81000 208.000
59.82500 178.000
59.84000 216.000
59.85500 229.000
59.87000 203.000
59.88500 210.000
59.90000 240.000
59.91500 267.000
59.93000 279.000
59.94500 283.000
59.96000 287.000
59.97500 293.000
59.99000 295.000
60.00500 293.000
60.02000 296.000
60.03500 278.000
60.05000 275.000
60.06500 317.000
60.08000 332.000
60.09500 333.000
60.11000 373.000
60.12500 409.000
60.14000 383.000
60.15500 461.000
60.17000 458.000
60.18500 449.000
60.20000 435.000
60.21500 392.000
60.23000 397.000
60.24500 347.000
60.26000 311.000
60.27500 281.000
60.29000 263.000
60.30500 239.000
60.32000 261.000
60.33500 248.000
60.35000 233.000
60.36500 235.000
60.38000 231.000
60.39500 239.000
60.41000 232.000
60.42500 199.000
60.44000 193.000
60.45500 202.000
60.47000 180.000
60.48500 196.000
60.50000 195.000
60.51500 195.000
60.53000 182.000
60.54500 175.000
60.56000 173.000
60.57500 184.000
60.59000 185.000
60.60500 187.000
60.62000 161.000
60.63500 161.000
60.65000 156.000
60.66500 160.000
60.68000 187.000
60.69500 156.000
60.71000 159.000
60.72500 159.000
60.74000 160.000
60.75500 148.000
60.77000 147.000
60.78500 134.000
60.80000 153.000
60.81500 166.000
60.83000 154.000
60.84500 179.000
60.86000 175.000
60.87500 164.000
60.89000 182.000
60.90500 171.000
60.92000 175.000
60.93500 204.000
60.95000 214.000
60.96500 242.000
60.98000 226.000
60.99500 261.000
61.01000 277.000
61.02500 277.000
61.04000 270.000
61.05500 252.000
61.07000 261.000
61.08500 242.000
61.10000 212.000
61.11500 213.000
61.13000 211.000
61.14500 202.000
61.16000 222.000
61.17500 201.000
61.19000 193.000
61.20500 213.000
61.22000 238.000
61.23500 233.000
61.25000 253.000
61.26500 247.000
61.28000 225.000
61.29500 231.000
61.31000 230.000
61.32500 247.000
61.34000 260.000
61.35500 250.000
61.37000 264.000
61.38500 280.000
61.40000 276.000
61.41500 292.000
61.43000 273.000
61.44500 272.000
61.46000 279.000
61.47500 264.000
61.49000 250.000
61.50500 241.000
61.52000 206.000
61.53500 200.000
61.55000 176.000
61.56500 186.000
61.58000 174.000
61.59500 174.000
61.61000 174.000
61.62500 166.000
61.64000 184.000
61.65500 165.000
61.67000 153.000
61.68500 163.000
61.70000 143.000
61.71500 146.000
61.73000 146.000
61.74500 153.000
61.76000 167.000
61.77500 159.000
61.79000 158.000
61.80500 159.000
61.82000 162.000
61.83500 187.000
61.85000 161.000
61.86500 168.000
61.88000 176.000
61.89500 176.000
61.91000 188.000
61.92500 211.000
61.94000 218.000
61.95500 248.000
61.97000 260.000
61.98500 261.000
