2.00000 76.000
2.01500 84.000
2.03000 92.000
2.04500 76.000
2.06000 73.000
2.07500 78.000
2.09000 85.000
2.10500 82.000
2.12000 72.000
2.13500 78.000
2.15000 75.000
2.16500 74.000
2.18000 91.000
2.19500 83.000
2.21000 78.000
2.22500 107.000
2.24000 101.000
2.25500 95.000
2.27000 83.000
2.28500 99.000
2.30000 80.000
2.31500 72.000
2.33000 87.000
2.34500 91.000
2.36000 79.000
2.37500 91.000
2.39000 77.000
2.40500 95.000
2.42000 102.000
2.43500 98.000
2.45000 76.000
2.46500 81.000
2.48000 89.000
2.49500 97.000
2.51000 84.000
2.52500 73.000
2.54000 88.000
2.55500 95.000
2.57000 112.000
2.58500 95.000
2.60000 87.000
2.61500 95.000
2.63000 106.000
2.64500 88.000
2.66000 71.000
2.67500 70.000
2.69000 59.000
2.70500 53.000
2.72000 65.000
2.73500 79.000
2.75000 70.000
2.76500 61.000
2.78000 71.000
2.79500 70.000
2.81000 59.000
2.82500 70.000
2.84000 59.000
2.85500 62.000
2.87000 63.000
2.88500 52.000
2.90000 54.000
2.91500 59.000
2.93000 58.000
2.94500 68.000
2.96000 72.000
2.97500 62.000
2.99000 48.000
3.00500 48.000
3.02000 35.000
3.03500 44.000
3.05000 50.000
3.06500 61.000
3.08000 61.000
3.09500 51.000
3.11000 50.000
3.12500 61.000
3.14000 63.000
3.15500 65.000
3.17000 46.000
3.18500 43.000
3.20000 35.000
3.21500 46.000
3.23000 46.000
3.24500 44.000
3.26000 58.000
3.27500 52.000
3.29000 41.000
3.30500 55.000
3.32000 48.000
3.33500 52.000
3.35000 45.000
3.36500 48.000
3.38000 53.000
3.39500 47.000
3.41000 48.000
3.42500 46.000
3.44000 34.000
3.45500 42.000
3.47000 42.000
3.48500 46.000
3.50000 50.000
3.51500 51.000
3.53000 47.000
3.54500 46.000
3.56000 52.000
3.57500 45.000
3.59000 46.000
3.60500 47.000
3.62000 54.000
3.63500 73.000
3.65000 60.000
3.66500 77.000
3.68000 89.000
3.69500 90.000
3.71000 107.000
3.72500 149.000
3.74000 148.000
3.75500 176.000
3.77000 179.000
3.78500 217.000
3.80000 248.000
3.81500 266.000
3.83000 236.000
3.84500 221.000
3.86000 256.000
3.87500 239.000
3.89000 255.000
3.90500 244.000
3.92000 249.000
3.93500 256.000
3.95000 249.000
3.96500 239.000
3.98000 233.000
3.99500 266.000
4.01000 256.000
4.02500 241.000
4.04000 253.000
4.05500 247.000
4.07000 256.000
4.08500 252.000
4.10000 266.000
4.11500 240.000
4.13000 254.000
4.14500 251.000
4.16000 255.000
4.17500 255.000
4.19000 264.000
4.20500 251.000
4.22000 264.000
4.23500 252.000
4.25000 243.000
4.26500 252.000
4.28000 265.000
4.29500 248.000
4.31000 237.000
4.32500 262.000
4.34000 281.000
4.35500 268.000
4.37000 248.000
4.38500 254.000
4.40000 270.000
4.41500 268.000
4.43000 252.000
4.44500 261.000
4.46000 253.000
4.47500 275.000
4.49000 268.000
4.50500 257.000
4.52000 245.000
4.53500 266.000
4.55000 260.000
4.56500 253.000
4.58000 262.000
4.59500 280.000
4.61000 288.000
4.62500 280.000
4.64000 256.000
4.65500 269.000
4.67000 257.000
4.68500 255.000
4.70000 258.000
4.71500 267.000
4.73000 273.000
4.74500 244.000
4.76000 255.000
4.77500 270.000
4.79000 255.000
4.80500 258.000
4.82000 269.000
4.83500 246.000
4.85000 249.000
4.86500 289.000
4.88000 257.000
4.89500 254.000
4.91000 259.000
4.92500 257.000
4.94000 247.000
4.95500 262.000
4.97000 246.000
4.98500 278.000
5.00000 290.000
5.01500 275.000
5.03000 262.000
5.04500 266.000
5.06000 261.000
5.07500 270.000
5.09000 276.000
5.10500 269.000
5.12000 279.000
5.13500 299.000
5.15000 274.000
5.16500 278.000
5.18000 267.000
5.19500 265.000
5.21000 266.000
5.22500 266.000
5.24000 276.000
5.25500 273.000
5.27000 260.000
5.28500 287.000
5.30000 285.000
5.31500 291.000
5.33000 288.000
5.34500 260.000
5.36000 273.000
5.37500 271.000
5.39000 277.000
5.40500 307.000
5.42000 280.000
5.43500 295.000
5.45000 309.000
5.46500 327.000
5.48000 309.000
5.49500 295.000
5.51000 284.000
5.52500 302.000
5.54000 277.000
5.55500 287.000
5.57000 289.000
5.58500 310.000
5.60000 271.000
5.61500 285.000
5.63000 271.000
5.64500 288.000
5.66000 281.000
5.67500 277.000
5.69000 294.000
5.70500 279.000
5.72000 295.000
5.73500 303.000
5.75000 296.000
5.76500 294.000
5.78000 301.000
5.79500 309.000
5.81000 298.000
5.82500 300.000
5.84000 302.000
5.85500 291.000
5.87000 292.000
5.88500 288.000
5.90000 296.000
5.91500 309.000
5.93000 312.000
5.94500 310.000
5.96000 298.000
5.97500 306.000
5.99000 302.000
6.00500 284.000
6.02000 286.000
6.03500 326.000
6.05000 336.000
6.06500 345.000
6.08000 323.000
6.09500 311.000
6.11000 317.000
6.12500 320.000
6.14000 329.000
6.15500 339.000
6.17000 339.000
6.18500 334.000
6.20000 368.000
6.21500 353.000
6.23000 379.000
6.24500 379.000
6.26000 382.000
6.27500 364.000
6.29000 372.000
6.30500 397.000
6.32000 424.000
6.33500 397.000
6.35000 397.000
6.36500 373.000
6.38000 358.000
6.39500 371.000
6.41000 337.000
6.42500 349.000
6.44000 345.000
6.45500 344.000
6.47000 315.000
6.48500 315.000
6.50000 323.000
6.51500 297.000
6.53000 292.000
6.54500 309.000
6.56000 292.000
6.57500 285.000
6.59000 272.000
6.60500 300.000
6.62000 292.000
6.63500 314.000
6.65000 323.000
6.66500 279.000
6.68000 316.000
6.69500 321.000
6.71000 315.000
6.72500 293.000
6.74000 315.000
6.75500 306.000
6.77000 300.000
6.78500 290.000
6.80000 305.000
6.81500 298.000
6.83000 269.000
6.84500 292.000
6.86000 305.000
6.87500 298.000
6.89000 299.000
6.90500 299.000
6.92000 315.000
6.93500 331.000
6.95000 279.000
6.96500 303.000
6.98000 299.000
6.99500 328.000
7.01000 323.000
7.02500 298.000
7.04000 284.000
7.05500 295.000
7.07000 296.000
7.08500 303.000
7.10000 306.000
7.11500 313.000
7.13000 313.000
7.14500 299.000
7.16000 291.000
7.17500 315.000
7.19000 306.000
7.20500 308.000
7.22000 324.000
7.23500 295.000
7.25000 278.000
7.26500 296.000
7.28000 290.000
7.29500 312.000
7.31000 307.000
7.32500 306.000
7.34000 321.000
7.35500 313.000
7.37000 304.000
7.38500 296.000
7.40000 316.000
7.41500 315.000
7.43000 320.000
7.44500 320.000
7.46000 280.000
7.47500 286.000
7.49000 309.000
7.50500 335.000
7.52000 331.000
7.53500 318.000
7.55000 319.000
7.56500 278.000
7.58000 291.000
7.59500 333.000
7.61000 308.000
7.62500 314.000
7.64000 293.000
7.65500 285.000
7.67000 315.000
7.68500 318.000
7.70000 314.000
7.71500 324.000
7.73000 322.000
7.74500 299.000
7.76000 313.000
7.77500 288.000
7.79000 324.000
7.80500 329.000
7.82000 305.000
7.83500 316.000
7.85000 330.000
7.86500 272.000
7.88000 277.000
7.89500 288.000
7.91000 327.000
7.92500 310.000
7.94000 325.000
7.95500 324.000
7.97000 307.000
7.98500 303.000
8.00000 281.000
8.01500 343.000
8.03000 319.000
8.04500 309.000
8.06000 327.000
8.07500 318.000
8.09000 330.000
8.10500 309.000
8.12000 309.000
8.13500 320.000
8.15000 319.000
8.16500 307.000
8.18000 293.000
8.19500 305.000
8.21000 295.000
8.22500 327.000
8.24000 333.000
8.25500 304.000
8.27000 309.000
8.28500 326.000
8.30000 341.000
8.31500 323.000
8.33000 306.000
8.34500 330.000
8.36000 337.000
8.37500 307.000
8.39000 322.000
8.40500 337.000
8.42000 337.000
8.43500 313.000
8.45000 324.000
8.46500 321.000
8.48000 336.000
8.49500 345.000
8.51000 342.000
8.52500 334.000
8.54000 311.000
8.55500 333.000
8.57000 343.000
8.58500 342.000
8.60000 332.000
8.61500 294.000
8.63000 305.000
8.64500 335.000
8.66000 362.000
8.67500 348.000
8.69000 348.000
8.70500 342.000
8.72000 327.000
8.73500 315.000
8.75000 324.000
8.76500 331.000
8.78000 326.000
8.79500 334.000
8.81000 312.000
8.82500 346.000
8.84000 325.000
8.85500 324.000
8.87000 320.000
8.88500 319.000
8.90000 317.000
8.91500 308.000
8.93000 304.000
8.94500 313.000
8.96000 329.000
8.97500 294.000
8.99000 304.000
9.00500 307.000
9.02000 332.000
9.03500 344.000
9.05000 340.000
9.06500 335.000
9.08000 346.000
9.09500 338.000
9.11000 351.000
9.12500 324.000
9.14000 331.000
9.15500 330.000
9.17000 325.000
9.18500 314.000
9.20000 343.000
9.21500 331.000
9.23000 291.000
9.24500 326.000
9.26000 317.000
9.27500 310.000
9.29000 298.000
9.30500 292.000
9.32000 316.000
9.33500 321.000
9.35000 316.000
9.36500 318.000
9.38000 316.000
9.39500 344.000
9.41000 344.000
9.42500 349.000
9.44000 333.000
9.45500 312.000
9.47000 334.000
9.48500 326.000
9.50000 339.000
9.51500 321.000
9.53000 326.000
9.54500 296.000
9.56000 306.000
9.57500 333.000
9.59000 347.000
9.60500 352.000
9.62000 346.000
9.63500 363.000
9.65000 344.000
9.66500 341.000
9.68000 352.000
9.69500 347.000
9.71000 349.000
9.72500 353.000
9.74000 376.000
9.75500 393.000
9.77000 357.000
9.78500 342.000
9.80000 362.000
9.81500 362.000
9.83000 378.000
9.84500 354.000
9.86000 381.000
9.87500 379.000
9.89000 370.000
9.90500 366.000
9.92000 398.000
9.93500 404.000
9.95000 370.000
9.96500 379.000
9.98000 355.000
9.99500 398.000
10.01000 398.000
10.02500 386.000
10.04000 360.000
10.05500 392.000
10.07000 388.000
10.08500 381.000
10.10000 390.000
10.11500 402.000
10.13000 382.000
10.14500 378.000
10.16000 373.000
10.17500 368.000
10.19000 412.000
10.20500 413.000
10.22000 378.000
10.23500 396.000
10.25000 398.000
10.26500 404.000
10.28000 371.000
10.29500 385.000
10.31000 419.000
10.32500 424.000
10.34000 403.000
10.35500 400.000
10.37000 379.000
10.38500 359.000
10.40000 369.000
10.41500 371.000
10.43000 401.000
10.44500 360.000
10.46000 382.000
10.47500 391.000
10.49000 360.000
10.50500 401.000
10.52000 387.000
10.53500 413.000
10.55000 382.000
10.56500 398.000
10.58000 382.000
10.59500 409.000
10.61000 388.000
10.62500 369.000
10.64000 389.000
10.65500 411.000
10.67000 385.000
10.68500 395.000
10.70000 361.000
10.71500 376.000
10.73000 390.000
10.74500 392.000
10.76000 377.000
10.77500 358.000
10.79000 380.000
10.80500 373.000
10.82000 371.000
10.83500 373.000
10.85000 359.000
10.86500 363.000
10.88000 382.000
10.89500 417.000
10.91000 416.000
10.92500 415.000
10.94000 414.000
10.95500 415.000
10.97000 394.000
10.98500 425.000
11.00000 424.000
11.01500 430.000
11.03000 411.000
11.04500 408.000
11.06000 428.000
11.07500 443.000
11.09000 405.000
11.10500 336.000
11.12000 376.000
11.13500 388.000
11.15000 389.000
11.16500 383.000
11.18000 372.000
11.19500 352.000
11.21000 363.000
11.22500 374.000
11.24000 380.000
11.25500 388.000
11.27000 370.000
11.28500 373.000
11.30000 352.000
11.31500 338.000
11.33000 352.000
11.34500 348.000
11.36000 382.000
11.37500 358.000
11.39000 369.000
11.40500 414.000
11.42000 394.000
11.43500 380.000
11.45000 366.000
11.46500 379.000
11.48000 379.000
11.49500 402.000
11.51000 405.000
11.52500 387.000
11.54000 396.000
11.55500 397.000
11.57000 416.000
11.58500 370.000
11.60000 418.000
11.61500 416.000
11.63000 414.000
11.64500 428.000
11.66000 398.000
11.67500 402.000
11.69000 437.000
11.70500 441.000
11.72000 438.000
11.73500 460.000
11.75000 453.000
11.76500 497.000
11.78000 540.000
11.79500 555.000
11.81000 544.000
11.82500 563.000
11.84000 607.000
11.85500 600.000
11.87000 619.000
11.88500 732.000
11.90000 743.000
11.91500 816.000
11.93000 892.000
11.94500 935.000
11.96000 975.000
11.97500 1073.000
11.99000 1144.000
12.00500 1214.000
12.02000 1317.000
12.03500 1383.000
12.05000 1415.000
12.06500 1493.000
12.08000 1507.000
12.09500 1541.000
12.11000 1383.000
12.12500 1210.000
12.14000 1114.000
12.15500 978.000
12.17000 896.000
12.18500 823.000
12.20000 767.000
12.21500 711.000
12.23000 645.000
12.24500 642.000
12.26000 597.000
12.27500 556.000
12.29000 519.000
12.30500 483.000
12.32000 462.000
12.33500 473.000
12.35000 464.000
12.36500 450.000
12.38000 441.000
12.39500 398.000
12.41000 458.000
12.42500 449.000
12.44000 410.000
12.45500 390.000
12.47000 408.000
12.48500 386.000
12.50000 438.000
12.51500 381.000
12.53000 369.000
12.54500 384.000
12.56000 383.000
12.57500 357.000
12.59000 388.000
12.60500 400.000
12.62000 409.000
12.63500 399.000
12.65000 342.000
12.66500 372.000
12.68000 362.000
12.69500 360.000
12.71000 360.000
12.72500 374.000
12.74000 383.000
12.75500 369.000
12.77000 348.000
12.78500 353.000
12.80000 333.000
12.81500 339.000
12.83000 375.000
12.84500 351.000
12.86000 358.000
12.87500 343.000
12.89000 353.000
12.90500 368.000
12.92000 341.000
12.93500 343.000
12.95000 337.000
12.96500 327.000
12.98000 359.000
12.99500 367.000
13.01000 355.000
13.02500 334.000
13.04000 301.000
13.05500 322.000
13.07000 346.000
13.08500 342.000
13.10000 336.000
13.11500 369.000
13.13000 344.000
13.14500 335.000
13.16000 336.000
13.17500 335.000
13.19000 342.000
13.20500 342.000
13.22000 354.000
13.23500 332.000
13.25000 333.000
13.26500 344.000
13.28000 354.000
13.29500 318.000
13.31000 321.000
13.32500 318.000
13.34000 325.000
13.35500 330.000
13.37000 322.000
13.38500 370.000
13.40000 349.000
13.41500 304.000
13.43000 335.000
13.44500 331.000
13.46000 349.000
13.47500 336.000
13.49000 341.000
13.50500 338.000
13.52000 321.000
13.53500 334.000
13.55000 329.000
13.56500 348.000
13.58000 346.000
13.59500 333.000
13.61000 322.000
13.62500 327.000
13.64000 336.000
13.65500 346.000
13.67000 336.000
13.68500 327.000
13.70000 320.000
13.71500 331.000
13.73000 329.000
13.74500 337.000
13.76000 315.000
13.77500 353.000
13.79000 361.000
13.80500 341.000
13.82000 332.000
13.83500 340.000
13.85000 332.000
13.86500 305.000
13.88000 315.000
13.89500 324.000
13.91000 329.000
13.92500 311.000
13.94000 343.000
13.95500 333.000
13.97000 320.000
13.98500 326.000
14.00000 307.000
14.01500 338.000
14.03000 332.000
14.04500 327.000
14.06000 348.000
14.07500 340.000
14.09000 341.000
14.10500 332.000
14.12000 332.000
14.13500 343.000
14.15000 325.000
14.16500 342.000
14.18000 317.000
14.19500 329.000
14.21000 315.000
14.22500 307.000
14.24000 294.000
14.25500 317.000
14.27000 328.000
14.28500 321.000
14.30000 318.000
14.31500 319.000
14.33000 316.000
14.34500 325.000
14.36000 308.000
14.37500 333.000
14.39000 345.000
14.40500 315.000
14.42000 287.000
14.43500 297.000
14.45000 299.000
14.46500 333.000
14.48000 290.000
14.49500 335.000
14.51000 311.000
14.52500 339.000
14.54000 335.000
14.55500 343.000
14.57000 354.000
14.58500 323.000
14.60000 316.000
14.61500 348.000
14.63000 347.000
14.64500 363.000
14.66000 330.000
14.67500 348.000
14.69000 336.000
14.70500 316.000
14.72000 296.000
14.73500 325.000
14.75000 329.000
14.76500 306.000
14.78000 310.000
14.79500 332.000
14.81000 316.000
14.82500 316.000
14.84000 357.000
14.85500 341.000
14.87000 331.000
14.88500 329.000
14.90000 351.000
14.91500 313.000
14.93000 301.000
14.94500 331.000
14.96000 314.000
14.97500 302.000
14.99000 314.000
15.00500 339.000
15.02000 333.000
15.03500 342.000
15.05000 305.000
15.06500 329.000
15.08000 327.000
15.09500 328.000
15.11000 329.000
15.12500 338.000
15.14000 348.000
15.15500 347.000
15.17000 330.000
15.18500 337.000
15.20000 344.000
15.21500 325.000
15.23000 328.000
15.24500 339.000
15.26000 340.000
15.27500 316.000
15.29000 322.000
15.30500 331.000
15.32000 347.000
15.33500 326.000
15.35000 320.000
15.36500 295.000
15.38000 347.000
15.39500 312.000
15.41000 331.000
15.42500 304.000
15.44000 323.000
15.45500 336.000
15.47000 332.000
15.48500 313.000
15.50000 342.000
15.51500 388.000
15.53000 325.000
15.54500 342.000
15.56000 357.000
15.57500 330.000
15.59000 305.000
15.60500 307.000
15.62000 330.000
15.63500 343.000
15.65000 351.000
15.66500 344.000
15.68000 315.000
15.69500 312.000
15.71000 330.000
15.72500 340.000
15.74000 328.000
15.75500 330.000
15.77000 328.000
15.78500 323.000
15.80000 339.000
15.81500 351.000
15.83000 317.000
15.84500 325.000
15.86000 316.000
15.87500 337.000
15.89000 342.000
15.90500 329.000
15.92000 330.000
15.93500 352.000
15.95000 298.000
15.96500 314.000
15.98000 304.000
15.99500 340.000
16.01000 363.000
16.02500 322.000
16.04000 326.000
16.05500 340.000
16.07000 321.000
16.08500 332.000
16.10000 317.000
16.11500 348.000
16.13000 349.000
16.14500 326.000
16.16000 324.000
16.17500 358.000
16.19000 323.000
16.20500 325.000
16.22000 330.000
16.23500 330.000
16.25000 334.000
16.26500 326.000
16.28000 324.000
16.29500 317.000
16.31000 306.000
16.32500 334.000
16.34000 323.000
16.35500 331.000
16.37000 326.000
16.38500 314.000
16.40000 303.000
16.41500 327.000
16.43000 328.000
16.44500 306.000
16.46000 331.000
16.47500 338.000
16.49000 353.000
16.50500 352.000
16.52000 331.000
16.53500 334.000
16.55000 326.000
16.56500 317.000
16.58000 341.000
16.59500 347.000
16.61000 345.000
16.62500 308.000
16.64000 334.000
16.65500 314.000
16.67000 312.000
16.68500 342.000
16.70000 353.000
16.71500 351.000
16.73000 355.000
16.74500 337.000
16.76000 347.000
16.77500 338.000
16.79000 309.000
16.80500 330.000
16.82000 324.000
16.83500 323.000
16.85000 344.000
16.86500 332.000
16.88000 313.000
16.89500 346.000
16.91000 335.000
16.92500 367.000
16.94000 377.000
16.95500 337.000
16.97000 331.000
16.98500 359.000
17.00000 345.000
17.01500 353.000
17.03000 323.000
17.04500 324.000
17.06000 322.000
17.07500 339.000
17.09000 333.000
17.10500 352.000
17.12000 363.000
17.13500 343.000
17.15000 311.000
17.16500 342.000
17.18000 354.000
17.19500 344.000
17.21000 356.000
17.22500 382.000
17.24000 332.000
17.25500 330.000
17.27000 319.000
17.28500 335.000
17.30000 356.000
17.31500 345.000
17.33000 340.000
17.34500 336.000
17.36000 339.000
17.37500 333.000
17.39000 334.000
17.40500 352.000
17.42000 340.000
17.43500 342.000
17.45000 328.000
17.46500 314.000
17.48000 322.000
17.49500 366.000
17.51000 391.000
17.52500 344.000
17.54000 359.000
17.55500 372.000
17.57000 356.000
17.58500 356.000
17.60000 361.000
17.61500 367.000
17.63000 341.000
17.64500 324.000
17.66000 328.000
17.67500 335.000
17.69000 360.000
17.70500 353.000
17.72000 348.000
17.73500 352.000
17.75000 363.000
17.76500 364.000
17.78000 335.000
17.79500 344.000
17.81000 335.000
17.82500 351.000
17.84000 355.000
17.85500 354.000
17.87000 347.000
17.88500 346.000
17.90000 344.000
17.91500 362.000
17.93000 362.000
17.94500 373.000
17.96000 371.000
17.97500 365.000
17.99000 375.000
18.00500 367.000
18.02000 353.000
18.03500 350.000
18.05000 339.000
18.06500 370.000
18.08000 370.000
18.09500 364.000
18.11000 375.000
18.12500 356.000
18.14000 377.000
18.15500 388.000
18.17000 367.000
18.18500 362.000
18.20000 364.000
18.21500 353.000
18.23000 361.000
18.24500 355.000
18.26000 367.000
18.27500 376.000
18.29000 360.000
18.30500 355.000
18.32000 389.000
18.33500 363.000
18.35000 350.000
18.36500 369.000
18.38000 372.000
18.39500 387.000
18.41000 353.000
18.42500 368.000
18.44000 381.000
18.45500 364.000
18.47000 372.000
18.48500 377.000
18.50000 358.000
18.51500 353.000
18.53000 358.000
18.54500 376.000
18.56000 364.000
18.57500 357.000
18.59000 359.000
18.60500 349.000
18.62000 336.000
18.63500 338.000
18.65000 343.000
18.66500 364.000
18.68000 360.000
18.69500 344.000
18.71000 374.000
18.72500 374.000
18.74000 354.000
18.75500 356.000
18.77000 359.000
18.78500 348.000
18.80000 364.000
18.81500 373.000
18.83000 359.000
18.84500 375.000
18.86000 370.000
18.87500 369.000
18.89000 352.000
18.90500 352.000
18.92000 350.000
18.93500 381.000
18.95000 382.000
18.96500 363.000
18.98000 366.000
18.99500 362.000
19.01000 384.000
19.02500 383.000
19.04000 364.000
19.05500 366.000
19.07000 356.000
19.08500 386.000
19.10000 362.000
19.11500 363.000
19.13000 365.000
19.14500 360.000
19.16000 361.000
19.17500 357.000
19.19000 351.000
19.20500 368.000
19.22000 348.000
19.23500 370.000
19.25000 361.000
19.26500 380.000
19.28000 369.000
19.29500 343.000
19.31000 336.000
19.32500 350.000
19.34000 369.000
19.35500 376.000
19.37000 349.000
19.38500 386.000
19.40000 377.000
19.41500 370.000
19.43000 352.000
19.44500 332.000
19.46000 350.000
19.47500 345.000
19.49000 371.000
19.50500 377.000
19.52000 373.000
19.53500 344.000
19.55000 355.000
19.56500 340.000
19.58000 360.000
19.59500 360.000
19.61000 370.000
19.62500 365.000
19.64000 357.000
19.65500 337.000
19.67000 351.000
19.68500 332.000
19.70000 372.000
19.71500 346.000
19.73000 343.000
19.74500 355.000
19.76000 360.000
19.77500 348.000
19.79000 351.000
19.80500 346.000
19.82000 371.000
19.83500 331.000
19.85000 364.000
19.86500 353.000
19.88000 331.000
19.89500 357.000
19.91000 368.000
19.92500 332.000
19.94000 343.000
19.95500 338.000
19.97000 336.000
19.98500 361.000
20.00000 360.000
20.01500 377.000
20.03000 350.000
20.04500 337.000
20.06000 373.000
20.07500 377.000
20.09000 365.000
20.10500 365.000
20.12000 374.000
20.13500 365.000
20.15000 364.000
20.16500 376.000
20.18000 366.000
20.19500 387.000
20.21000 362.000
20.22500 369.000
20.24000 348.000
20.25500 341.000
20.27000 342.000
20.28500 349.000
20.30000 371.000
20.31500 399.000
20.33000 364.000
20.34500 364.000
20.36000 336.000
20.37500 352.000
20.39000 374.000
20.40500 358.000
20.42000 343.000
20.43500 369.000
20.45000 393.000
20.46500 361.000
20.48000 363.000
20.49500 367.000
20.51000 385.000
20.52500 398.000
20.54000 399.000
20.55500 391.000
20.57000 398.000
20.58500 407.000
20.60000 420.000
20.61500 429.000
20.63000 405.000
20.64500 422.000
20.66000 422.000
20.67500 434.000
20.69000 442.000
20.70500 479.000
20.72000 491.000
20.73500 511.000
20.75000 500.000
20.76500 541.000
20.78000 613.000
20.79500 639.000
20.81000 673.000
20.82500 710.000
20.84000 761.000
20.85500 835.000
20.87000 855.000
20.88500 996.000
20.90000 1104.000
20.91500 1239.000
20.93000 1418.000
20.94500 1458.000
20.96000 1669.000
20.97500 1807.000
20.99000 1979.000
21.00500 1924.000
21.02000 1914.000
21.03500 1874.000
21.05000 1644.000
21.06500 1512.000
21.08000 1352.000
21.09500 1221.000
21.11000 1024.000
21.12500 879.000
21.14000 757.000
21.15500 693.000
21.17000 693.000
21.18500 629.000
21.20000 579.000
21.21500 560.000
21.23000 539.000
21.24500 499.000
21.26000 512.000
21.27500 488.000
21.29000 459.000
21.30500 427.000
21.32000 400.000
21.33500 427.000
21.35000 421.000
21.36500 416.000
21.38000 388.000
21.39500 384.000
21.41000 413.000
21.42500 398.000
21.44000 392.000
21.45500 415.000
21.47000 392.000
21.48500 395.000
21.50000 392.000
21.51500 369.000
21.53000 405.000
21.54500 391.000
21.56000 384.000
21.57500 383.000
21.59000 403.000
21.60500 379.000
21.62000 342.000
21.63500 370.000
21.65000 379.000
21.66500 372.000
21.68000 357.000
21.69500 361.000
21.71000 364.000
21.72500 359.000
21.74000 385.000
21.75500 377.000
21.77000 357.000
21.78500 332.000
21.80000 342.000
21.81500 366.000
21.83000 389.000
21.84500 423.000
21.86000 362.000
21.87500 378.000
21.89000 394.000
21.90500 347.000
21.92000 366.000
21.93500 371.000
21.95000 359.000
21.96500 378.000
21.98000 373.000
21.99500 323.000
22.01000 359.000
22.02500 342.000
22.04000 322.000
22.05500 367.000
22.07000 385.000
22.08500 384.000
22.10000 387.000
22.11500 380.000
22.13000 354.000
22.14500 362.000
22.16000 373.000
22.17500 358.000
22.19000 395.000
22.20500 392.000
22.22000 384.000
22.23500 349.000
22.25000 397.000
22.26500 376.000
22.28000 365.000
22.29500 380.000
22.31000 354.000
22.32500 381.000
22.34000 372.000
22.35500 362.000
22.37000 361.000
22.38500 352.000
22.40000 365.000
22.41500 365.000
22.43000 365.000
22.44500 356.000
22.46000 348.000
22.47500 372.000
22.49000 383.000
22.50500 378.000
22.52000 395.000
22.53500 394.000
22.55000 348.000
22.56500 374.000
22.58000 343.000
22.59500 340.000
22.61000 349.000
22.62500 348.000
22.64000 356.000
22.65500 390.000
22.67000 351.000
22.68500 354.000
22.70000 365.000
22.71500 373.000
22.73000 367.000
22.74500 341.000
22.76000 373.000
22.77500 371.000
22.79000 378.000
22.80500 362.000
22.82000 356.000
22.83500 368.000
22.85000 364.000
22.86500 328.000
22.88000 346.000
22.89500 337.000
22.91000 390.000
22.92500 385.000
22.94000 376.000
22.95500 389.000
22.97000 359.000
22.98500 371.000
23.00000 342.000
23.01500 351.000
23.03000 375.000
23.04500 387.000
23.06000 382.000
23.07500 393.000
23.09000 401.000
23.10500 387.000
23.12000 383.000
23.13500 381.000
23.15000 393.000
23.16500 368.000
23.18000 366.000
23.19500 395.000
23.21000 382.000
23.22500 386.000
23.24000 397.000
23.25500 385.000
23.27000 360.000
23.28500 385.000
23.30000 389.000
23.31500 386.000
23.33000 389.000
23.34500 377.000
23.36000 364.000
23.37500 355.000
23.39000 380.000
23.40500 374.000
23.42000 379.000
23.43500 374.000
23.45000 377.000
23.46500 355.000
23.48000 370.000
23.49500 372.000
23.51000 370.000
23.52500 349.000
23.54000 366.000
23.55500 370.000
23.57000 396.000
23.58500 394.000
23.60000 410.000
23.61500 398.000
23.63000 384.000
23.64500 388.000
23.66000 366.000
23.67500 378.000
23.69000 387.000
23.70500 362.000
23.72000 384.000
23.73500 373.000
23.75000 374.000
23.76500 410.000
23.78000 391.000
23.79500 369.000
23.81000 394.000
23.82500 430.000
23.84000 417.000
23.85500 405.000
23.87000 391.000
23.88500 404.000
23.90000 421.000
23.91500 382.000
23.93000 401.000
23.94500 387.000
23.96000 409.000
23.97500 429.000
23.99000 420.000
24.00500 441.000
24.02000 436.000
24.03500 472.000
24.05000 457.000
24.06500 460.000
24.08000 467.000
24.09500 490.000
24.11000 498.000
24.12500 541.000
24.14000 493.000
24.15500 564.000
24.17000 588.000
24.18500 664.000
24.20000 704.000
24.21500 771.000
24.23000 842.000
24.24500 934.000
24.26000 971.000
24.27500 1032.000
24.29000 1088.000
24.30500 1110.000
24.32000 1142.000
24.33500 1119.000
24.35000 982.000
24.36500 945.000
24.38000 876.000
24.39500 804.000
24.41000 785.000
24.42500 697.000
24.44000 665.000
24.45500 589.000
24.47000 573.000
24.48500 549.000
24.50000 548.000
24.51500 573.000
24.53000 595.000
24.54500 554.000
24.56000 581.000
24.57500 592.000
24.59000 578.000
24.60500 562.000
24.62000 590.000
24.63500 586.000
24.65000 627.000
24.66500 664.000
24.68000 686.000
24.69500 633.000
24.71000 707.000
24.72500 712.000
24.74000 737.000
24.75500 745.000
24.77000 780.000
24.78500 771.000
24.80000 826.000
24.81500 808.000
24.83000 803.000
24.84500 811.000
24.86000 793.000
24.87500 765.000
24.89000 793.000
24.90500 732.000
24.92000 735.000
24.93500 749.000
24.95000 671.000
24.96500 626.000
24.98000 604.000
24.99500 633.000
25.01000 623.000
25.02500 625.000
25.04000 579.000
25.05500 562.000
25.07000 567.000
25.08500 587.000
25.10000 548.000
25.11500 499.000
25.13000 500.000
25.14500 535.000
25.16000 490.000
25.17500 509.000
25.19000 481.000
25.20500 506.000
25.22000 483.000
25.23500 518.000
25.25000 497.000
25.26500 463.000
25.28000 482.000
25.29500 490.000
25.31000 518.000
25.32500 495.000
25.34000 493.000
25.35500 476.000
25.37000 423.000
25.38500 457.000
25.40000 468.000
25.41500 464.000
25.43000 495.000
25.44500 483.000
25.46000 468.000
25.47500 439.000
25.49000 485.000
25.50500 499.000
25.52000 483.000
25.53500 519.000
25.55000 469.000
25.56500 426.000
25.58000 492.000
25.59500 499.000
25.61000 493.000
25.62500 522.000
25.64000 479.000
25.65500 496.000
25.67000 509.000
25.68500 494.000
25.70000 479.000
25.71500 481.000
25.73000 483.000
25.74500 500.000
25.76000 484.000
25.77500 445.000
25.79000 459.000
25.80500 469.000
25.82000 467.000
25.83500 500.000
25.85000 485.000
25.86500 463.000
25.88000 494.000
25.89500 488.000
25.91000 506.000
25.92500 517.000
25.94000 515.000
25.95500 519.000
25.97000 540.000
25.98500 525.000
26.00000 548.000
26.01500 620.000
26.03000 616.000
26.04500 575.000
26.06000 595.000
26.07500 670.000
26.09000 747.000
26.10500 769.000
26.12000 810.000
26.13500 945.000
26.15000 1052.000
26.16500 1181.000
26.18000 1325.000
26.19500 1508.000
26.21000 1751.000
26.22500 1914.000
26.24000 2152.000
26.25500 2367.000
26.27000 2655.000
26.28500 2986.000
26.30000 3159.000
26.31500 3283.000
26.33000 3397.000
26.34500 3533.000
26.36000 3625.000
26.37500 3511.000
26.39000 3345.000
26.40500 3290.000
26.42000 3118.000
26.43500 2860.000
26.45000 2580.000
26.46500 2286.000
26.48000 2100.000
26.49500 2058.000
26.51000 1867.000
26.52500 1715.000
26.54000 1561.000
26.55500 1470.000
26.57000 1390.000
26.58500 1385.000
26.60000 1276.000
26.61500 1255.000
26.63000 1192.000
26.64500 1165.000
26.66000 1068.000
26.67500 1086.000
26.69000 1068.000
26.70500 1027.000
26.72000 981.000
26.73500 980.000
26.75000 931.000
26.76500 878.000
26.78000 846.000
26.79500 913.000
26.81000 845.000
26.82500 853.000
26.84000 811.000
26.85500 820.000
26.87000 800.000
26.88500 800.000
26.90000 797.000
26.91500 767.000
26.93000 780.000
26.94500 766.000
26.96000 755.000
26.97500 712.000
26.99000 729.000
27.00500 742.000
27.02000 695.000
27.03500 705.000
27.05000 661.000
27.06500 686.000
27.08000 702.000
27.09500 687.000
27.11000 692.000
27.12500 675.000
27.14000 659.000
27.15500 675.000
27.17000 699.000
27.18500 651.000
27.20000 647.000
27.21500 655.000
27.23000 644.000
27.24500 637.000
27.26000 648.000
27.27500 661.000
27.29000 626.000
27.30500 635.000
27.32000 630.000
27.33500 632.000
27.35000 582.000
27.36500 637.000
27.38000 591.000
27.39500 631.000
27.41000 598.000
27.42500 601.000
27.44000 597.000
27.45500 593.000
27.47000 584.000
27.48500 543.000
27.50000 562.000
27.51500 592.000
27.53000 593.000
27.54500 615.000
27.56000 592.000
27.57500 584.000
27.59000 588.000
27.60500 623.000
27.62000 623.000
27.63500 607.000
27.65000 567.000
27.66500 561.000
27.68000 579.000
27.69500 621.000
27.71000 588.000
27.72500 579.000
27.74000 623.000
27.75500 629.000
27.77000 584.000
27.78500 585.000
27.80000 576.000
27.81500 615.000
27.83000 571.000
27.84500 564.000
27.86000 589.000
27.87500 558.000
27.89000 576.000
27.90500 609.000
27.92000 630.000
27.93500 582.000
27.95000 575.000
27.96500 606.000
27.98000 571.000
27.99500 598.000
28.01000 618.000
28.02500 604.000
28.04000 607.000
28.05500 600.000
28.07000 630.000
28.08500 628.000
28.10000 593.000
28.11500 576.000
28.13000 575.000
28.14500 553.000
28.16000 548.000
28.17500 560.000
28.19000 534.000
28.20500 554.000
28.22000 561.000
28.23500 551.000
28.25000 530.000
28.26500 518.000
28.28000 519.000
28.29500 511.000
28.31000 512.000
28.32500 502.000
28.34000 554.000
28.35500 532.000
28.37000 501.000
28.38500 531.000
28.40000 524.000
28.41500 526.000
28.43000 501.000
28.44500 506.000
28.46000 538.000
28.47500 542.000
28.49000 542.000
28.50500 594.000
28.52000 538.000
28.53500 547.000
28.55000 558.000
28.56500 527.000
28.58000 549.000
28.59500 546.000
28.61000 592.000
28.62500 613.000
28.64000 629.000
28.65500 625.000
28.67000 628.000
28.68500 698.000
28.70000 736.000
28.71500 722.000
28.73000 769.000
28.74500 784.000
28.76000 808.000
28.77500 861.000
28.79000 912.000
28.80500 1009.000
28.82000 1066.000
28.83500 1134.000
28.85000 1214.000
28.86500 1337.000
28.88000 1412.000
28.89500 1487.000
28.91000 1669.000
28.92500 1806.000
28.94000 1947.000
28.95500 2076.000
28.97000 2153.000
28.98500 2312.000
29.00000 2409.000
29.01500 2407.000
29.03000 2548.000
29.04500 2722.000
29.06000 2776.000
29.07500 2787.000
29.09000 2827.000
29.10500 2824.000
29.12000 2809.000
29.13500 2698.000
29.15000 2643.000
29.16500 2480.000
29.18000 2331.000
29.19500 2151.000
29.21000 1999.000
29.22500 1830.000
29.24000 1795.000
29.25500 1620.000
29.27000 1499.000
29.28500 1359.000
29.30000 1280.000
29.31500 1221.000
29.33000 1100.000
29.34500 1059.000
29.36000 1018.000
29.37500 953.000
29.39000 924.000
29.40500 875.000
29.42000 846.000
29.43500 802.000
29.45000 768.000
29.46500 748.000
29.48000 724.000
29.49500 657.000
29.51000 663.000
29.52500 658.000
29.54000 688.000
29.55500 630.000
29.57000 603.000
29.58500 617.000
29.60000 579.000
29.61500 549.000
29.63000 564.000
29.64500 535.000
29.66000 510.000
29.67500 512.000
29.69000 474.000
29.70500 532.000
29.72000 491.000
29.73500 472.000
29.75000 487.000
29.76500 490.000
29.78000 464.000
29.79500 459.000
29.81000 436.000
29.82500 450.000
29.84000 418.000
29.85500 439.000
29.87000 437.000
29.88500 427.000
29.90000 430.000
29.91500 429.000
29.93000 452.000
29.94500 435.000
29.96000 419.000
29.97500 439.000
29.99000 407.000
30.00500 378.000
30.02000 423.000
30.03500 417.000
30.05000 405.000
30.06500 403.000
30.08000 407.000
30.09500 391.000
30.11000 377.000
30.12500 386.000
30.14000 349.000
30.15500 363.000
30.17000 386.000
30.18500 379.000
30.20000 371.000
30.21500 386.000
30.23000 387.000
30.24500 383.000
30.26000 357.000
30.27500 382.000
30.29000 383.000
30.30500 373.000
30.32000 386.000
30.33500 385.000
30.35000 358.000
30.36500 352.000
30.38000 352.000
30.39500 381.000
30.41000 369.000
30.42500 395.000
30.44000 362.000
30.45500 344.000
30.47000 336.000
30.48500 355.000
30.50000 348.000
30.51500 349.000
30.53000 388.000
30.54500 365.000
30.56000 341.000
30.57500 362.000
30.59000 353.000
30.60500 309.000
30.62000 330.000
30.63500 350.000
30.65000 358.000
30.66500 343.000
30.68000 333.000
30.69500 351.000
30.71000 345.000
30.72500 342.000
30.74000 310.000
30.75500 350.000
30.77000 334.000
30.78500 314.000
30.80000 302.000
30.81500 340.000
30.83000 337.000
30.84500 349.000
30.86000 341.000
30.87500 329.000
30.89000 352.000
30.90500 320.000
30.92000 333.000
30.93500 329.000
30.95000 339.000
30.96500 308.000
30.98000 342.000
30.99500 335.000
31.01000 328.000
31.02500 348.000
31.04000 323.000
31.05500 306.000
31.07000 323.000
31.08500 334.000
31.10000 320.000
31.11500 334.000
31.13000 343.000
31.14500 335.000
31.16000 336.000
31.17500 317.000
31.19000 327.000
31.20500 330.000
31.22000 330.000
31.23500 331.000
31.25000 312.000
31.26500 316.000
31.28000 305.000
31.29500 339.000
31.31000 322.000
31.32500 294.000
31.34000 292.000
31.35500 304.000
31.37000 326.000
31.38500 316.000
31.40000 295.000
31.41500 301.000
31.43000 316.000
31.44500 302.000
31.46000 344.000
31.47500 318.000
31.49000 330.000
31.50500 335.000
31.52000 321.000
31.53500 291.000
31.55000 303.000
31.56500 305.000
31.58000 310.000
31.59500 322.000
31.61000 325.000
31.62500 343.000
31.64000 348.000
31.65500 297.000
31.67000 316.000
31.68500 314.000
31.70000 293.000
31.71500 320.000
31.73000 336.000
31.74500 317.000
31.76000 326.000
31.77500 321.000
31.79000 342.000
31.80500 332.000
31.82000 325.000
31.83500 342.000
31.85000 330.000
31.86500 344.000
31.88000 345.000
31.89500 346.000
31.91000 320.000
31.92500 347.000
31.94000 365.000
31.95500 352.000
31.97000 352.000
31.98500 331.000
32.00000 363.000
32.01500 394.000
32.03000 373.000
32.04500 369.000
32.06000 424.000
32.07500 402.000
32.09000 405.000
32.10500 437.000
32.12000 428.000
32.13500 469.000
32.15000 538.000
32.16500 567.000
32.18000 581.000
32.19500 659.000
32.21000 740.000
32.22500 777.000
32.24000 884.000
32.25500 919.000
32.27000 1038.000
32.28500 1184.000
32.30000 1261.000
32.31500 1340.000
32.33000 1339.000
32.34500 1363.000
32.36000 1365.000
32.37500 1325.000
32.39000 1312.000
32.40500 1160.000
32.42000 1046.000
32.43500 939.000
32.45000 851.000
32.46500 743.000
32.48000 668.000
32.49500 593.000
32.51000 579.000
32.52500 522.000
32.54000 500.000
32.55500 456.000
32.57000 403.000
32.58500 437.000
32.60000 428.000
32.61500 393.000
32.63000 360.000
32.64500 382.000
32.66000 382.000
32.67500 355.000
32.69000 371.000
32.70500 342.000
32.72000 323.000
32.73500 342.000
32.75000 322.000
32.76500 301.000
32.78000 300.000
32.79500 319.000
32.81000 307.000
32.82500 313.000
32.84000 331.000
32.85500 312.000
32.87000 291.000
32.88500 306.000
32.90000 326.000
32.91500 300.000
32.93000 301.000
32.94500 296.000
32.96000 308.000
32.97500 304.000
32.99000 287.000
33.00500 297.000
33.02000 285.000
33.03500 295.000
33.05000 300.000
33.06500 278.000
33.08000 293.000
33.09500 332.000
33.11000 318.000
33.12500 289.000
33.14000 272.000
33.15500 293.000
33.17000 299.000
33.18500 263.000
33.20000 265.000
33.21500 279.000
33.23000 290.000
33.24500 257.000
33.26000 290.000
33.27500 277.000
33.29000 284.000
33.30500 275.000
33.32000 299.000
33.33500 293.000
33.35000 302.000
33.36500 267.000
33.38000 287.000
33.39500 282.000
33.41000 286.000
33.42500 275.000
33.44000 291.000
33.45500 283.000
33.47000 292.000
33.48500 278.000
33.50000 294.000
33.51500 283.000
33.53000 296.000
33.54500 279.000
33.56000 291.000
33.57500 281.000
33.59000 293.000
33.60500 275.000
33.62000 297.000
33.63500 299.000
33.65000 322.000
33.66500 310.000
33.68000 279.000
33.69500 318.000
33.71000 336.000
33.72500 318.000
33.74000 316.000
33.75500 339.000
33.77000 322.000
33.78500 334.000
33.80000 351.000
33.81500 328.000
33.83000 341.000
33.84500 359.000
33.86000 409.000
33.87500 367.000
33.89000 380.000
33.90500 377.000
33.92000 377.000
33.93500 396.000
33.95000 380.000
33.96500 329.000
33.98000 362.000
33.99500 350.000
34.01000 349.000
34.02500 355.000
34.04000 363.000
34.05500 361.000
34.07000 341.000
34.08500 347.000
34.10000 317.000
34.11500 339.000
34.13000 307.000
34.14500 308.000
34.16000 302.000
34.17500 332.000
34.19000 308.000
34.20500 292.000
34.22000 295.000
34.23500 282.000
34.25000 258.000
34.26500 256.000
34.28000 274.000
34.29500 281.000
34.31000 265.000
34.32500 275.000
34.34000 290.000
34.35500 278.000
34.37000 255.000
34.38500 260.000
34.40000 275.000
34.41500 274.000
34.43000 286.000
34.44500 286.000
34.46000 272.000
34.47500 245.000
34.49000 261.000
34.50500 265.000
34.52000 271.000
34.53500 285.000
34.55000 287.000
34.56500 256.000
34.58000 243.000
34.59500 265.000
34.61000 271.000
34.62500 259.000
34.64000 264.000
34.65500 250.000
34.67000 257.000
34.68500 274.000
34.70000 292.000
34.71500 273.000
34.73000 297.000
34.74500 260.000
34.76000 288.000
34.77500 266.000
34.79000 282.000
34.80500 279.000
34.82000 267.000
34.83500 278.000
34.85000 294.000
34.86500 317.000
34.88000 326.000
34.89500 326.000
34.91000 316.000
34.92500 308.000
34.94000 297.000
34.95500 328.000
34.97000 337.000
34.98500 350.000
35.00000 361.000
35.01500 360.000
35.03000 363.000
35.04500 343.000
35.06000 321.000
35.07500 350.000
35.09000 348.000
35.10500 320.000
35.12000 339.000
35.13500 329.000
35.15000 297.000
35.16500 315.000
35.18000 279.000
35.19500 290.000
35.21000 318.000
35.22500 287.000
35.24000 272.000
35.25500 257.000
35.27000 268.000
35.28500 270.000
35.30000 270.000
35.31500 263.000
35.33000 274.000
35.34500 255.000
35.36000 250.000
35.37500 253.000
35.39000 265.000
35.40500 252.000
35.42000 273.000
35.43500 285.000
35.45000 266.000
35.46500 269.000
35.48000 268.000
35.49500 231.000
35.51000 241.000
35.52500 242.000
35.54000 235.000
35.55500 255.000
35.57000 263.000
35.58500 258.000
35.60000 244.000
35.61500 224.000
35.63000 240.000
35.64500 234.000
35.66000 232.000
35.67500 256.000
35.69000 255.000
35.70500 263.000
35.72000 247.000
35.73500 276.000
35.75000 266.000
35.76500 281.000
35.78000 271.000
35.79500 258.000
35.81000 286.000
35.82500 273.000
35.84000 262.000
35.85500 270.000
35.87000 301.000
35.88500 283.000
35.90000 283.000
35.91500 281.000
35.93000 310.000
35.94500 287.000
35.96000 311.000
35.97500 318.000
35.99000 326.000
36.00500 304.000
36.02000 322.000
36.03500 309.000
36.05000 321.000
36.06500 329.000
36.08000 313.000
36.09500 338.000
36.11000 353.000
36.12500 352.000
36.14000 343.000
36.15500 340.000
36.17000 336.000
36.18500 345.000
36.20000 349.000
36.21500 338.000
36.23000 366.000
36.24500 336.000
36.26000 324.000
36.27500 310.000
36.29000 294.000
36.30500 290.000
36.32000 282.000
36.33500 296.000
36.35000 302.000
36.36500 296.000
36.38000 283.000
36.39500 264.000
36.41000 276.000
36.42500 275.000
36.44000 258.000
36.45500 241.000
36.47000 267.000
36.48500 266.000
36.50000 255.000
36.51500 246.000
36.53000 246.000
36.54500 270.000
36.56000 261.000
36.57500 234.000
36.59000 237.000
36.60500 227.000
36.62000 255.000
36.63500 255.000
36.65000 254.000
36.66500 264.000
36.68000 261.000
36.69500 261.000
36.71000 234.000
36.72500 282.000
36.74000 272.000
36.75500 260.000
36.77000 253.000
36.78500 254.000
36.80000 283.000
36.81500 292.000
36.83000 259.000
36.84500 263.000
36.86000 285.000
36.87500 262.000
36.89000 262.000
36.90500 272.000
36.92000 260.000
36.93500 258.000
36.95000 239.000
36.96500 237.000
36.98000 231.000
36.99500 232.000
37.01000 226.000
37.02500 217.000
37.04000 204.000
37.05500 200.000
37.07000 227.000
37.08500 217.000
37.10000 215.000
37.11500 201.000
37.13000 219.000
37.14500 219.000
37.16000 221.000
37.17500 193.000
37.19000 228.000
37.20500 219.000
37.22000 222.000
37.23500 221.000
37.25000 211.000
37.26500 213.000
37.28000 225.000
37.29500 209.000
37.31000 219.000
37.32500 211.000
37.34000 194.000
37.35500 210.000
37.37000 208.000
37.38500 209.000
37.40000 218.000
37.41500 200.000
37.43000 205.000
37.44500 214.000
37.46000 215.000
37.47500 195.000
37.49000 223.000
37.50500 211.000
37.52000 209.000
37.53500 194.000
37.55000 189.000
37.56500 221.000
37.58000 212.000
37.59500 208.000
37.61000 198.000
37.62500 197.000
37.64000 196.000
37.65500 192.000
37.67000 180.000
37.68500 177.000
37.70000 193.000
37.71500 200.000
37.73000 186.000
37.74500 199.000
37.76000 211.000
37.77500 219.000
37.79000 190.000
37.80500 189.000
37.82000 202.000
37.83500 191.000
37.85000 211.000
37.86500 207.000
37.88000 198.000
37.89500 216.000
37.91000 218.000
37.92500 197.000
37.94000 198.000
37.95500 198.000
37.97000 197.000
37.98500 209.000
38.00000 203.000
38.01500 216.000
38.03000 205.000
38.04500 199.000
38.06000 207.000
38.07500 204.000
38.09000 207.000
38.10500 206.000
38.12000 193.000
38.13500 201.000
38.15000 197.000
38.16500 201.000
38.18000 201.000
38.19500 204.000
38.21000 192.000
38.22500 212.000
38.24000 204.000
38.25500 186.000
38.27000 197.000
38.28500 192.000
38.30000 199.000
38.31500 203.000
38.33000 198.000
38.34500 196.000
38.36000 189.000
38.37500 192.000
38.39000 193.000
38.40500 206.000
38.42000 198.000
38.43500 192.000
38.45000 230.000
38.46500 211.000
38.48000 196.000
38.49500 186.000
38.51000 193.000
38.52500 187.000
38.54000 204.000
38.55500 199.000
38.57000 187.000
38.58500 207.000
38.60000 204.000
38.61500 196.000
38.63000 200.000
38.64500 209.000
38.66000 176.000
38.67500 192.000
38.69000 213.000
38.70500 204.000
38.72000 201.000
38.73500 199.000
38.75000 199.000
38.76500 190.000
38.78000 173.000
38.79500 191.000
38.81000 182.000
38.82500 194.000
38.84000 197.000
38.85500 204.000
38.87000 174.000
38.88500 183.000
38.90000 183.000
38.91500 176.000
38.93000 188.000
38.94500 200.000
38.96000 187.000
38.97500 205.000
38.99000 177.000
39.00500 189.000
39.02000 186.000
39.03500 203.000
39.05000 190.000
39.06500 209.000
39.08000 208.000
39.09500 205.000
39.11000 201.000
39.12500 201.000
39.14000 178.000
39.15500 191.000
39.17000 199.000
39.18500 194.000
39.20000 186.000
39.21500 203.000
39.23000 208.000
39.24500 205.000
39.26000 212.000
39.27500 200.000
39.29000 207.000
39.30500 186.000
39.32000 181.000
39.33500 217.000
39.35000 222.000
39.36500 215.000
39.38000 198.000
39.39500 187.000
39.41000 193.000
39.42500 174.000
39.44000 178.000
39.45500 211.000
39.47000 201.000
39.48500 215.000
39.50000 192.000
39.51500 205.000
39.53000 196.000
39.54500 215.000
39.56000 204.000
39.57500 179.000
39.59000 182.000
39.60500 174.000
39.62000 199.000
39.63500 188.000
39.65000 216.000
39.66500 191.000
39.68000 195.000
39.69500 214.000
39.71000 221.000
39.72500 188.000
39.74000 203.000
39.75500 207.000
39.77000 185.000
39.78500 188.000
39.80000 188.000
39.81500 199.000
39.83000 209.000
39.84500 191.000
39.86000 197.000
39.87500 200.000
39.89000 194.000
39.90500 196.000
39.92000 204.000
39.93500 186.000
39.95000 191.000
39.96500 207.000
39.98000 213.000
39.99500 205.000
40.01000 197.000
40.02500 176.000
40.04000 191.000
40.05500 197.000
40.07000 214.000
40.08500 212.000
40.10000 199.000
40.11500 179.000
40.13000 194.000
40.14500 189.000
40.16000 195.000
40.17500 193.000
40.19000 198.000
40.20500 191.000
40.22000 200.000
40.23500 203.000
40.25000 201.000
40.26500 193.000
40.28000 185.000
40.29500 173.000
40.31000 208.000
40.32500 190.000
40.34000 198.000
40.35500 207.000
40.37000 183.000
40.38500 188.000
40.40000 198.000
40.41500 176.000
40.43000 174.000
40.44500 186.000
40.46000 178.000
40.47500 184.000
40.49000 198.000
40.50500 182.000
40.52000 187.000
40.53500 201.000
40.55000 199.000
40.56500 185.000
40.58000 188.000
40.59500 188.000
40.61000 202.000
40.62500 175.000
40.64000 190.000
40.65500 219.000
40.67000 210.000
40.68500 199.000
40.70000 194.000
40.71500 169.000
40.73000 174.000
40.74500 197.000
40.76000 200.000
40.77500 187.000
40.79000 173.000
40.80500 189.000
40.82000 185.000
40.83500 161.000
40.85000 175.000
40.86500 182.000
40.88000 200.000
40.89500 205.000
40.91000 188.000
40.92500 182.000
40.94000 196.000
40.95500 190.000
40.97000 166.000
40.98500 183.000
41.00000 177.000
41.01500 193.000
41.03000 178.000
41.04500 158.000
41.06000 170.000
41.07500 194.000
41.09000 167.000
41.10500 203.000
41.12000 197.000
41.13500 207.000
41.15000 182.000
41.16500 200.000
41.18000 190.000
41.19500 180.000
41.21000 191.000
41.22500 184.000
41.24000 178.000
41.25500 186.000
41.27000 184.000
41.28500 193.000
41.30000 197.000
41.31500 203.000
41.33000 182.000
41.34500 184.000
41.36000 187.000
41.37500 172.000
41.39000 179.000
41.40500 185.000
41.42000 188.000
41.43500 193.000
41.45000 198.000
41.46500 200.000
41.48000 181.000
41.49500 197.000
41.51000 205.000
41.52500 212.000
41.54000 189.000
41.55500 181.000
41.57000 182.000
41.58500 200.000
41.60000 186.000
41.61500 187.000
41.63000 197.000
41.64500 194.000
41.66000 202.000
41.67500 218.000
41.69000 196.000
41.70500 190.000
41.72000 182.000
41.73500 200.000
41.75000 200.000
41.76500 202.000
41.78000 196.000
41.79500 198.000
41.81000 181.000
41.82500 199.000
41.84000 225.000
41.85500 214.000
41.87000 207.000
41.88500 208.000
41.90000 206.000
41.91500 206.000
41.93000 201.000
41.94500 184.000
41.96000 208.000
41.97500 206.000
41.99000 216.000
42.00500 222.000
42.02000 220.000
42.03500 232.000
42.05000 230.000
42.06500 224.000
42.08000 219.000
42.09500 219.000
42.11000 209.000
42.12500 216.000
42.14000 230.000
42.15500 221.000
42.17000 216.000
42.18500 217.000
42.20000 215.000
42.21500 226.000
42.23000 218.000
42.24500 201.000
42.26000 221.000
42.27500 212.000
42.29000 220.000
42.30500 207.000
42.32000 208.000
42.33500 207.000
42.35000 202.000
42.36500 229.000
42.38000 206.000
42.39500 207.000
42.41000 200.000
42.42500 206.000
42.44000 244.000
42.45500 237.000
42.47000 240.000
42.48500 232.000
42.50000 233.000
42.51500 249.000
42.53000 252.000
42.54500 241.000
42.56000 236.000
42.57500 250.000
42.59000 257.000
42.60500 281.000
42.62000 254.000
42.63500 282.000
42.65000 275.000
42.66500 281.000
42.68000 310.000
42.69500 337.000
42.71000 371.000
42.72500 386.000
42.74000 393.000
42.75500 399.000
42.77000 380.000
42.78500 376.000
42.80000 388.000
42.81500 377.000
42.83000 336.000
42.84500 322.000
42.86000 321.000
42.87500 293.000
42.89000 304.000
42.90500 293.000
42.92000 293.000
42.93500 263.000
42.95000 242.000
42.96500 235.000
42.98000 220.000
42.99500 226.000
43.01000 249.000
43.02500 242.000
43.04000 223.000
43.05500 239.000
43.07000 213.000
43.08500 212.000
43.10000 212.000
43.11500 199.000
43.13000 197.000
43.14500 212.000
43.16000 211.000
43.17500 212.000
43.19000 219.000
43.20500 211.000
43.22000 218.000
43.23500 209.000
43.25000 207.000
43.26500 201.000
43.28000 199.000
43.29500 194.000
43.31000 202.000
43.32500 189.000
43.34000 176.000
43.35500 193.000
43.37000 204.000
43.38500 198.000
43.40000 185.000
43.41500 197.000
43.43000 191.000
43.44500 195.000
43.46000 205.000
43.47500 209.000
43.49000 187.000
43.50500 187.000
43.52000 209.000
43.53500 206.000
43.55000 185.000
43.56500 200.000
43.58000 224.000
43.59500 216.000
43.61000 218.000
43.62500 217.000
43.64000 199.000
43.65500 205.000
43.67000 217.000
43.68500 217.000
43.70000 210.000
43.71500 211.000
43.73000 197.000
43.74500 198.000
43.76000 204.000
43.77500 228.000
43.79000 209.000
43.80500 203.000
43.82000 186.000
43.83500 226.000
43.85000 222.000
43.86500 202.000
43.88000 199.000
43.89500 204.000
43.91000 202.000
43.92500 192.000
43.94000 184.000
43.95500 199.000
43.97000 211.000
43.98500 181.000
44.00000 203.000
44.01500 202.000
44.03000 214.000
44.04500 209.000
44.06000 208.000
44.07500 212.000
44.09000 241.000
44.10500 221.000
44.12000 231.000
44.13500 213.000
44.15000 207.000
44.16500 228.000
44.18000 238.000
44.19500 223.000
44.21000 246.000
44.22500 227.000
44.24000 222.000
44.25500 217.000
44.27000 245.000
44.28500 207.000
44.30000 247.000
44.31500 234.000
44.33000 226.000
44.34500 251.000
44.36000 229.000
44.37500 267.000
44.39000 263.000
44.40500 273.000
44.42000 290.000
44.43500 272.000
44.45000 288.000
44.46500 285.000
44.48000 294.000
44.49500 324.000
44.51000 339.000
44.52500 394.000
44.54000 365.000
44.55500 403.000
44.57000 424.000
44.58500 410.000
44.60000 451.000
44.61500 465.000
44.63000 446.000
44.64500 464.000
44.66000 471.000
44.67500 445.000
44.69000 465.000
44.70500 414.000
44.72000 402.000
44.73500 404.000
44.75000 387.000
44.76500 393.000
44.78000 393.000
44.79500 335.000
44.81000 371.000
44.82500 426.000
44.84000 413.000
44.85500 390.000
44.87000 371.000
44.88500 393.000
44.90000 425.000
44.91500 382.000
44.93000 394.000
44.94500 371.000
44.96000 353.000
44.97500 370.000
44.99000 365.000
45.00500 362.000
45.02000 348.000
45.03500 320.000
45.05000 322.000
45.06500 335.000
45.08000 308.000
45.09500 293.000
45.11000 306.000
45.12500 293.000
45.14000 294.000
45.15500 290.000
45.17000 290.000
45.18500 305.000
45.20000 263.000
45.21500 275.000
45.23000 277.000
45.24500 260.000
45.26000 258.000
45.27500 298.000
45.29000 269.000
45.30500 239.000
45.32000 232.000
45.33500 231.000
45.35000 238.000
45.36500 242.000
45.38000 245.000
45.39500 238.000
45.41000 239.000
45.42500 254.000
45.44000 243.000
45.45500 244.000
45.47000 246.000
45.48500 277.000
45.50000 248.000
45.51500 237.000
45.53000 248.000
45.54500 294.000
45.56000 282.000
45.57500 251.000
45.59000 287.000
45.60500 285.000
45.62000 277.000
45.63500 279.000
45.65000 279.000
45.66500 272.000
45.68000 294.000
45.69500 292.000
45.71000 283.000
45.72500 280.000
45.74000 285.000
45.75500 296.000
45.77000 278.000
45.78500 295.000
45.80000 294.000
45.81500 294.000
45.83000 286.000
45.84500 302.000
45.86000 320.000
45.87500 322.000
45.89000 301.000
45.90500 292.000
45.92000 267.000
45.93500 264.000
45.95000 262.000
45.96500 278.000
45.98000 282.000
45.99500 266.000
46.01000 267.000
46.02500 282.000
46.04000 279.000
46.05500 269.000
46.07000 267.000
46.08500 259.000
46.10000 245.000
46.11500 248.000
46.13000 254.000
46.14500 242.000
46.16000 246.000
46.17500 227.000
46.19000 238.000
46.20500 214.000
46.22000 250.000
46.23500 251.000
46.25000 234.000
46.26500 228.000
46.28000 236.000
46.29500 214.000
46.31000 232.000
46.32500 220.000
46.34000 219.000
46.35500 219.000
46.37000 231.000
46.38500 229.000
46.40000 256.000
46.41500 235.000
46.43000 235.000
46.44500 254.000
46.46000 262.000
46.47500 266.000
46.49000 262.000
46.50500 248.000
46.52000 258.000
46.53500 283.000
46.55000 275.000
46.56500 282.000
46.58000 310.000
46.59500 293.000
46.61000 299.000
46.62500 313.000
46.64000 302.000
46.65500 328.000
46.67000 330.000
46.68500 311.000
46.70000 307.000
46.71500 303.000
46.73000 303.000
46.74500 277.000
46.76000 278.000
46.77500 287.000
46.79000 293.000
46.80500 270.000
46.82000 270.000
46.83500 251.000
46.85000 243.000
46.86500 266.000
46.88000 226.000
46.89500 257.000
46.91000 251.000
46.92500 233.000
46.94000 241.000
46.95500 248.000
46.97000 218.000
46.98500 208.000
47.00000 225.000
47.01500 204.000
47.03000 197.000
47.04500 190.000
47.06000 209.000
47.07500 198.000
47.09000 221.000
47.10500 204.000
47.12000 177.000
47.13500 186.000
47.15000 196.000
47.16500 217.000
47.18000 194.000
47.19500 169.000
47.21000 176.000
47.22500 180.000
47.24000 172.000
47.25500 170.000
47.27000 210.000
47.28500 189.000
47.30000 183.000
47.31500 192.000
47.33000 170.000
47.34500 187.000
47.36000 184.000
47.37500 172.000
47.39000 171.000
47.40500 169.000
47.42000 158.000
47.43500 168.000
47.45000 182.000
47.46500 178.000
47.48000 175.000
47.49500 174.000
47.51000 185.000
47.52500 179.000
47.54000 175.000
47.55500 170.000
47.57000 159.000
47.58500 189.000
47.60000 194.000
47.61500 183.000
47.63000 183.000
47.64500 180.000
47.66000 184.000
47.67500 189.000
47.69000 178.000
47.70500 188.000
47.72000 205.000
47.73500 191.000
47.75000 168.000
47.76500 176.000
47.78000 169.000
47.79500 157.000
47.81000 165.000
47.82500 165.000
47.84000 164.000
47.85500 174.000
47.87000 174.000
47.88500 174.000
47.90000 183.000
47.91500 191.000
47.93000 162.000
47.94500 148.000
47.96000 178.000
47.97500 168.000
47.99000 151.000
48.00500 163.000
48.02000 151.000
48.03500 177.000
48.05000 155.000
48.06500 161.000
48.08000 184.000
48.09500 161.000
48.11000 157.000
48.12500 155.000
48.14000 155.000
48.15500 145.000
48.17000 155.000
48.18500 160.000
48.20000 163.000
48.21500 167.000
48.23000 183.000
48.24500 174.000
48.26000 175.000
48.27500 171.000
48.29000 155.000
48.30500 166.000
48.32000 168.000
48.33500 183.000
48.35000 153.000
48.36500 165.000
48.38000 174.000
48.39500 176.000
48.41000 172.000
48.42500 167.000
48.44000 159.000
48.45500 167.000
48.47000 181.000
48.48500 180.000
48.50000 171.000
48.51500 186.000
48.53000 160.000
48.54500 172.000
48.56000 175.000
48.57500 186.000
48.59000 173.000
48.60500 164.000
48.62000 185.000
48.63500 180.000
48.65000 168.000
48.66500 178.000
48.68000 177.000
48.69500 179.000
48.71000 175.000
48.72500 190.000
48.74000 187.000
48.75500 167.000
48.77000 163.000
48.78500 163.000
48.80000 165.000
48.81500 175.000
48.83000 175.000
48.84500 191.000
48.86000 155.000
48.87500 159.000
48.89000 153.000
48.90500 154.000
48.92000 158.000
48.93500 167.000
48.95000 159.000
48.96500 149.000
48.98000 154.000
48.99500 162.000
49.01000 162.000
49.02500 163.000
49.04000 171.000
49.05500 165.000
49.07000 170.000
49.08500 185.000
49.10000 172.000
49.11500 138.000
49.13000 175.000
49.14500 186.000
49.16000 165.000
49.17500 172.000
49.19000 164.000
49.20500 162.000
49.22000 186.000
49.23500 184.000
49.25000 179.000
49.26500 180.000
49.28000 177.000
49.29500 165.000
49.31000 174.000
49.32500 171.000
49.34000 170.000
49.35500 174.000
49.37000 171.000
49.38500 154.000
49.40000 173.000
49.41500 173.000
49.43000 172.000
49.44500 165.000
49.46000 166.000
49.47500 149.000
49.49000 160.000
49.50500 179.000
49.52000 183.000
49.53500 188.000
49.55000 181.000
49.56500 182.000
49.58000 195.000
49.59500 187.000
49.61000 172.000
49.62500 167.000
49.64000 185.000
49.65500 203.000
49.67000 196.000
49.68500 211.000
49.70000 211.000
49.71500 202.000
49.73000 219.000
49.74500 242.000
49.76000 231.000
49.77500 226.000
49.79000 212.000
49.80500 225.000
49.82000 237.000
49.83500 232.000
49.85000 219.000
49.86500 221.000
49.88000 215.000
49.89500 213.000
49.91000 208.000
49.92500 218.000
49.94000 204.000
49.95500 196.000
49.97000 199.000
49.98500 194.000
50.00000 213.000
50.01500 216.000
50.03000 205.000
50.04500 197.000
50.06000 193.000
50.07500 171.000
50.09000 185.000
50.10500 188.000
50.12000 192.000
50.13500 194.000
50.15000 181.000
50.16500 175.000
50.18000 188.000
50.19500 203.000
50.21000 204.000
50.22500 203.000
50.24000 216.000
50.25500 202.000
50.27000 195.000
50.28500 192.000
50.30000 204.000
50.31500 209.000
50.33000 206.000
50.34500 221.000
50.36000 231.000
50.37500 202.000
50.39000 238.000
50.40500 242.000
50.42000 245.000
50.43500 242.000
50.45000 231.000
50.46500 233.000
50.48000 263.000
50.49500 278.000
50.51000 255.000
50.52500 266.000
50.54000 270.000
50.55500 273.000
50.57000 287.000
50.58500 288.000
50.60000 307.000
50.61500 309.000
50.63000 314.000
50.64500 323.000
50.66000 331.000
50.67500 344.000
50.69000 328.000
50.70500 336.000
50.72000 328.000
50.73500 380.000
50.75000 383.000
50.76500 422.000
50.78000 450.000
50.79500 459.000
50.81000 430.000
50.82500 409.000
50.84000 461.000
50.85500 469.000
50.87000 449.000
50.88500 488.000
50.90000 489.000
50.91500 472.000
50.93000 480.000
50.94500 474.000
50.96000 493.000
50.97500 481.000
50.99000 479.000
51.00500 484.000
51.02000 479.000
51.03500 455.000
51.05000 433.000
51.06500 424.000
51.08000 418.000
51.09500 402.000
51.11000 395.000
51.12500 386.000
51.14000 382.000
51.15500 380.000
51.17000 370.000
51.18500 346.000
51.20000 343.000
51.21500 346.000
51.23000 340.000
51.24500 311.000
51.26000 293.000
51.27500 304.000
51.29000 275.000
51.30500 281.000
51.32000 308.000
51.33500 305.000
51.35000 256.000
51.36500 251.000
51.38000 258.000
51.39500 258.000
51.41000 237.000
51.42500 237.000
51.44000 253.000
51.45500 253.000
51.47000 240.000
51.48500 224.000
51.50000 225.000
51.51500 225.000
51.53000 220.000
51.54500 243.000
51.56000 210.000
51.57500 231.000
51.59000 214.000
51.60500 192.000
51.62000 198.000
51.63500 200.000
51.65000 218.000
51.66500 199.000
51.68000 187.000
51.69500 192.000
51.71000 195.000
51.72500 209.000
51.74000 191.000
51.75500 176.000
51.77000 179.000
51.78500 180.000
51.80000 190.000
51.81500 212.000
51.83000 186.000
51.84500 185.000
51.86000 183.000
51.87500 172.000
51.89000 176.000
51.90500 175.000
51.92000 169.000
51.93500 193.000
51.95000 177.000
51.96500 181.000
51.98000 174.000
51.99500 189.000
52.01000 168.000
52.02500 178.000
52.04000 181.000
52.05500 182.000
52.07000 172.000
52.08500 175.000
52.10000 197.000
52.11500 193.000
52.13000 180.000
52.14500 184.000
52.16000 161.000
52.17500 173.000
52.19000 179.000
52.20500 168.000
52.22000 200.000
52.23500 190.000
52.25000 192.000
52.26500 191.000
52.28000 190.000
52.29500 183.000
52.31000 197.000
52.32500 203.000
52.34000 182.000
52.35500 188.000
52.37000 189.000
52.38500 193.000
52.40000 173.000
52.41500 173.000
52.43000 201.000
52.44500 184.000
52.46000 212.000
52.47500 192.000
52.49000 196.000
52.50500 204.000
52.52000 192.000
52.53500 181.000
52.55000 190.000
52.56500 190.000
52.58000 194.000
52.59500 199.000
52.61000 193.000
52.62500 189.000
52.64000 193.000
52.65500 177.000
52.67000 187.000
52.68500 186.000
52.70000 179.000
52.71500 166.000
52.73000 198.000
52.74500 184.000
52.76000 165.000
52.77500 192.000
52.79000 183.000
52.80500 194.000
52.82000 174.000
52.83500 179.000
52.85000 170.000
52.86500 174.000
52.88000 185.000
52.89500 191.000
52.91000 168.000
52.92500 178.000
52.94000 170.000
52.95500 175.000
52.97000 161.000
52.98500 175.000
53.00000 165.000
53.01500 161.000
53.03000 144.000
53.04500 177.000
53.06000 185.000
53.07500 182.000
53.09000 177.000
53.10500 170.000
53.12000 172.000
53.13500 162.000
53.15000 157.000
53.16500 195.000
53.18000 188.000
53.19500 181.000
53.21000 167.000
53.22500 167.000
53.24000 169.000
53.25500 170.000
53.27000 159.000
53.28500 155.000
53.30000 151.000
53.31500 160.000
53.33000 155.000
53.34500 167.000
53.36000 165.000
53.37500 168.000
53.39000 171.000
53.40500 163.000
53.42000 159.000
53.43500 187.000
53.45000 159.000
53.46500 157.000
53.48000 178.000
53.49500 174.000
53.51000 181.000
53.52500 167.000
53.54000 167.000
53.55500 163.000
53.57000 161.000
53.58500 177.000
53.60000 166.000
53.61500 188.000
53.63000 190.000
53.64500 192.000
53.66000 205.000
53.67500 180.000
53.69000 192.000
53.70500 183.000
53.72000 180.000
53.73500 172.000
53.75000 173.000
53.76500 165.000
53.78000 170.000
53.79500 186.000
53.81000 180.000
53.82500 186.000
53.84000 195.000
53.85500 198.000
53.87000 208.000
53.88500 196.000
53.90000 194.000
53.91500 216.000
53.93000 204.000
53.94500 189.000
53.96000 218.000
53.97500 232.000
53.99000 249.000
54.00500 256.000
54.02000 271.000
54.03500 295.000
54.05000 263.000
54.06500 278.000
54.08000 292.000
54.09500 307.000
54.11000 301.000
54.12500 305.000
54.14000 312.000
54.15500 333.000
54.17000 331.000
54.18500 335.000
54.20000 359.000
54.21500 362.000
54.23000 368.000
54.24500 353.000
54.26000 363.000
54.27500 346.000
54.29000 343.000
54.30500 345.000
54.32000 380.000
54.33500 373.000
54.35000 327.000
54.36500 348.000
54.38000 329.000
54.39500 343.000
54.41000 332.000
54.42500 326.000
54.44000 364.000
54.45500 339.000
54.47000 337.000
54.48500 367.000
54.50000 353.000
54.51500 362.000
54.53000 386.000
54.54500 385.000
54.56000 420.000
54.57500 400.000
54.59000 434.000
54.60500 402.000
54.62000 457.000
54.63500 450.000
54.65000 428.000
54.66500 410.000
54.68000 410.000
54.69500 400.000
54.71000 348.000
54.72500 327.000
54.74000 314.000
54.75500 314.000
54.77000 286.000
54.78500 304.000
54.80000 292.000
54.81500 265.000
54.83000 251.000
54.84500 266.000
54.86000 241.000
54.87500 223.000
54.89000 227.000
54.90500 213.000
54.92000 199.000
54.93500 231.000
54.95000 206.000
54.96500 201.000
54.98000 207.000
54.99500 185.000
55.01000 195.000
55.02500 193.000
55.04000 187.000
55.05500 192.000
55.07000 186.000
55.08500 177.000
55.10000 176.000
55.11500 160.000
55.13000 161.000
55.14500 175.000
55.16000 182.000
55.17500 168.000
55.19000 184.000
55.20500 189.000
55.22000 183.000
55.23500 176.000
55.25000 195.000
55.26500 170.000
55.28000 159.000
55.29500 164.000
55.31000 168.000
55.32500 181.000
55.34000 181.000
55.35500 190.000
55.37000 174.000
55.38500 154.000
55.40000 162.000
55.41500 157.000
55.43000 156.000
55.44500 165.000
55.46000 180.000
55.47500 187.000
55.49000 195.000
55.50500 173.000
55.52000 168.000
55.53500 172.000
55.55000 161.000
55.56500 168.000
55.58000 168.000
55.59500 160.000
55.61000 163.000
55.62500 167.000
55.64000 151.000
55.65500 160.000
55.67000 168.000
55.68500 181.000
55.70000 185.000
55.71500 158.000
55.73000 168.000
55.74500 162.000
55.76000 152.000
55.77500 179.000
55.79000 174.000
55.80500 176.000
55.82000 171.000
55.83500 179.000
55.85000 159.000
55.86500 156.000
55.88000 157.000
55.89500 159.000
55.91000 174.000
55.92500 169.000
55.94000 165.000
55.95500 161.000
55.97000 163.000
55.98500 169.000
56.00000 158.000
56.01500 167.000
56.03000 154.000
56.04500 141.000
56.06000 161.000
56.07500 168.000
56.09000 149.000
56.10500 143.000
56.12000 155.000
56.13500 160.000
56.15000 165.000
56.16500 165.000
56.18000 170.000
56.19500 183.000
56.21000 185.000
56.22500 153.000
56.24000 158.000
56.25500 176.000
56.27000 165.000
56.28500 169.000
56.30000 141.000
56.31500 162.000
56.33000 150.000
56.34500 162.000
56.36000 164.000
56.37500 182.000
56.39000 159.000
56.40500 165.000
56.42000 173.000
56.43500 150.000
56.45000 174.000
56.46500 155.000
56.48000 178.000
56.49500 171.000
56.51000 156.000
56.52500 165.000
56.54000 179.000
56.55500 155.000
56.57000 155.000
56.58500 160.000
56.60000 144.000
56.61500 147.000
56.63000 163.000
56.64500 150.000
56.66000 137.000
56.67500 160.000
56.69000 165.000
56.70500 167.000
56.72000 154.000
56.73500 160.000
56.75000 161.000
56.76500 171.000
56.78000 168.000
56.79500 174.000
56.81000 156.000
56.82500 162.000
56.84000 151.000
56.85500 165.000
56.87000 161.000
56.88500 160.000
56.90000 169.000
56.91500 174.000
56.93000 156.000
56.94500 157.000
56.96000 154.000
56.97500 147.000
56.99000 168.000
57.00500 145.000
57.02000 138.000
57.03500 157.000
57.05000 154.000
57.06500 159.000
57.08000 146.000
57.09500 156.000
57.11000 172.000
57.12500 150.000
57.14000 153.000
57.15500 163.000
57.17000 160.000
57.18500 169.000
57.20000 160.000
57.21500 155.000
57.23000 152.000
57.24500 164.000
57.26000 171.000
57.27500 143.000
57.29000 172.000
57.30500 164.000
57.32000 187.000
57.33500 169.000
57.35000 159.000
57.36500 146.000
57.38000 162.000
57.39500 160.000
57.41000 162.000
57.42500 163.000
57.44000 179.000
57.45500 154.000
57.47000 153.000
57.48500 172.000
57.50000 150.000
57.51500 152.000
57.53000 153.000
57.54500 170.000
57.56000 162.000
57.57500 149.000
57.59000 170.000
57.60500 185.000
57.62000 176.000
57.63500 191.000
57.65000 169.000
57.66500 171.000
57.68000 174.000
57.69500 179.000
57.71000 177.000
57.72500 176.000
57.74000 175.000
57.75500 150.000
57.77000 161.000
57.78500 158.000
57.80000 160.000
57.81500 157.000
57.83000 169.000
57.84500 160.000
57.86000 138.000
57.87500 142.000
57.89000 144.000
57.90500 172.000
57.92000 168.000
57.93500 155.000
57.95000 163.000
57.96500 163.000
57.98000 154.000
57.99500 177.000
58.01000 148.000
58.02500 153.000
58.04000 143.000
58.05500 155.000
58.07000 161.000
58.08500 149.000
58.10000 161.000
58.11500 145.000
58.13000 153.000
58.14500 161.000
58.16000 156.000
58.17500 151.000
58.19000 167.000
58.20500 172.000
58.22000 163.000
58.23500 158.000
58.25000 155.000
58.26500 148.000
58.28000 150.000
58.29500 163.000
58.31000 169.000
58.32500 167.000
58.34000 139.000
58.35500 182.000
58.37000 158.000
58.38500 141.000
58.40000 145.000
58.41500 164.000
58.43000 163.000
58.44500 152.000
58.46000 132.000
58.47500 156.000
58.49000 171.000
58.50500 154.000
58.52000 159.000
58.53500 166.000
58.55000 170.000
58.56500 155.000
58.58000 156.000
58.59500 176.000
58.61000 170.000
58.62500 148.000
58.64000 143.000
58.65500 176.000
58.67000 165.000
58.68500 160.000
58.70000 172.000
58.71500 184.000
58.73000 177.000
58.74500 161.000
58.76000 176.000
58.77500 164.000
58.79000 179.000
58.80500 168.000
58.82000 171.000
58.83500 160.000
58.85000 163.000
58.86500 180.000
58.88000 161.000
58.89500 149.000
58.91000 157.000
58.92500 167.000
58.94000 172.000
58.95500 175.000
58.97000 156.000
58.98500 165.000
59.00000 165.000
59.01500 168.000
59.03000 178.000
59.04500 157.000
59.06000 157.000
59.07500 165.000
59.09000 180.000
59.10500 180.000
59.12000 170.000
59.13500 151.000
59.15000 161.000
59.16500 176.000
59.18000 170.000
59.19500 172.000
59.21000 178.000
59.22500 167.000
59.24000 160.000
59.25500 171.000
59.27000 174.000
59.28500 180.000
59.30000 170.000
59.31500 188.000
59.33000 178.000
59.34500 181.000
59.36000 171.000
59.37500 174.000
59.39000 164.000
59.40500 159.000
59.42000 160.000
59.43500 190.000
59.45000 185.000
59.46500 175.000
59.48000 167.000
59.49500 163.000
59.51000 155.000
59.52500 160.000
59.54000 148.000
59.55500 168.000
59.57000 180.000
59.58500 174.000
59.60000 152.000
59.61500 172.000
59.63000 158.000
59.64500 158.000
59.66000 161.000
59.67500 157.000
59.69000 158.000
59.70500 156.000
59.72000 176.000
59.73500 168.000
59.75000 165.000
59.76500 163.000
59.78000 170.000
59.79500 165.000
59.81000 164.000
59.82500 162.000
59.84000 177.000
59.85500 181.000
59.87000 149.000
59.88500 162.000
59.90000 167.000
59.91500 149.000
59.93000 164.000
59.94500 168.000
59.96000 172.000
59.97500 173.000
59.99000 171.000
60.00500 192.000
60.02000 159.000
60.03500 169.000
60.05000 166.000
60.06500 163.000
60.08000 155.000
60.09500 153.000
60.11000 170.000
60.12500 195.000
60.14000 167.000
60.15500 161.000
60.17000 163.000
60.18500 173.000
60.20000 158.000
60.21500 168.000
60.23000 176.000
60.24500 165.000
60.26000 178.000
60.27500 174.000
60.29000 156.000
60.30500 178.000
60.32000 170.000
60.33500 175.000
60.35000 171.000
60.36500 168.000
60.38000 159.000
60.39500 159.000
60.41000 152.000
60.42500 149.000
60.44000 159.000
60.45500 155.000
60.47000 152.000
60.48500 138.000
60.50000 178.000
60.51500 159.000
60.53000 146.000
60.54500 154.000
60.56000 161.000
60.57500 130.000
60.59000 153.000
60.60500 169.000
60.62000 165.000
60.63500 146.000
60.65000 152.000
60.66500 152.000
60.68000 163.000
60.69500 163.000
60.71000 159.000
60.72500 170.000
60.74000 158.000
60.75500 152.000
60.77000 145.000
60.78500 147.000
60.80000 141.000
60.81500 153.000
60.83000 144.000
60.84500 170.000
60.86000 168.000
60.87500 155.000
60.89000 156.000
60.90500 162.000
60.92000 166.000
60.93500 151.000
60.95000 130.000
60.96500 149.000
60.98000 137.000
60.99500 144.000
61.01000 152.000
61.02500 160.000
61.04000 152.000
61.05500 133.000
61.07000 136.000
61.08500 160.000
61.10000 136.000
61.11500 150.000
61.13000 136.000
61.14500 144.000
61.16000 157.000
61.17500 158.000
61.19000 123.000
61.20500 136.000
61.22000 149.000
61.23500 148.000
61.25000 153.000
61.26500 164.000
61.28000 145.000
61.29500 150.000
61.31000 154.000
61.32500 161.000
61.34000 148.000
61.35500 149.000
61.37000 129.000
61.38500 143.000
61.40000 159.000
61.41500 142.000
61.43000 142.000
61.44500 161.000
61.46000 163.000
61.47500 131.000
61.49000 154.000
61.50500 153.000
61.52000 146.000
61.53500 165.000
61.55000 154.000
61.56500 161.000
61.58000 151.000
61.59500 131.000
61.61000 144.000
61.62500 168.000
61.64000 144.000
61.65500 144.000
61.67000 154.000
61.68500 160.000
61.70000 134.000
61.71500 159.000
61.73000 146.000
61.74500 151.000
61.76000 160.000
61.77500 154.000
61.79000 138.000
61.80500 142.000
61.82000 143.000
61.83500 139.000
61.85000 143.000
61.86500 138.000
61.88000 131.000
61.89500 134.000
61.91000 143.000
61.92500 137.000
61.94000 144.000
61.95500 142.000
61.97000 143.000
61.98500 146.000
