2.00000 2.000
2.01500 1.000
2.03000 1.000
2.04500 2.000
2.06000 1.000
2.07500 2.000
2.09000 2.000
2.10500 3.000
2.12000 2.000
2.13500 2.000
2.15000 1.000
2.16500 2.000
2.18000 0.000
2.19500 2.000
2.21000 3.000
2.22500 2.000
2.24000 3.000
2.25500 4.000
2.27000 3.000
2.28500 3.000
2.30000 3.000
2.31500 2.000
2.33000 2.000
2.34500 0.000
2.36000 3.000
2.37500 5.000
2.39000 4.000
2.40500 2.000
2.42000 2.000
2.43500 2.000
2.45000 3.000
2.46500 2.000
2.48000 3.000
2.49500 4.000
2.51000 1.000
2.52500 2.000
2.54000 2.000
2.55500 2.000
2.57000 2.000
2.58500 1.000
2.60000 2.000
2.61500 2.000
2.63000 2.000
2.64500 2.000
2.66000 2.000
2.67500 1.000
2.69000 3.000
2.70500 1.000
2.72000 1.000
2.73500 2.000
2.75000 1.000
2.76500 2.000
2.78000 1.000
2.79500 1.000
2.81000 4.000
2.82500 4.000
2.84000 2.000
2.85500 1.000
2.87000 3.000
2.88500 3.000
2.90000 3.000
2.91500 1.000
2.93000 3.000
2.94500 2.000
2.96000 2.000
2.97500 3.000
2.99000 2.000
3.00500 2.000
3.02000 2.000
3.03500 2.000
3.05000 1.000
3.06500 5.000
3.08000 4.000
3.09500 5.000
3.11000 6.000
3.12500 7.000
3.14000 10.000
3.15500 9.000
3.17000 12.000
3.18500 15.000
3.20000 20.000
3.21500 15.000
3.23000 24.000
3.24500 28.000
3.26000 55.000
3.27500 75.000
3.29000 97.000
3.30500 114.000
3.32000 135.000
3.33500 158.000
3.35000 164.000
3.36500 182.000
3.38000 192.000
3.39500 198.000
3.41000 191.000
3.42500 207.000
3.44000 228.000
3.45500 210.000
3.47000 197.000
3.48500 191.000
3.50000 192.000
3.51500 194.000
3.53000 161.000
3.54500 187.000
3.56000 190.000
3.57500 183.000
3.59000 184.000
3.60500 195.000
3.62000 194.000
3.63500 186.000
3.65000 183.000
3.66500 197.000
3.68000 199.000
3.69500 187.000
3.71000 194.000
3.72500 185.000
3.74000 184.000
3.75500 179.000
3.77000 184.000
3.78500 181.000
3.80000 176.000
3.81500 182.000
3.83000 179.000
3.84500 190.000
3.86000 159.000
3.87500 177.000
3.89000 167.000
3.90500 182.000
3.92000 179.000
3.93500 164.000
3.95000 167.000
3.96500 165.000
3.98000 161.000
3.99500 180.000
4.01000 173.000
4.02500 174.000
4.04000 179.000
4.05500 180.000
4.07000 184.000
4.08500 174.000
4.10000 175.000
4.11500 170.000
4.13000 172.000
4.14500 151.000
4.16000 158.000
4.17500 171.000
4.19000 168.000
4.20500 162.000
4.22000 177.000
4.23500 150.000
4.25000 151.000
4.26500 170.000
4.28000 179.000
4.29500 177.000
4.31000 168.000
4.32500 167.000
4.34000 147.000
4.35500 160.000
4.37000 166.000
4.38500 155.000
4.40000 176.000
4.41500 203.000
4.43000 171.000
4.44500 150.000
4.46000 153.000
4.47500 156.000
4.49000 162.000
4.50500 162.000
4.52000 179.000
4.53500 178.000
4.55000 154.000
4.56500 167.000
4.58000 173.000
4.59500 157.000
4.61000 155.000
4.62500 170.000
4.64000 177.000
4.65500 180.000
4.67000 165.000
4.68500 163.000
4.70000 180.000
4.71500 173.000
4.73000 167.000
4.74500 173.000
4.76000 149.000
4.77500 144.000
4.79000 170.000
4.80500 172.000
4.82000 148.000
4.83500 178.000
4.85000 172.000
4.86500 159.000
4.88000 170.000
4.89500 162.000
4.91000 167.000
4.92500 147.000
4.94000 157.000
4.95500 169.000
4.97000 168.000
4.98500 160.000
5.00000 157.000
5.01500 155.000
5.03000 149.000
5.04500 173.000
5.06000 164.000
5.07500 165.000
5.09000 145.000
5.10500 156.000
5.12000 158.000
5.13500 148.000
5.15000 153.000
5.16500 188.000
5.18000 156.000
5.19500 147.000
5.21000 148.000
5.22500 176.000
5.24000 175.000
5.25500 195.000
5.27000 172.000
5.28500 161.000
5.30000 163.000
5.31500 162.000
5.33000 150.000
5.34500 155.000
5.36000 170.000
5.37500 177.000
5.39000 180.000
5.40500 149.000
5.42000 174.000
5.43500 175.000
5.45000 162.000
5.46500 167.000
5.48000 155.000
5.49500 170.000
5.51000 150.000
5.52500 158.000
5.54000 162.000
5.55500 158.000
5.57000 162.000
5.58500 165.000
5.60000 180.000
5.61500 143.000
5.63000 145.000
5.64500 159.000
5.66000 160.000
5.67500 176.000
5.69000 172.000
5.70500 182.000
5.72000 171.000
5.73500 173.000
5.75000 159.000
5.76500 163.000
5.78000 166.000
5.79500 147.000
5.81000 154.000
5.82500 166.000
5.84000 181.000
5.85500 174.000
5.87000 180.000
5.88500 187.000
5.90000 182.000
5.91500 179.000
5.93000 169.000
5.94500 159.000
5.96000 164.000
5.97500 163.000
5.99000 167.000
6.00500 162.000
6.02000 181.000
6.03500 190.000
6.05000 165.000
6.06500 169.000
6.08000 159.000
6.09500 179.000
6.11000 185.000
6.12500 165.000
6.14000 153.000
6.15500 169.000
6.17000 182.000
6.18500 180.000
6.20000 183.000
6.21500 183.000
6.23000 188.000
6.24500 188.000
6.26000 185.000
6.27500 155.000
6.29000 162.000
6.30500 164.000
6.32000 186.000
6.33500 187.000
6.35000 190.000
6.36500 162.000
6.38000 186.000
6.39500 178.000
6.41000 157.000
6.42500 174.000
6.44000 175.000
6.45500 177.000
6.47000 189.000
6.48500 192.000
6.50000 162.000
6.51500 151.000
6.53000 189.000
6.54500 170.000
6.56000 178.000
6.57500 171.000
6.59000 190.000
6.60500 185.000
6.62000 151.000
6.63500 174.000
6.65000 190.000
6.66500 184.000
6.68000 172.000
6.69500 186.000
6.71000 174.000
6.72500 186.000
6.74000 194.000
6.75500 196.000
6.77000 180.000
6.78500 180.000
6.80000 197.000
6.81500 174.000
6.83000 198.000
6.84500 185.000
6.86000 173.000
6.87500 173.000
6.89000 165.000
6.90500 169.000
6.92000 184.000
6.93500 172.000
6.95000 177.000
6.96500 161.000
6.98000 171.000
6.99500 189.000
7.01000 173.000
7.02500 196.000
7.04000 182.000
7.05500 194.000
7.07000 172.000
7.08500 195.000
7.10000 212.000
7.11500 193.000
7.13000 171.000
7.14500 176.000
7.16000 180.000
7.17500 177.000
7.19000 175.000
7.20500 180.000
7.22000 201.000
7.23500 188.000
7.25000 200.000
7.26500 190.000
7.28000 181.000
7.29500 185.000
7.31000 188.000
7.32500 170.000
7.34000 166.000
7.35500 172.000
7.37000 177.000
7.38500 180.000
7.40000 177.000
7.41500 166.000
7.43000 176.000
7.44500 173.000
7.46000 166.000
7.47500 173.000
7.49000 181.000
7.50500 176.000
7.52000 183.000
7.53500 177.000
7.55000 174.000
7.56500 194.000
7.58000 202.000
7.59500 189.000
7.61000 188.000
7.62500 192.000
7.64000 186.000
7.65500 217.000
7.67000 208.000
7.68500 186.000
7.70000 193.000
7.71500 192.000
7.73000 193.000
7.74500 191.000
7.76000 184.000
7.77500 193.000
7.79000 184.000
7.80500 209.000
7.82000 200.000
7.83500 199.000
7.85000 195.000
7.86500 178.000
7.88000 186.000
7.89500 195.000
7.91000 197.000
7.92500 187.000
7.94000 177.000
7.95500 197.000
7.97000 213.000
7.98500 187.000
8.00000 206.000
8.01500 210.000
8.03000 193.000
8.04500 205.000
8.06000 216.000
8.07500 192.000
8.09000 202.000
8.10500 203.000
8.12000 215.000
8.13500 223.000
8.15000 203.000
8.16500 194.000
8.18000 210.000
8.19500 239.000
8.21000 210.000
8.22500 200.000
8.24000 205.000
8.25500 224.000
8.27000 224.000
8.28500 233.000
8.30000 226.000
8.31500 213.000
8.33000 219.000
8.34500 230.000
8.36000 235.000
8.37500 261.000
8.39000 261.000
8.40500 259.000
8.42000 257.000
8.43500 258.000
8.45000 283.000
8.46500 270.000
8.48000 279.000
8.49500 275.000
8.51000 300.000
8.52500 305.000
8.54000 285.000
8.55500 291.000
8.57000 283.000
8.58500 279.000
8.60000 296.000
8.61500 278.000
8.63000 276.000
8.64500 299.000
8.66000 294.000
8.67500 275.000
8.69000 276.000
8.70500 265.000
8.72000 279.000
8.73500 276.000
8.75000 248.000
8.76500 236.000
8.78000 244.000
8.79500 251.000
8.81000 241.000
8.82500 242.000
8.84000 226.000
8.85500 250.000
8.87000 229.000
8.88500 244.000
8.90000 225.000
8.91500 207.000
8.93000 225.000
8.94500 212.000
8.96000 197.000
8.97500 221.000
8.99000 210.000
9.00500 206.000
9.02000 205.000
9.03500 199.000
9.05000 217.000
9.06500 187.000
9.08000 210.000
9.09500 240.000
9.11000 218.000
9.12500 206.000
9.14000 205.000
9.15500 208.000
9.17000 192.000
9.18500 193.000
9.20000 208.000
9.21500 199.000
9.23000 202.000
9.24500 207.000
9.26000 186.000
9.27500 200.000
9.29000 199.000
9.30500 194.000
9.32000 204.000
9.33500 203.000
9.35000 207.000
9.36500 196.000
9.38000 198.000
9.39500 183.000
9.41000 191.000
9.42500 202.000
9.44000 196.000
9.45500 207.000
9.47000 205.000
9.48500 200.000
9.50000 201.000
9.51500 208.000
9.53000 195.000
9.54500 200.000
9.56000 200.000
9.57500 200.000
9.59000 185.000
9.60500 197.000
9.62000 189.000
9.63500 187.000
9.65000 204.000
9.66500 213.000
9.68000 213.000
9.69500 208.000
9.71000 209.000
9.72500 212.000
9.74000 211.000
9.75500 199.000
9.77000 205.000
9.78500 218.000
9.80000 196.000
9.81500 194.000
9.83000 211.000
9.84500 214.000
9.86000 212.000
9.87500 217.000
9.89000 227.000
9.90500 220.000
9.92000 220.000
9.93500 224.000
9.95000 241.000
9.96500 214.000
9.98000 211.000
9.99500 229.000
10.01000 228.000
10.02500 238.000
10.04000 225.000
10.05500 226.000
10.07000 214.000
10.08500 248.000
10.10000 233.000
10.11500 230.000
10.13000 235.000
10.14500 230.000
10.16000 223.000
10.17500 237.000
10.19000 227.000
10.20500 227.000
10.22000 209.000
10.23500 216.000
10.25000 190.000
10.26500 195.000
10.28000 198.000
10.29500 201.000
10.31000 199.000
10.32500 206.000
10.34000 205.000
10.35500 218.000
10.37000 217.000
10.38500 232.000
10.40000 233.000
10.41500 199.000
10.43000 219.000
10.44500 210.000
10.46000 203.000
10.47500 211.000
10.49000 216.000
10.50500 202.000
10.52000 226.000
10.53500 218.000
10.55000 207.000
10.56500 220.000
10.58000 220.000
10.59500 208.000
10.61000 228.000
10.62500 242.000
10.64000 228.000
10.65500 214.000
10.67000 234.000
10.68500 237.000
10.70000 246.000
10.71500 212.000
10.73000 232.000
10.74500 252.000
10.76000 232.000
10.77500 246.000
10.79000 229.000
10.80500 232.000
10.82000 241.000
10.83500 253.000
10.85000 241.000
10.86500 232.000
10.88000 212.000
10.89500 231.000
10.91000 222.000
10.92500 243.000
10.94000 264.000
10.95500 251.000
10.97000 236.000
10.98500 269.000
11.00000 257.000
11.01500 265.000
11.03000 253.000
11.04500 283.000
11.06000 296.000
11.07500 250.000
11.09000 270.000
11.10500 288.000
11.12000 270.000
11.13500 307.000
11.15000 310.000
11.16500 323.000
11.18000 345.000
11.19500 316.000
11.21000 342.000
11.22500 363.000
11.24000 348.000
11.25500 365.000
11.27000 401.000
11.28500 423.000
11.30000 447.000
11.31500 495.000
11.33000 480.000
11.34500 463.000
11.36000 498.000
11.37500 532.000
11.39000 594.000
11.40500 606.000
11.42000 626.000
11.43500 703.000
11.45000 710.000
11.46500 744.000
11.48000 762.000
11.49500 783.000
11.51000 792.000
11.52500 891.000
11.54000 843.000
11.55500 837.000
11.57000 872.000
11.58500 856.000
11.60000 836.000
11.61500 770.000
11.63000 749.000
11.64500 718.000
11.66000 736.000
11.67500 758.000
11.69000 670.000
11.70500 616.000
11.72000 594.000
11.73500 600.000
11.75000 602.000
11.76500 589.000
11.78000 574.000
11.79500 577.000
11.81000 548.000
11.82500 515.000
11.84000 532.000
11.85500 515.000
11.87000 470.000
11.88500 465.000
11.90000 498.000
11.91500 460.000
11.93000 466.000
11.94500 434.000
11.96000 444.000
11.97500 425.000
11.99000 405.000
12.00500 368.000
12.02000 348.000
12.03500 350.000
12.05000 322.000
12.06500 299.000
12.08000 269.000
12.09500 302.000
12.11000 267.000
12.12500 265.000
12.14000 245.000
12.15500 261.000
12.17000 241.000
12.18500 232.000
12.20000 247.000
12.21500 239.000
12.23000 253.000
12.24500 231.000
12.26000 232.000
12.27500 215.000
12.29000 235.000
12.30500 242.000
12.32000 237.000
12.33500 218.000
12.35000 208.000
12.36500 215.000
12.38000 227.000
12.39500 204.000
12.41000 221.000
12.42500 243.000
12.44000 200.000
12.45500 207.000
12.47000 227.000
12.48500 230.000
12.50000 215.000
12.51500 207.000
12.53000 222.000
12.54500 215.000
12.56000 213.000
12.57500 223.000
12.59000 244.000
12.60500 215.000
12.62000 225.000
12.63500 238.000
12.65000 245.000
12.66500 252.000
12.68000 253.000
12.69500 252.000
12.71000 256.000
12.72500 254.000
12.74000 265.000
12.75500 250.000
12.77000 272.000
12.78500 288.000
12.80000 298.000
12.81500 282.000
12.83000 296.000
12.84500 309.000
12.86000 304.000
12.87500 308.000
12.89000 303.000
12.90500 321.000
12.92000 300.000
12.93500 267.000
12.95000 293.000
12.96500 282.000
12.98000 259.000
12.99500 283.000
13.01000 303.000
13.02500 294.000
13.04000 274.000
13.05500 314.000
13.07000 296.000
13.08500 290.000
13.10000 299.000
13.11500 278.000
13.13000 255.000
13.14500 286.000
13.16000 254.000
13.17500 255.000
13.19000 254.000
13.20500 288.000
13.22000 250.000
13.23500 264.000
13.25000 252.000
13.26500 251.000
13.28000 253.000
13.29500 253.000
13.31000 264.000
13.32500 241.000
13.34000 239.000
13.35500 255.000
13.37000 259.000
13.38500 248.000
13.40000 251.000
13.41500 229.000
13.43000 205.000
13.44500 218.000
13.46000 236.000
13.47500 222.000
13.49000 208.000
13.50500 214.000
13.52000 216.000
13.53500 228.000
13.55000 187.000
13.56500 207.000
13.58000 214.000
13.59500 206.000
13.61000 218.000
13.62500 213.000
13.64000 221.000
13.65500 235.000
13.67000 210.000
13.68500 186.000
13.70000 206.000
13.71500 198.000
13.73000 208.000
13.74500 227.000
13.76000 207.000
13.77500 193.000
13.79000 206.000
13.80500 203.000
13.82000 202.000
13.83500 185.000
13.85000 188.000
13.86500 194.000
13.88000 207.000
13.89500 214.000
13.91000 215.000
13.92500 193.000
13.94000 209.000
13.95500 207.000
13.97000 204.000
13.98500 206.000
14.00000 181.000
14.01500 193.000
14.03000 202.000
14.04500 196.000
14.06000 184.000
14.07500 189.000
14.09000 216.000
14.10500 204.000
14.12000 206.000
14.13500 203.000
14.15000 194.000
14.16500 212.000
14.18000 209.000
14.19500 209.000
14.21000 207.000
14.22500 194.000
14.24000 198.000
14.25500 199.000
14.27000 208.000
14.28500 220.000
14.30000 189.000
14.31500 208.000
14.33000 196.000
14.34500 211.000
14.36000 198.000
14.37500 193.000
14.39000 196.000
14.40500 199.000
14.42000 200.000
14.43500 191.000
14.45000 207.000
14.46500 215.000
14.48000 197.000
14.49500 205.000
14.51000 216.000
14.52500 200.000
14.54000 195.000
14.55500 179.000
14.57000 204.000
14.58500 197.000
14.60000 183.000
14.61500 197.000
14.63000 209.000
14.64500 194.000
14.66000 185.000
14.67500 193.000
14.69000 187.000
14.70500 192.000
14.72000 191.000
14.73500 198.000
14.75000 212.000
14.76500 207.000
14.78000 202.000
14.79500 216.000
14.81000 191.000
14.82500 201.000
14.84000 187.000
14.85500 173.000
14.87000 173.000
14.88500 179.000
14.90000 208.000
14.91500 185.000
14.93000 184.000
14.94500 191.000
14.96000 196.000
14.97500 201.000
14.99000 174.000
15.00500 187.000
15.02000 185.000
15.03500 195.000
15.05000 195.000
15.06500 182.000
15.08000 178.000
15.09500 180.000
15.11000 185.000
15.12500 181.000
15.14000 187.000
15.15500 179.000
15.17000 201.000
15.18500 201.000
15.20000 187.000
15.21500 206.000
15.23000 190.000
15.24500 195.000
15.26000 188.000
15.27500 189.000
15.29000 191.000
15.30500 206.000
15.32000 195.000
15.33500 212.000
15.35000 201.000
15.36500 183.000
15.38000 174.000
15.39500 189.000
15.41000 193.000
15.42500 192.000
15.44000 199.000
15.45500 186.000
15.47000 197.000
15.48500 196.000
15.50000 184.000
15.51500 199.000
15.53000 222.000
15.54500 199.000
15.56000 184.000
15.57500 181.000
15.59000 164.000
15.60500 192.000
15.62000 188.000
15.63500 198.000
15.65000 177.000
15.66500 190.000
15.68000 179.000
15.69500 183.000
15.71000 191.000
15.72500 181.000
15.74000 183.000
15.75500 196.000
15.77000 186.000
15.78500 194.000
15.80000 182.000
15.81500 211.000
15.83000 191.000
15.84500 191.000
15.86000 198.000
15.87500 186.000
15.89000 207.000
15.90500 199.000
15.92000 184.000
15.93500 189.000
15.95000 187.000
15.96500 168.000
15.98000 190.000
15.99500 188.000
16.01000 203.000
16.02500 191.000
16.04000 199.000
16.05500 185.000
16.07000 179.000
16.08500 198.000
16.10000 181.000
16.11500 187.000
16.13000 165.000
16.14500 175.000
16.16000 186.000
16.17500 227.000
16.19000 194.000
16.20500 195.000
16.22000 226.000
16.23500 192.000
16.25000 194.000
16.26500 175.000
16.28000 203.000
16.29500 202.000
16.31000 182.000
16.32500 191.000
16.34000 205.000
16.35500 203.000
16.37000 184.000
16.38500 197.000
16.40000 189.000
16.41500 189.000
16.43000 189.000
16.44500 208.000
16.46000 189.000
16.47500 179.000
16.49000 178.000
16.50500 182.000
16.52000 193.000
16.53500 192.000
16.55000 174.000
16.56500 175.000
16.58000 201.000
16.59500 187.000
16.61000 173.000
16.62500 190.000
16.64000 174.000
16.65500 186.000
16.67000 203.000
16.68500 175.000
16.70000 190.000
16.71500 189.000
16.73000 175.000
16.74500 195.000
16.76000 211.000
16.77500 192.000
16.79000 200.000
16.80500 178.000
16.82000 206.000
16.83500 182.000
16.85000 207.000
16.86500 177.000
16.88000 198.000
16.89500 170.000
16.91000 176.000
16.92500 181.000
16.94000 206.000
16.95500 196.000
16.97000 187.000
16.98500 190.000
17.00000 195.000
17.01500 182.000
17.03000 178.000
17.04500 178.000
17.06000 187.000
17.07500 180.000
17.09000 188.000
17.10500 174.000
17.12000 184.000
17.13500 207.000
17.15000 184.000
17.16500 196.000
17.18000 180.000
17.19500 204.000
17.21000 193.000
17.22500 207.000
17.24000 178.000
17.25500 197.000
17.27000 177.000
17.28500 207.000
17.30000 214.000
17.31500 226.000
17.33000 203.000
17.34500 188.000
17.36000 161.000
17.37500 183.000
17.39000 201.000
17.40500 206.000
17.42000 217.000
17.43500 186.000
17.45000 192.000
17.46500 212.000
17.48000 194.000
17.49500 184.000
17.51000 178.000
17.52500 209.000
17.54000 203.000
17.55500 198.000
17.57000 183.000
17.58500 177.000
17.60000 195.000
17.61500 187.000
17.63000 180.000
17.64500 201.000
17.66000 203.000
17.67500 188.000
17.69000 184.000
17.70500 189.000
17.72000 194.000
17.73500 195.000
17.75000 188.000
17.76500 197.000
17.78000 182.000
17.79500 189.000
17.81000 197.000
17.82500 184.000
17.84000 206.000
17.85500 207.000
17.87000 188.000
17.88500 197.000
17.90000 194.000
17.91500 166.000
17.93000 198.000
17.94500 195.000
17.96000 196.000
17.97500 191.000
17.99000 194.000
18.00500 177.000
18.02000 185.000
18.03500 200.000
18.05000 197.000
18.06500 203.000
18.08000 197.000
18.09500 204.000
18.11000 189.000
18.12500 189.000
18.14000 187.000
18.15500 195.000
18.17000 216.000
18.18500 218.000
18.20000 189.000
18.21500 184.000
18.23000 200.000
18.24500 202.000
18.26000 191.000
18.27500 187.000
18.29000 202.000
18.30500 213.000
18.32000 201.000
18.33500 194.000
18.35000 211.000
18.36500 231.000
18.38000 226.000
18.39500 183.000
18.41000 203.000
18.42500 215.000
18.44000 220.000
18.45500 202.000
18.47000 202.000
18.48500 195.000
18.50000 209.000
18.51500 227.000
18.53000 203.000
18.54500 209.000
18.56000 219.000
18.57500 213.000
18.59000 217.000
18.60500 196.000
18.62000 197.000
18.63500 223.000
18.65000 227.000
18.66500 232.000
18.68000 224.000
18.69500 229.000
18.71000 231.000
18.72500 202.000
18.74000 196.000
18.75500 229.000
18.77000 222.000
18.78500 208.000
18.80000 213.000
18.81500 211.000
18.83000 204.000
18.84500 201.000
18.86000 198.000
18.87500 208.000
18.89000 207.000
18.90500 202.000
18.92000 209.000
18.93500 227.000
18.95000 198.000
18.96500 195.000
18.98000 201.000
18.99500 196.000
19.01000 193.000
19.02500 206.000
19.04000 186.000
19.05500 207.000
19.07000 219.000
19.08500 230.000
19.10000 197.000
19.11500 207.000
19.13000 204.000
19.14500 205.000
19.16000 183.000
19.17500 208.000
19.19000 207.000
19.20500 208.000
19.22000 193.000
19.23500 209.000
19.25000 188.000
19.26500 180.000
19.28000 204.000
19.29500 205.000
19.31000 204.000
19.32500 213.000
19.34000 202.000
19.35500 211.000
19.37000 192.000
19.38500 202.000
19.40000 204.000
19.41500 229.000
19.43000 231.000
19.44500 204.000
19.46000 227.000
19.47500 212.000
19.49000 216.000
19.50500 207.000
19.52000 221.000
19.53500 217.000
19.55000 202.000
19.56500 205.000
19.58000 218.000
19.59500 222.000
19.61000 215.000
19.62500 202.000
19.64000 208.000
19.65500 224.000
19.67000 222.000
19.68500 223.000
19.70000 214.000
19.71500 217.000
19.73000 218.000
19.74500 220.000
19.76000 221.000
19.77500 238.000
19.79000 216.000
19.80500 209.000
19.82000 222.000
19.83500 223.000
19.85000 220.000
19.86500 205.000
19.88000 195.000
19.89500 229.000
19.91000 200.000
19.92500 204.000
19.94000 225.000
19.95500 227.000
19.97000 217.000
19.98500 226.000
20.00000 200.000
20.01500 216.000
20.03000 195.000
20.04500 210.000
20.06000 227.000
20.07500 221.000
20.09000 229.000
20.10500 215.000
20.12000 198.000
20.13500 222.000
20.15000 207.000
20.16500 203.000
20.18000 217.000
20.19500 224.000
20.21000 220.000
20.22500 215.000
20.24000 204.000
20.25500 222.000
20.27000 209.000
20.28500 217.000
20.30000 207.000
20.31500 227.000
20.33000 225.000
20.34500 212.000
20.36000 223.000
20.37500 211.000
20.39000 214.000
20.40500 211.000
20.42000 192.000
20.43500 238.000
20.45000 217.000
20.46500 204.000
20.48000 198.000
20.49500 216.000
20.51000 207.000
20.52500 199.000
20.54000 221.000
20.55500 224.000
20.57000 203.000
20.58500 219.000
20.60000 210.000
20.61500 205.000
20.63000 186.000
20.64500 202.000
20.66000 209.000
20.67500 201.000
20.69000 200.000
20.70500 207.000
20.72000 224.000
20.73500 203.000
20.75000 194.000
20.76500 223.000
20.78000 222.000
20.79500 201.000
20.81000 201.000
20.82500 223.000
20.84000 206.000
20.85500 187.000
20.87000 210.000
20.88500 202.000
20.90000 200.000
20.91500 203.000
20.93000 188.000
20.94500 194.000
20.96000 214.000
20.97500 212.000
20.99000 217.000
21.00500 197.000
21.02000 204.000
21.03500 221.000
21.05000 210.000
21.06500 219.000
21.08000 215.000
21.09500 201.000
21.11000 181.000
21.12500 216.000
21.14000 206.000
21.15500 210.000
21.17000 212.000
21.18500 212.000
21.20000 217.000
21.21500 218.000
21.23000 201.000
21.24500 228.000
21.26000 206.000
21.27500 199.000
21.29000 191.000
21.30500 181.000
21.32000 210.000
21.33500 207.000
21.35000 214.000
21.36500 190.000
21.38000 200.000
21.39500 194.000
21.41000 181.000
21.42500 183.000
21.44000 194.000
21.45500 204.000
21.47000 191.000
21.48500 202.000
21.50000 211.000
21.51500 192.000
21.53000 198.000
21.54500 215.000
21.56000 207.000
21.57500 203.000
21.59000 210.000
21.60500 211.000
21.62000 206.000
21.63500 212.000
21.65000 225.000
21.66500 220.000
21.68000 204.000
21.69500 217.000
21.71000 224.000
21.72500 214.000
21.74000 177.000
21.75500 207.000
21.77000 186.000
21.78500 195.000
21.80000 212.000
21.81500 215.000
21.83000 218.000
21.84500 196.000
21.86000 188.000
21.87500 196.000
21.89000 219.000
21.90500 209.000
21.92000 206.000
21.93500 212.000
21.95000 192.000
21.96500 191.000
21.98000 188.000
21.99500 214.000
22.01000 216.000
22.02500 209.000
22.04000 222.000
22.05500 234.000
22.07000 218.000
22.08500 238.000
22.10000 215.000
22.11500 199.000
22.13000 213.000
22.14500 226.000
22.16000 234.000
22.17500 215.000
22.19000 218.000
22.20500 235.000
22.22000 222.000
22.23500 212.000
22.25000 218.000
22.26500 208.000
22.28000 226.000
22.29500 217.000
22.31000 203.000
22.32500 221.000
22.34000 210.000
22.35500 217.000
22.37000 202.000
22.38500 191.000
22.40000 204.000
22.41500 203.000
22.43000 195.000
22.44500 205.000
22.46000 230.000
22.47500 213.000
22.49000 202.000
22.50500 215.000
22.52000 196.000
22.53500 192.000
22.55000 191.000
22.56500 217.000
22.58000 218.000
22.59500 221.000
22.61000 237.000
22.62500 221.000
22.64000 220.000
22.65500 203.000
22.67000 207.000
22.68500 213.000
22.70000 197.000
22.71500 213.000
22.73000 205.000
22.74500 213.000
22.76000 210.000
22.77500 230.000
22.79000 230.000
22.80500 225.000
22.82000 221.000
22.83500 243.000
22.85000 226.000
22.86500 202.000
22.88000 226.000
22.89500 238.000
22.91000 238.000
22.92500 229.000
22.94000 242.000
22.95500 240.000
22.97000 249.000
22.98500 262.000
23.00000 231.000
23.01500 237.000
23.03000 226.000
23.04500 247.000
23.06000 224.000
23.07500 244.000
23.09000 236.000
23.10500 241.000
23.12000 250.000
23.13500 229.000
23.15000 239.000
23.16500 253.000
23.18000 269.000
23.19500 255.000
23.21000 235.000
23.22500 245.000
23.24000 272.000
23.25500 254.000
23.27000 241.000
23.28500 219.000
23.30000 247.000
23.31500 228.000
23.33000 239.000
23.34500 239.000
23.36000 253.000
23.37500 246.000
23.39000 246.000
23.40500 251.000
23.42000 234.000
23.43500 246.000
23.45000 246.000
23.46500 250.000
23.48000 235.000
23.49500 227.000
23.51000 253.000
23.52500 238.000
23.54000 241.000
23.55500 238.000
23.57000 233.000
23.58500 242.000
23.60000 247.000
23.61500 243.000
23.63000 233.000
23.64500 230.000
23.66000 248.000
23.67500 240.000
23.69000 260.000
23.70500 233.000
23.72000 245.000
23.73500 246.000
23.75000 259.000
23.76500 275.000
23.78000 247.000
23.79500 247.000
23.81000 250.000
23.82500 243.000
23.84000 232.000
23.85500 239.000
23.87000 238.000
23.88500 273.000
23.90000 248.000
23.91500 241.000
23.93000 263.000
23.94500 245.000
23.96000 255.000
23.97500 264.000
23.99000 264.000
24.00500 255.000
24.02000 262.000
24.03500 248.000
24.05000 259.000
24.06500 247.000
24.08000 254.000
24.09500 273.000
24.11000 272.000
24.12500 242.000
24.14000 220.000
24.15500 252.000
24.17000 275.000
24.18500 254.000
24.20000 274.000
24.21500 295.000
24.23000 242.000
24.24500 234.000
24.26000 276.000
24.27500 243.000
24.29000 255.000
24.30500 262.000
24.32000 266.000
24.33500 263.000
24.35000 255.000
24.36500 235.000
24.38000 268.000
24.39500 257.000
24.41000 244.000
24.42500 245.000
24.44000 256.000
24.45500 270.000
24.47000 270.000
24.48500 271.000
24.50000 278.000
24.51500 271.000
24.53000 301.000
24.54500 281.000
24.56000 276.000
24.57500 254.000
24.59000 278.000
24.60500 294.000
24.62000 286.000
24.63500 291.000
24.65000 272.000
24.66500 269.000
24.68000 262.000
24.69500 292.000
24.71000 285.000
24.72500 297.000
24.74000 293.000
24.75500 322.000
24.77000 294.000
24.78500 307.000
24.80000 303.000
24.81500 324.000
24.83000 291.000
24.84500 318.000
24.86000 322.000
24.87500 325.000
24.89000 308.000
24.90500 319.000
24.92000 366.000
24.93500 344.000
24.95000 356.000
24.96500 372.000
24.98000 369.000
24.99500 414.000
25.01000 371.000
25.02500 391.000
25.04000 387.000
25.05500 384.000
25.07000 389.000
25.08500 428.000
25.10000 417.000
25.11500 381.000
25.13000 394.000
25.14500 432.000
25.16000 389.000
25.17500 422.000
25.19000 416.000
25.20500 408.000
25.22000 417.000
25.23500 418.000
25.25000 452.000
25.26500 445.000
25.28000 493.000
25.29500 508.000
25.31000 484.000
25.32500 543.000
25.34000 549.000
25.35500 510.000
25.37000 545.000
25.38500 578.000
25.40000 598.000
25.41500 595.000
25.43000 588.000
25.44500 620.000
25.46000 643.000
25.47500 665.000
25.49000 695.000
25.50500 705.000
25.52000 725.000
25.53500 736.000
25.55000 752.000
25.56500 731.000
25.58000 722.000
25.59500 692.000
25.61000 720.000
25.62500 718.000
25.64000 699.000
25.65500 682.000
25.67000 633.000
25.68500 605.000
25.70000 595.000
25.71500 577.000
25.73000 583.000
25.74500 551.000
25.76000 521.000
25.77500 512.000
25.79000 520.000
25.80500 479.000
25.82000 490.000
25.83500 471.000
25.85000 452.000
25.86500 447.000
25.88000 432.000
25.89500 434.000
25.91000 455.000
25.92500 453.000
25.94000 443.000
25.95500 404.000
25.97000 421.000
25.98500 397.000
26.00000 402.000
26.01500 377.000
26.03000 378.000
26.04500 397.000
26.06000 395.000
26.07500 372.000
26.09000 350.000
26.10500 360.000
26.12000 347.000
26.13500 351.000
26.15000 369.000
26.16500 377.000
26.18000 372.000
26.19500 357.000
26.21000 343.000
26.22500 366.000
26.24000 349.000
26.25500 351.000
26.27000 365.000
26.28500 341.000
26.30000 347.000
26.31500 347.000
26.33000 357.000
26.34500 380.000
26.36000 391.000
26.37500 336.000
26.39000 355.000
26.40500 348.000
26.42000 352.000
26.43500 359.000
26.45000 363.000
26.46500 366.000
26.48000 367.000
26.49500 372.000
26.51000 385.000
26.52500 399.000
26.54000 411.000
26.55500 369.000
26.57000 378.000
26.58500 405.000
26.60000 378.000
26.61500 371.000
26.63000 395.000
26.64500 394.000
26.66000 366.000
26.67500 430.000
26.69000 389.000
26.70500 353.000
26.72000 392.000
26.73500 396.000
26.75000 385.000
26.76500 399.000
26.78000 387.000
26.79500 391.000
26.81000 400.000
26.82500 419.000
26.84000 432.000
26.85500 391.000
26.87000 440.000
26.88500 444.000
26.90000 440.000
26.91500 460.000
26.93000 437.000
26.94500 461.000
26.96000 494.000
26.97500 469.000
26.99000 486.000
27.00500 484.000
27.02000 522.000
27.03500 535.000
27.05000 539.000
27.06500 544.000
27.08000 598.000
27.09500 623.000
27.11000 652.000
27.12500 638.000
27.14000 601.000
27.15500 651.000
27.17000 641.000
27.18500 628.000
27.20000 630.000
27.21500 669.000
27.23000 682.000
27.24500 681.000
27.26000 644.000
27.27500 636.000
27.29000 673.000
27.30500 687.000
27.32000 661.000
27.33500 704.000
27.35000 719.000
27.36500 716.000
27.38000 729.000
27.39500 791.000
27.41000 785.000
27.42500 763.000
27.44000 811.000
27.45500 817.000
27.47000 805.000
27.48500 796.000
27.50000 759.000
27.51500 775.000
27.53000 788.000
27.54500 762.000
27.56000 747.000
27.57500 711.000
27.59000 685.000
27.60500 660.000
27.62000 618.000
27.63500 594.000
27.65000 638.000
27.66500 574.000
27.68000 509.000
27.69500 494.000
27.71000 525.000
27.72500 458.000
27.74000 438.000
27.75500 428.000
27.77000 416.000
27.78500 375.000
27.80000 379.000
27.81500 390.000
27.83000 335.000
27.84500 361.000
27.86000 366.000
27.87500 327.000
27.89000 327.000
27.90500 337.000
27.92000 300.000
27.93500 295.000
27.95000 310.000
27.96500 323.000
27.98000 289.000
27.99500 283.000
28.01000 269.000
28.02500 293.000
28.04000 258.000
28.05500 281.000
28.07000 297.000
28.08500 287.000
28.10000 253.000
28.11500 268.000
28.13000 261.000
28.14500 290.000
28.16000 268.000
28.17500 267.000
28.19000 286.000
28.20500 279.000
28.22000 257.000
28.23500 266.000
28.25000 232.000
28.26500 224.000
28.28000 249.000
28.29500 229.000
28.31000 263.000
28.32500 242.000
28.34000 247.000
28.35500 224.000
28.37000 238.000
28.38500 252.000
28.40000 216.000
28.41500 218.000
28.43000 250.000
28.44500 228.000
28.46000 227.000
28.47500 228.000
28.49000 238.000
28.50500 218.000
28.52000 203.000
28.53500 213.000
28.55000 196.000
28.56500 237.000
28.58000 214.000
28.59500 218.000
28.61000 203.000
28.62500 223.000
28.64000 242.000
28.65500 221.000
28.67000 221.000
28.68500 222.000
28.70000 202.000
28.71500 217.000
28.73000 210.000
28.74500 204.000
28.76000 208.000
28.77500 212.000
28.79000 192.000
28.80500 197.000
28.82000 210.000
28.83500 227.000
28.85000 214.000
28.86500 195.000
28.88000 205.000
28.89500 192.000
28.91000 206.000
28.92500 204.000
28.94000 195.000
28.95500 196.000
28.97000 186.000
28.98500 206.000
29.00000 197.000
29.01500 194.000
29.03000 180.000
29.04500 214.000
29.06000 201.000
29.07500 215.000
29.09000 198.000
29.10500 187.000
29.12000 209.000
29.13500 215.000
29.15000 201.000
29.16500 196.000
29.18000 197.000
29.19500 213.000
29.21000 211.000
29.22500 224.000
29.24000 197.000
29.25500 213.000
29.27000 189.000
29.28500 207.000
29.30000 204.000
29.31500 200.000
29.33000 200.000
29.34500 217.000
29.36000 209.000
29.37500 200.000
29.39000 206.000
29.40500 206.000
29.42000 203.000
29.43500 219.000
29.45000 203.000
29.46500 202.000
29.48000 194.000
29.49500 190.000
29.51000 196.000
29.52500 204.000
29.54000 226.000
29.55500 208.000
29.57000 214.000
29.58500 221.000
29.60000 207.000
29.61500 198.000
29.63000 194.000
29.64500 215.000
29.66000 218.000
29.67500 217.000
29.69000 211.000
29.70500 197.000
29.72000 182.000
29.73500 201.000
29.75000 215.000
29.76500 206.000
29.78000 205.000
29.79500 220.000
29.81000 224.000
29.82500 202.000
29.84000 221.000
29.85500 234.000
29.87000 217.000
29.88500 182.000
29.90000 199.000
29.91500 200.000
29.93000 200.000
29.94500 193.000
29.96000 211.000
29.97500 197.000
29.99000 197.000
30.00500 208.000
30.02000 215.000
30.03500 219.000
30.05000 212.000
30.06500 210.000
30.08000 230.000
30.09500 241.000
30.11000 232.000
30.12500 217.000
30.14000 234.000
30.15500 248.000
30.17000 236.000
30.18500 243.000
30.20000 254.000
30.21500 260.000
30.23000 253.000
30.24500 241.000
30.26000 254.000
30.27500 258.000
30.29000 251.000
30.30500 279.000
30.32000 269.000
30.33500 267.000
30.35000 260.000
30.36500 278.000
30.38000 271.000
30.39500 279.000
30.41000 286.000
30.42500 283.000
30.44000 281.000
30.45500 266.000
30.47000 265.000
30.48500 273.000
30.50000 253.000
30.51500 243.000
30.53000 236.000
30.54500 240.000
30.56000 237.000
30.57500 246.000
30.59000 241.000
30.60500 237.000
30.62000 231.000
30.63500 228.000
30.65000 227.000
30.66500 231.000
30.68000 221.000
30.69500 225.000
30.71000 206.000
30.72500 212.000
30.74000 216.000
30.75500 206.000
30.77000 218.000
30.78500 196.000
30.80000 197.000
30.81500 193.000
30.83000 208.000
30.84500 180.000
30.86000 192.000
30.87500 203.000
30.89000 195.000
30.90500 209.000
30.92000 224.000
30.93500 193.000
30.95000 192.000
30.96500 219.000
30.98000 195.000
30.99500 168.000
31.01000 195.000
31.02500 182.000
31.04000 174.000
31.05500 186.000
31.07000 199.000
31.08500 196.000
31.10000 193.000
31.11500 184.000
31.13000 187.000
31.14500 185.000
31.16000 185.000
31.17500 208.000
31.19000 184.000
31.20500 172.000
31.22000 162.000
31.23500 167.000
31.25000 191.000
31.26500 178.000
31.28000 177.000
31.29500 193.000
31.31000 169.000
31.32500 163.000
31.34000 180.000
31.35500 179.000
31.37000 161.000
31.38500 153.000
31.40000 177.000
31.41500 164.000
31.43000 194.000
31.44500 157.000
31.46000 150.000
31.47500 177.000
31.49000 193.000
31.50500 158.000
31.52000 148.000
31.53500 146.000
31.55000 158.000
31.56500 152.000
31.58000 158.000
31.59500 169.000
31.61000 162.000
31.62500 171.000
31.64000 166.000
31.65500 168.000
31.67000 172.000
31.68500 170.000
31.70000 161.000
31.71500 145.000
31.73000 161.000
31.74500 160.000
31.76000 163.000
31.77500 167.000
31.79000 173.000
31.80500 163.000
31.82000 154.000
31.83500 151.000
31.85000 173.000
31.86500 163.000
31.88000 163.000
31.89500 144.000
31.91000 159.000
31.92500 142.000
31.94000 133.000
31.95500 148.000
31.97000 154.000
31.98500 153.000
32.00000 171.000
32.01500 173.000
32.03000 136.000
32.04500 152.000
32.06000 161.000
32.07500 144.000
32.09000 166.000
32.10500 161.000
32.12000 165.000
32.13500 161.000
32.15000 160.000
32.16500 161.000
32.18000 146.000
32.19500 167.000
32.21000 166.000
32.22500 154.000
32.24000 171.000
32.25500 157.000
32.27000 154.000
32.28500 143.000
32.30000 137.000
32.31500 149.000
32.33000 146.000
32.34500 189.000
32.36000 155.000
32.37500 154.000
32.39000 148.000
32.40500 140.000
32.42000 171.000
32.43500 140.000
32.45000 165.000
32.46500 163.000
32.48000 173.000
32.49500 163.000
32.51000 151.000
32.52500 145.000
32.54000 144.000
32.55500 178.000
32.57000 177.000
32.58500 173.000
32.60000 161.000
32.61500 156.000
32.63000 147.000
32.64500 141.000
32.66000 136.000
32.67500 164.000
32.69000 165.000
32.70500 161.000
32.72000 141.000
32.73500 166.000
32.75000 152.000
32.76500 160.000
32.78000 138.000
32.79500 140.000
32.81000 149.000
32.82500 151.000
32.84000 141.000
32.85500 151.000
32.87000 154.000
32.88500 160.000
32.90000 154.000
32.91500 166.000
32.93000 158.000
32.94500 134.000
32.96000 146.000
32.97500 157.000
32.99000 168.000
33.00500 145.000
33.02000 140.000
33.03500 152.000
33.05000 161.000
33.06500 165.000
33.08000 149.000
33.09500 141.000
33.11000 149.000
33.12500 143.000
33.14000 141.000
33.15500 137.000
33.17000 147.000
33.18500 144.000
33.20000 163.000
33.21500 148.000
33.23000 161.000
33.24500 152.000
33.26000 160.000
33.27500 153.000
33.29000 141.000
33.30500 129.000
33.32000 139.000
33.33500 156.000
33.35000 142.000
33.36500 148.000
33.38000 138.000
33.39500 156.000
33.41000 163.000
33.42500 153.000
33.44000 144.000
33.45500 146.000
33.47000 136.000
33.48500 156.000
33.50000 148.000
33.51500 137.000
33.53000 135.000
33.54500 142.000
33.56000 143.000
33.57500 149.000
33.59000 132.000
33.60500 135.000
33.62000 156.000
33.63500 142.000
33.65000 157.000
33.66500 141.000
33.68000 141.000
33.69500 156.000
33.71000 143.000
33.72500 142.000
33.74000 153.000
33.75500 160.000
33.77000 138.000
33.78500 133.000
33.80000 146.000
33.81500 124.000
33.83000 141.000
33.84500 148.000
33.86000 142.000
33.87500 139.000
33.89000 141.000
33.90500 137.000
33.92000 160.000
33.93500 136.000
33.95000 135.000
33.96500 144.000
33.98000 137.000
33.99500 143.000
34.01000 138.000
34.02500 142.000
34.04000 123.000
34.05500 136.000
34.07000 121.000
34.08500 131.000
34.10000 145.000
34.11500 142.000
34.13000 132.000
34.14500 155.000
34.16000 151.000
34.17500 128.000
34.19000 132.000
34.20500 131.000
34.22000 138.000
34.23500 136.000
34.25000 142.000
34.26500 143.000
34.28000 121.000
34.29500 122.000
34.31000 135.000
34.32500 132.000
34.34000 142.000
34.35500 147.000
34.37000 147.000
34.38500 144.000
34.40000 125.000
34.41500 150.000
34.43000 154.000
34.44500 145.000
34.46000 143.000
34.47500 132.000
34.49000 132.000
34.50500 131.000
34.52000 142.000
34.53500 145.000
34.55000 150.000
34.56500 141.000
34.58000 152.000
34.59500 133.000
34.61000 128.000
34.62500 119.000
34.64000 148.000
34.65500 152.000
34.67000 154.000
34.68500 144.000
34.70000 133.000
34.71500 151.000
34.73000 138.000
34.74500 140.000
34.76000 148.000
34.77500 160.000
34.79000 145.000
34.80500 118.000
34.82000 135.000
34.83500 151.000
34.85000 139.000
34.86500 122.000
34.88000 145.000
34.89500 133.000
34.91000 130.000
34.92500 131.000
34.94000 143.000
34.95500 144.000
34.97000 134.000
34.98500 130.000
35.00000 122.000
35.01500 136.000
35.03000 120.000
35.04500 122.000
35.06000 138.000
35.07500 139.000
35.09000 128.000
35.10500 118.000
35.12000 117.000
35.13500 120.000
35.15000 108.000
35.16500 158.000
35.18000 143.000
35.19500 136.000
35.21000 124.000
35.22500 125.000
35.24000 127.000
35.25500 126.000
35.27000 126.000
35.28500 131.000
35.30000 142.000
35.31500 127.000
35.33000 120.000
35.34500 140.000
35.36000 147.000
35.37500 136.000
35.39000 118.000
35.40500 124.000
35.42000 119.000
35.43500 123.000
35.45000 113.000
35.46500 109.000
35.48000 136.000
35.49500 127.000
35.51000 129.000
35.52500 143.000
35.54000 129.000
35.55500 123.000
35.57000 119.000
35.58500 112.000
35.60000 120.000
35.61500 132.000
35.63000 111.000
35.64500 130.000
35.66000 117.000
35.67500 117.000
35.69000 127.000
35.70500 119.000
35.72000 124.000
35.73500 104.000
35.75000 115.000
35.76500 124.000
35.78000 132.000
35.79500 127.000
35.81000 118.000
35.82500 120.000
35.84000 130.000
35.85500 139.000
35.87000 129.000
35.88500 123.000
35.90000 129.000
35.91500 108.000
35.93000 133.000
35.94500 133.000
35.96000 130.000
35.97500 112.000
35.99000 127.000
36.00500 132.000
36.02000 122.000
36.03500 133.000
36.05000 119.000
36.06500 119.000
36.08000 121.000
36.09500 139.000
36.11000 106.000
36.12500 120.000
36.14000 114.000
36.15500 105.000
36.17000 115.000
36.18500 120.000
36.20000 117.000
36.21500 115.000
36.23000 109.000
36.24500 118.000
36.26000 112.000
36.27500 110.000
36.29000 117.000
36.30500 131.000
36.32000 131.000
36.33500 121.000
36.35000 113.000
36.36500 110.000
36.38000 133.000
36.39500 134.000
36.41000 111.000
36.42500 110.000
36.44000 117.000
36.45500 111.000
36.47000 121.000
36.48500 106.000
36.50000 104.000
36.51500 98.000
36.53000 103.000
36.54500 103.000
36.56000 107.000
36.57500 111.000
36.59000 114.000
36.60500 116.000
36.62000 119.000
36.63500 117.000
36.65000 99.000
36.66500 112.000
36.68000 115.000
36.69500 99.000
36.71000 113.000
36.72500 119.000
36.74000 114.000
36.75500 118.000
36.77000 105.000
36.78500 105.000
36.80000 123.000
36.81500 124.000
36.83000 100.000
36.84500 107.000
36.86000 105.000
36.87500 108.000
36.89000 109.000
36.90500 118.000
36.92000 103.000
36.93500 115.000
36.95000 115.000
36.96500 107.000
36.98000 109.000
36.99500 81.000
37.01000 90.000
37.02500 93.000
37.04000 109.000
37.05500 118.000
37.07000 106.000
37.08500 110.000
37.10000 102.000
37.11500 103.000
37.13000 114.000
37.14500 108.000
37.16000 114.000
37.17500 127.000
37.19000 104.000
37.20500 90.000
37.22000 108.000
37.23500 114.000
37.25000 131.000
37.26500 108.000
37.28000 112.000
37.29500 108.000
37.31000 110.000
37.32500 108.000
37.34000 107.000
37.35500 97.000
37.37000 102.000
37.38500 119.000
37.40000 130.000
37.41500 119.000
37.43000 128.000
37.44500 96.000
37.46000 99.000
37.47500 104.000
37.49000 117.000
37.50500 102.000
37.52000 102.000
37.53500 108.000
37.55000 92.000
37.56500 112.000
37.58000 103.000
37.59500 118.000
37.61000 116.000
37.62500 116.000
37.64000 118.000
37.65500 114.000
37.67000 100.000
37.68500 101.000
37.70000 103.000
37.71500 94.000
37.73000 105.000
37.74500 101.000
37.76000 101.000
37.77500 104.000
37.79000 109.000
37.80500 115.000
37.82000 126.000
37.83500 122.000
37.85000 119.000
37.86500 106.000
37.88000 115.000
37.89500 107.000
37.91000 108.000
37.92500 108.000
37.94000 102.000
37.95500 126.000
37.97000 115.000
37.98500 102.000
38.00000 99.000
38.01500 101.000
38.03000 103.000
38.04500 101.000
38.06000 115.000
38.07500 98.000
38.09000 99.000
38.10500 99.000
38.12000 116.000
38.13500 113.000
38.15000 112.000
38.16500 119.000
38.18000 100.000
38.19500 87.000
38.21000 100.000
38.22500 105.000
38.24000 109.000
38.25500 109.000
38.27000 96.000
38.28500 96.000
38.30000 100.000
38.31500 110.000
38.33000 106.000
38.34500 102.000
38.36000 120.000
38.37500 130.000
38.39000 105.000
38.40500 107.000
38.42000 107.000
38.43500 103.000
38.45000 107.000
38.46500 102.000
38.48000 116.000
38.49500 116.000
38.51000 100.000
38.52500 99.000
38.54000 96.000
38.55500 108.000
38.57000 110.000
38.58500 120.000
38.60000 109.000
38.61500 105.000
38.63000 119.000
38.64500 101.000
38.66000 114.000
38.67500 118.000
38.69000 111.000
38.70500 107.000
38.72000 102.000
38.73500 115.000
38.75000 114.000
38.76500 110.000
38.78000 100.000
38.79500 116.000
38.81000 127.000
38.82500 110.000
38.84000 103.000
38.85500 107.000
38.87000 115.000
38.88500 113.000
38.90000 109.000
38.91500 100.000
38.93000 108.000
38.94500 111.000
38.96000 113.000
38.97500 104.000
38.99000 97.000
39.00500 111.000
39.02000 108.000
39.03500 112.000
39.05000 116.000
39.06500 117.000
39.08000 105.000
39.09500 107.000
39.11000 103.000
39.12500 110.000
39.14000 108.000
39.15500 99.000
39.17000 100.000
39.18500 114.000
39.20000 123.000
39.21500 105.000
39.23000 106.000
39.24500 103.000
39.26000 116.000
39.27500 114.000
39.29000 105.000
39.30500 114.000
39.32000 116.000
39.33500 118.000
39.35000 107.000
39.36500 108.000
39.38000 94.000
39.39500 93.000
39.41000 106.000
39.42500 118.000
39.44000 125.000
39.45500 120.000
39.47000 111.000
39.48500 115.000
39.50000 98.000
39.51500 119.000
39.53000 111.000
39.54500 100.000
39.56000 108.000
39.57500 105.000
39.59000 101.000
39.60500 92.000
39.62000 122.000
39.63500 122.000
39.65000 118.000
39.66500 119.000
39.68000 126.000
39.69500 127.000
39.71000 116.000
39.72500 123.000
39.74000 110.000
39.75500 93.000
39.77000 107.000
39.78500 117.000
39.80000 106.000
39.81500 104.000
39.83000 119.000
39.84500 108.000
39.86000 113.000
39.87500 98.000
39.89000 102.000
39.90500 115.000
39.92000 117.000
39.93500 122.000
39.95000 128.000
39.96500 120.000
39.98000 114.000
39.99500 117.000
40.01000 125.000
40.02500 130.000
40.04000 125.000
40.05500 129.000
40.07000 129.000
40.08500 131.000
40.10000 123.000
40.11500 126.000
40.13000 120.000
40.14500 129.000
40.16000 131.000
40.17500 134.000
40.19000 126.000
40.20500 136.000
40.22000 135.000
40.23500 122.000
40.25000 134.000
40.26500 119.000
40.28000 127.000
40.29500 122.000
40.31000 119.000
40.32500 110.000
40.34000 124.000
40.35500 123.000
40.37000 133.000
40.38500 123.000
40.40000 114.000
40.41500 122.000
40.43000 123.000
40.44500 122.000
40.46000 105.000
40.47500 131.000
40.49000 121.000
40.50500 116.000
40.52000 119.000
40.53500 125.000
40.55000 128.000
40.56500 127.000
40.58000 116.000
40.59500 114.000
40.61000 113.000
40.62500 114.000
40.64000 123.000
40.65500 121.000
40.67000 108.000
40.68500 128.000
40.70000 134.000
40.71500 116.000
40.73000 111.000
40.74500 110.000
40.76000 117.000
40.77500 120.000
40.79000 131.000
40.80500 132.000
40.82000 114.000
40.83500 119.000
40.85000 129.000
40.86500 119.000
40.88000 120.000
40.89500 118.000
40.91000 126.000
40.92500 123.000
40.94000 113.000
40.95500 116.000
40.97000 118.000
40.98500 124.000
41.00000 137.000
41.01500 126.000
41.03000 125.000
41.04500 132.000
41.06000 113.000
41.07500 123.000
41.09000 120.000
41.10500 131.000
41.12000 128.000
41.13500 128.000
41.15000 117.000
41.16500 134.000
41.18000 122.000
41.19500 104.000
41.21000 109.000
41.22500 109.000
41.24000 108.000
41.25500 130.000
41.27000 125.000
41.28500 108.000
41.30000 115.000
41.31500 112.000
41.33000 122.000
41.34500 118.000
41.36000 110.000
41.37500 102.000
41.39000 119.000
41.40500 114.000
41.42000 108.000
41.43500 110.000
41.45000 122.000
41.46500 114.000
41.48000 114.000
41.49500 109.000
41.51000 114.000
41.52500 110.000
41.54000 113.000
41.55500 112.000
41.57000 111.000
41.58500 100.000
41.60000 110.000
41.61500 108.000
41.63000 109.000
41.64500 104.000
41.66000 93.000
41.67500 105.000
41.69000 93.000
41.70500 89.000
41.72000 108.000
41.73500 129.000
41.75000 105.000
41.76500 111.000
41.78000 118.000
41.79500 121.000
41.81000 108.000
41.82500 109.000
41.84000 97.000
41.85500 99.000
41.87000 107.000
41.88500 106.000
41.90000 96.000
41.91500 90.000
41.93000 100.000
41.94500 95.000
41.96000 111.000
41.97500 107.000
41.99000 106.000
42.00500 92.000
42.02000 94.000
42.03500 110.000
42.05000 110.000
42.06500 116.000
42.08000 100.000
42.09500 101.000
42.11000 103.000
42.12500 110.000
42.14000 97.000
42.15500 104.000
42.17000 101.000
42.18500 102.000
42.20000 103.000
42.21500 99.000
42.23000 114.000
42.24500 101.000
42.26000 103.000
42.27500 92.000
42.29000 98.000
42.30500 111.000
42.32000 109.000
42.33500 97.000
42.35000 101.000
42.36500 92.000
42.38000 102.000
42.39500 104.000
42.41000 121.000
42.42500 110.000
42.44000 98.000
42.45500 101.000
42.47000 91.000
42.48500 88.000
42.50000 91.000
42.51500 100.000
42.53000 90.000
42.54500 104.000
42.56000 104.000
42.57500 122.000
42.59000 107.000
42.60500 111.000
42.62000 94.000
42.63500 114.000
42.65000 109.000
42.66500 89.000
42.68000 110.000
42.69500 97.000
42.71000 101.000
42.72500 112.000
42.74000 112.000
42.75500 94.000
42.77000 111.000
42.78500 99.000
42.80000 105.000
42.81500 91.000
42.83000 100.000
42.84500 95.000
42.86000 104.000
42.87500 103.000
42.89000 107.000
42.90500 103.000
42.92000 90.000
42.93500 96.000
42.95000 92.000
42.96500 114.000
42.98000 109.000
42.99500 112.000
43.01000 101.000
43.02500 93.000
43.04000 97.000
43.05500 93.000
43.07000 111.000
43.08500 109.000
43.10000 101.000
43.11500 96.000
43.13000 94.000
43.14500 101.000
43.16000 100.000
43.17500 106.000
43.19000 92.000
43.20500 106.000
43.22000 109.000
43.23500 109.000
43.25000 101.000
43.26500 96.000
43.28000 107.000
43.29500 93.000
43.31000 100.000
43.32500 103.000
43.34000 112.000
43.35500 99.000
43.37000 101.000
43.38500 119.000
43.40000 107.000
43.41500 90.000
43.43000 100.000
43.44500 98.000
43.46000 85.000
43.47500 97.000
43.49000 95.000
43.50500 95.000
43.52000 105.000
43.53500 109.000
43.55000 102.000
43.56500 102.000
43.58000 105.000
43.59500 97.000
43.61000 108.000
43.62500 110.000
43.64000 96.000
43.65500 105.000
43.67000 94.000
43.68500 81.000
43.70000 98.000
43.71500 113.000
43.73000 103.000
43.74500 87.000
43.76000 94.000
43.77500 102.000
43.79000 97.000
43.80500 108.000
43.82000 104.000
43.83500 94.000
43.85000 98.000
43.86500 90.000
43.88000 90.000
43.89500 119.000
43.91000 85.000
43.92500 91.000
43.94000 91.000
43.95500 87.000
43.97000 105.000
43.98500 88.000
44.00000 89.000
44.01500 100.000
44.03000 98.000
44.04500 108.000
44.06000 98.000
44.07500 107.000
44.09000 105.000
44.10500 106.000
44.12000 94.000
44.13500 119.000
44.15000 101.000
44.16500 87.000
44.18000 97.000
44.19500 98.000
44.21000 104.000
44.22500 102.000
44.24000 99.000
44.25500 99.000
44.27000 92.000
44.28500 101.000
44.30000 113.000
44.31500 105.000
44.33000 97.000
44.34500 96.000
44.36000 86.000
44.37500 96.000
44.39000 101.000
44.40500 96.000
44.42000 101.000
44.43500 103.000
44.45000 100.000
44.46500 108.000
44.48000 87.000
44.49500 87.000
44.51000 101.000
44.52500 103.000
44.54000 104.000
44.55500 98.000
44.57000 90.000
44.58500 99.000
44.60000 90.000
44.61500 96.000
44.63000 105.000
44.64500 101.000
44.66000 97.000
44.67500 98.000
44.69000 86.000
44.70500 75.000
44.72000 88.000
44.73500 125.000
44.75000 115.000
44.76500 100.000
44.78000 99.000
44.79500 108.000
44.81000 88.000
44.82500 82.000
44.84000 83.000
44.85500 88.000
44.87000 91.000
44.88500 89.000
44.90000 94.000
44.91500 88.000
44.93000 108.000
44.94500 92.000
44.96000 96.000
44.97500 112.000
44.99000 110.000
45.00500 105.000
45.02000 86.000
45.03500 96.000
45.05000 88.000
45.06500 94.000
45.08000 105.000
45.09500 95.000
45.11000 116.000
45.12500 102.000
45.14000 94.000
45.15500 109.000
45.17000 111.000
45.18500 103.000
45.20000 108.000
45.21500 110.000
45.23000 103.000
45.24500 96.000
45.26000 117.000
45.27500 104.000
45.29000 82.000
45.30500 98.000
45.32000 107.000
45.33500 96.000
45.35000 107.000
45.36500 106.000
45.38000 91.000
45.39500 84.000
45.41000 98.000
45.42500 90.000
45.44000 117.000
45.45500 123.000
45.47000 100.000
45.48500 106.000
45.50000 115.000
45.51500 116.000
45.53000 97.000
45.54500 99.000
45.56000 96.000
45.57500 91.000
45.59000 118.000
45.60500 123.000
45.62000 100.000
45.63500 91.000
45.65000 97.000
45.66500 85.000
45.68000 98.000
45.69500 107.000
45.71000 103.000
45.72500 94.000
45.74000 91.000
45.75500 98.000
45.77000 120.000
45.78500 112.000
45.80000 102.000
45.81500 110.000
45.83000 110.000
45.84500 107.000
45.86000 99.000
45.87500 119.000
45.89000 104.000
45.90500 96.000
45.92000 96.000
45.93500 109.000
45.95000 94.000
45.96500 106.000
45.98000 109.000
45.99500 96.000
46.01000 93.000
46.02500 84.000
46.04000 97.000
46.05500 96.000
46.07000 99.000
46.08500 110.000
46.10000 100.000
46.11500 90.000
46.13000 91.000
46.14500 83.000
46.16000 98.000
46.17500 95.000
46.19000 105.000
46.20500 92.000
46.22000 93.000
46.23500 96.000
46.25000 86.000
46.26500 101.000
46.28000 97.000
46.29500 93.000
46.31000 119.000
46.32500 111.000
46.34000 84.000
46.35500 89.000
46.37000 106.000
46.38500 94.000
46.40000 110.000
46.41500 82.000
46.43000 83.000
46.44500 90.000
46.46000 119.000
46.47500 92.000
46.49000 86.000
46.50500 113.000
46.52000 94.000
46.53500 91.000
46.55000 79.000
46.56500 97.000
46.58000 106.000
46.59500 96.000
46.61000 93.000
46.62500 100.000
46.64000 105.000
46.65500 104.000
46.67000 99.000
46.68500 83.000
46.70000 94.000
46.71500 98.000
46.73000 84.000
46.74500 93.000
46.76000 92.000
46.77500 84.000
46.79000 89.000
46.80500 101.000
46.82000 86.000
46.83500 97.000
46.85000 89.000
46.86500 88.000
46.88000 113.000
46.89500 90.000
46.91000 90.000
46.92500 96.000
46.94000 110.000
46.95500 105.000
46.97000 99.000
46.98500 93.000
47.00000 83.000
47.01500 98.000
47.03000 96.000
47.04500 115.000
47.06000 92.000
47.07500 93.000
47.09000 100.000
47.10500 99.000
47.12000 93.000
47.13500 91.000
47.15000 99.000
47.16500 92.000
47.18000 98.000
47.19500 99.000
47.21000 100.000
47.22500 107.000
47.24000 103.000
47.25500 102.000
47.27000 80.000
47.28500 85.000
47.30000 81.000
47.31500 89.000
47.33000 92.000
47.34500 95.000
47.36000 85.000
47.37500 99.000
47.39000 100.000
47.40500 76.000
47.42000 73.000
47.43500 91.000
47.45000 83.000
47.46500 91.000
47.48000 91.000
47.49500 80.000
47.51000 95.000
47.52500 83.000
47.54000 75.000
47.55500 87.000
47.57000 79.000
47.58500 104.000
47.60000 89.000
47.61500 87.000
47.63000 88.000
47.64500 77.000
47.66000 85.000
47.67500 80.000
47.69000 92.000
47.70500 84.000
47.72000 83.000
47.73500 78.000
47.75000 81.000
47.76500 90.000
47.78000 104.000
47.79500 93.000
47.81000 96.000
47.82500 89.000
47.84000 90.000
47.85500 88.000
47.87000 78.000
47.88500 89.000
47.90000 90.000
47.91500 101.000
47.93000 99.000
47.94500 88.000
47.96000 85.000
47.97500 96.000
47.99000 86.000
48.00500 91.000
48.02000 82.000
48.03500 100.000
48.05000 95.000
48.06500 86.000
48.08000 94.000
48.09500 99.000
48.11000 93.000
48.12500 97.000
48.14000 82.000
48.15500 90.000
48.17000 78.000
48.18500 83.000
48.20000 85.000
48.21500 78.000
48.23000 91.000
48.24500 81.000
48.26000 84.000
48.27500 94.000
48.29000 80.000
48.30500 78.000
48.32000 77.000
48.33500 88.000
48.35000 100.000
48.36500 90.000
48.38000 77.000
48.39500 67.000
48.41000 92.000
48.42500 101.000
48.44000 115.000
48.45500 108.000
48.47000 102.000
48.48500 89.000
48.50000 96.000
48.51500 96.000
48.53000 86.000
48.54500 88.000
48.56000 91.000
48.57500 101.000
48.59000 93.000
48.60500 78.000
48.62000 89.000
48.63500 77.000
48.65000 89.000
48.66500 84.000
48.68000 81.000
48.69500 90.000
48.71000 92.000
48.72500 82.000
48.74000 90.000
48.75500 98.000
48.77000 91.000
48.78500 87.000
48.80000 82.000
48.81500 85.000
48.83000 94.000
48.84500 97.000
48.86000 90.000
48.87500 82.000
48.89000 86.000
48.90500 87.000
48.92000 84.000
48.93500 85.000
48.95000 88.000
48.96500 75.000
48.98000 92.000
48.99500 76.000
49.01000 70.000
49.02500 72.000
49.04000 82.000
49.05500 81.000
49.07000 75.000
49.08500 73.000
49.10000 83.000
49.11500 82.000
49.13000 91.000
49.14500 92.000
49.16000 83.000
49.17500 98.000
49.19000 102.000
49.20500 91.000
49.22000 78.000
49.23500 91.000
49.25000 82.000
49.26500 87.000
49.28000 84.000
49.29500 85.000
49.31000 80.000
49.32500 85.000
49.34000 99.000
49.35500 93.000
49.37000 78.000
49.38500 84.000
49.40000 84.000
49.41500 97.000
49.43000 104.000
49.44500 92.000
49.46000 82.000
49.47500 84.000
49.49000 88.000
49.50500 96.000
49.52000 88.000
49.53500 86.000
49.55000 90.000
49.56500 90.000
49.58000 83.000
49.59500 82.000
49.61000 79.000
49.62500 97.000
49.64000 92.000
49.65500 77.000
49.67000 95.000
49.68500 96.000
49.70000 79.000
49.71500 85.000
49.73000 84.000
49.74500 86.000
49.76000 73.000
49.77500 81.000
49.79000 80.000
49.80500 83.000
49.82000 87.000
49.83500 83.000
49.85000 87.000
49.86500 86.000
49.88000 65.000
49.89500 76.000
49.91000 98.000
49.92500 103.000
49.94000 87.000
49.95500 88.000
49.97000 92.000
49.98500 92.000
50.00000 101.000
50.01500 81.000
50.03000 74.000
50.04500 84.000
50.06000 83.000
50.07500 88.000
50.09000 82.000
50.10500 81.000
50.12000 70.000
50.13500 76.000
50.15000 87.000
50.16500 93.000
50.18000 90.000
50.19500 82.000
50.21000 85.000
50.22500 81.000
50.24000 69.000
50.25500 87.000
50.27000 75.000
50.28500 69.000
50.30000 86.000
50.31500 86.000
50.33000 91.000
50.34500 96.000
50.36000 85.000
50.37500 82.000
50.39000 77.000
50.40500 86.000
50.42000 81.000
50.43500 101.000
50.45000 90.000
50.46500 85.000
50.48000 92.000
50.49500 79.000
50.51000 93.000
50.52500 96.000
50.54000 88.000
50.55500 83.000
50.57000 74.000
50.58500 68.000
50.60000 86.000
50.61500 78.000
50.63000 81.000
50.64500 89.000
50.66000 77.000
50.67500 77.000
50.69000 89.000
50.70500 88.000
50.72000 84.000
50.73500 78.000
50.75000 65.000
50.76500 79.000
50.78000 78.000
50.79500 90.000
50.81000 72.000
50.82500 81.000
50.84000 85.000
50.85500 88.000
50.87000 76.000
50.88500 78.000
50.90000 79.000
50.91500 81.000
50.93000 81.000
50.94500 79.000
50.96000 82.000
50.97500 80.000
50.99000 83.000
51.00500 81.000
51.02000 89.000
51.03500 78.000
51.05000 84.000
51.06500 81.000
51.08000 90.000
51.09500 81.000
51.11000 71.000
51.12500 79.000
51.14000 83.000
51.15500 86.000
51.17000 73.000
51.18500 74.000
51.20000 91.000
51.21500 86.000
51.23000 92.000
51.24500 71.000
51.26000 83.000
51.27500 83.000
51.29000 80.000
51.30500 83.000
51.32000 91.000
51.33500 88.000
51.35000 91.000
51.36500 71.000
51.38000 79.000
51.39500 76.000
51.41000 82.000
51.42500 79.000
51.44000 82.000
51.45500 93.000
51.47000 79.000
51.48500 81.000
51.50000 78.000
51.51500 78.000
51.53000 67.000
51.54500 77.000
51.56000 80.000
51.57500 91.000
51.59000 84.000
51.60500 81.000
51.62000 89.000
51.63500 79.000
51.65000 72.000
51.66500 90.000
51.68000 85.000
51.69500 83.000
51.71000 70.000
51.72500 85.000
51.74000 80.000
51.75500 78.000
51.77000 83.000
51.78500 86.000
51.80000 101.000
51.81500 80.000
51.83000 83.000
51.84500 78.000
51.86000 87.000
51.87500 85.000
51.89000 94.000
51.90500 90.000
51.92000 80.000
51.93500 83.000
51.95000 75.000
51.96500 75.000
51.98000 72.000
51.99500 79.000
52.01000 78.000
52.02500 82.000
52.04000 89.000
52.05500 87.000
52.07000 81.000
52.08500 95.000
52.10000 91.000
52.11500 75.000
52.13000 77.000
52.14500 84.000
52.16000 85.000
52.17500 84.000
52.19000 87.000
52.20500 94.000
52.22000 77.000
52.23500 94.000
52.25000 91.000
52.26500 81.000
52.28000 87.000
52.29500 80.000
52.31000 88.000
52.32500 88.000
52.34000 86.000
52.35500 88.000
52.37000 93.000
52.38500 78.000
52.40000 83.000
52.41500 90.000
52.43000 90.000
52.44500 84.000
52.46000 83.000
52.47500 102.000
52.49000 97.000
52.50500 93.000
52.52000 88.000
52.53500 86.000
52.55000 84.000
52.56500 78.000
52.58000 96.000
52.59500 88.000
52.61000 84.000
52.62500 97.000
52.64000 79.000
52.65500 73.000
52.67000 94.000
52.68500 99.000
52.70000 97.000
52.71500 109.000
52.73000 82.000
52.74500 82.000
52.76000 77.000
52.77500 81.000
52.79000 92.000
52.80500 89.000
52.82000 95.000
52.83500 89.000
52.85000 82.000
52.86500 74.000
52.88000 74.000
52.89500 99.000
52.91000 83.000
52.92500 78.000
52.94000 74.000
52.95500 81.000
52.97000 83.000
52.98500 85.000
53.00000 84.000
53.01500 92.000
53.03000 97.000
53.04500 99.000
53.06000 92.000
53.07500 92.000
53.09000 85.000
53.10500 91.000
53.12000 83.000
53.13500 86.000
53.15000 78.000
53.16500 94.000
53.18000 80.000
53.19500 77.000
53.21000 85.000
53.22500 92.000
53.24000 93.000
53.25500 86.000
53.27000 87.000
53.28500 93.000
53.30000 79.000
53.31500 87.000
53.33000 82.000
53.34500 83.000
53.36000 98.000
53.37500 97.000
53.39000 91.000
53.40500 94.000
53.42000 91.000
53.43500 99.000
53.45000 78.000
53.46500 92.000
53.48000 82.000
53.49500 95.000
53.51000 76.000
53.52500 83.000
53.54000 92.000
53.55500 86.000
53.57000 89.000
53.58500 99.000
53.60000 89.000
53.61500 78.000
53.63000 80.000
53.64500 85.000
53.66000 96.000
53.67500 79.000
53.69000 83.000
53.70500 88.000
53.72000 82.000
53.73500 89.000
53.75000 96.000
53.76500 96.000
53.78000 79.000
53.79500 90.000
53.81000 89.000
53.82500 93.000
53.84000 90.000
53.85500 84.000
53.87000 75.000
53.88500 68.000
53.90000 79.000
53.91500 93.000
53.93000 91.000
53.94500 94.000
53.96000 85.000
53.97500 78.000
53.99000 80.000
54.00500 87.000
54.02000 83.000
54.03500 94.000
54.05000 80.000
54.06500 87.000
54.08000 92.000
54.09500 86.000
54.11000 89.000
54.12500 91.000
54.14000 81.000
54.15500 91.000
54.17000 75.000
54.18500 83.000
54.20000 85.000
54.21500 82.000
54.23000 74.000
54.24500 81.000
54.26000 83.000
54.27500 92.000
54.29000 81.000
54.30500 83.000
54.32000 83.000
54.33500 86.000
54.35000 80.000
54.36500 93.000
54.38000 82.000
54.39500 82.000
54.41000 81.000
54.42500 95.000
54.44000 102.000
54.45500 96.000
54.47000 81.000
54.48500 95.000
54.50000 87.000
54.51500 92.000
54.53000 86.000
54.54500 74.000
54.56000 80.000
54.57500 85.000
54.59000 87.000
54.60500 85.000
54.62000 90.000
54.63500 90.000
54.65000 83.000
54.66500 79.000
54.68000 97.000
54.69500 100.000
54.71000 92.000
54.72500 88.000
54.74000 91.000
54.75500 81.000
54.77000 78.000
54.78500 75.000
54.80000 85.000
54.81500 83.000
54.83000 78.000
54.84500 85.000
54.86000 85.000
54.87500 85.000
54.89000 81.000
54.90500 81.000
54.92000 82.000
54.93500 84.000
54.95000 86.000
54.96500 84.000
54.98000 83.000
54.99500 83.000
55.01000 90.000
55.02500 87.000
55.04000 86.000
55.05500 97.000
55.07000 85.000
55.08500 79.000
55.10000 80.000
55.11500 79.000
55.13000 91.000
55.14500 85.000
55.16000 92.000
55.17500 76.000
55.19000 69.000
55.20500 88.000
55.22000 83.000
55.23500 86.000
55.25000 82.000
55.26500 85.000
55.28000 79.000
55.29500 81.000
55.31000 78.000
55.32500 65.000
55.34000 84.000
55.35500 69.000
55.37000 75.000
55.38500 78.000
55.40000 85.000
55.41500 80.000
55.43000 85.000
55.44500 88.000
55.46000 77.000
55.47500 75.000
55.49000 75.000
55.50500 84.000
55.52000 76.000
55.53500 73.000
55.55000 77.000
55.56500 76.000
55.58000 78.000
55.59500 72.000
55.61000 81.000
55.62500 78.000
55.64000 62.000
55.65500 76.000
55.67000 91.000
55.68500 80.000
55.70000 76.000
55.71500 74.000
55.73000 76.000
55.74500 76.000
55.76000 71.000
55.77500 91.000
55.79000 87.000
55.80500 78.000
55.82000 84.000
55.83500 78.000
55.85000 81.000
55.86500 71.000
55.88000 74.000
55.89500 79.000
55.91000 81.000
55.92500 79.000
55.94000 75.000
55.95500 86.000
55.97000 79.000
55.98500 69.000
56.00000 77.000
56.01500 78.000
56.03000 69.000
56.04500 69.000
56.06000 79.000
56.07500 75.000
56.09000 69.000
56.10500 67.000
56.12000 65.000
56.13500 77.000
56.15000 90.000
56.16500 84.000
56.18000 90.000
56.19500 78.000
56.21000 90.000
56.22500 74.000
56.24000 70.000
56.25500 82.000
56.27000 76.000
56.28500 86.000
56.30000 74.000
56.31500 68.000
56.33000 78.000
56.34500 76.000
56.36000 70.000
56.37500 85.000
56.39000 82.000
56.40500 83.000
56.42000 79.000
56.43500 83.000
56.45000 75.000
56.46500 79.000
56.48000 70.000
56.49500 76.000
56.51000 86.000
56.52500 84.000
56.54000 65.000
56.55500 70.000
56.57000 79.000
56.58500 85.000
56.60000 82.000
56.61500 86.000
56.63000 87.000
56.64500 91.000
56.66000 93.000
56.67500 89.000
56.69000 82.000
56.70500 80.000
56.72000 89.000
56.73500 80.000
56.75000 88.000
56.76500 79.000
56.78000 75.000
56.79500 90.000
56.81000 86.000
56.82500 81.000
56.84000 85.000
56.85500 77.000
56.87000 68.000
56.88500 70.000
56.90000 72.000
56.91500 69.000
56.93000 76.000
56.94500 75.000
56.96000 84.000
56.97500 78.000
56.99000 72.000
57.00500 70.000
57.02000 74.000
57.03500 70.000
57.05000 81.000
57.06500 84.000
57.08000 76.000
57.09500 77.000
57.11000 80.000
57.12500 77.000
57.14000 64.000
57.15500 68.000
57.17000 66.000
57.18500 80.000
57.20000 67.000
57.21500 63.000
57.23000 67.000
57.24500 70.000
57.26000 84.000
57.27500 77.000
57.29000 75.000
57.30500 83.000
57.32000 78.000
57.33500 80.000
57.35000 79.000
57.36500 78.000
57.38000 64.000
57.39500 74.000
57.41000 70.000
57.42500 84.000
57.44000 81.000
57.45500 66.000
57.47000 76.000
57.48500 70.000
57.50000 78.000
57.51500 69.000
57.53000 67.000
57.54500 63.000
57.56000 63.000
57.57500 71.000
57.59000 74.000
57.60500 66.000
57.62000 72.000
57.63500 75.000
57.65000 83.000
57.66500 70.000
57.68000 76.000
57.69500 81.000
57.71000 79.000
57.72500 79.000
57.74000 74.000
57.75500 69.000
57.77000 79.000
57.78500 74.000
57.80000 80.000
57.81500 72.000
57.83000 72.000
57.84500 73.000
57.86000 77.000
57.87500 72.000
57.89000 74.000
57.90500 73.000
57.92000 60.000
57.93500 63.000
57.95000 77.000
57.96500 79.000
57.98000 71.000
57.99500 78.000
58.01000 65.000
58.02500 69.000
58.04000 76.000
58.05500 71.000
58.07000 68.000
58.08500 74.000
58.10000 61.000
58.11500 68.000
58.13000 74.000
58.14500 76.000
58.16000 71.000
58.17500 76.000
58.19000 72.000
58.20500 78.000
58.22000 77.000
58.23500 77.000
58.25000 83.000
58.26500 95.000
58.28000 81.000
58.29500 67.000
58.31000 77.000
58.32500 91.000
58.34000 99.000
58.35500 83.000
58.37000 79.000
58.38500 80.000
58.40000 83.000
58.41500 69.000
58.43000 75.000
58.44500 67.000
58.46000 66.000
58.47500 68.000
58.49000 81.000
58.50500 77.000
58.52000 75.000
58.53500 73.000
58.55000 72.000
58.56500 80.000
58.58000 75.000
58.59500 73.000
58.61000 76.000
58.62500 71.000
58.64000 76.000
58.65500 80.000
58.67000 69.000
58.68500 75.000
58.70000 73.000
58.71500 78.000
58.73000 76.000
58.74500 67.000
58.76000 74.000
58.77500 83.000
58.79000 70.000
58.80500 78.000
58.82000 83.000
58.83500 72.000
58.85000 76.000
58.86500 77.000
58.88000 86.000
58.89500 69.000
58.91000 68.000
58.92500 71.000
58.94000 74.000
58.95500 76.000
58.97000 68.000
58.98500 73.000
59.00000 71.000
59.01500 74.000
59.03000 79.000
59.04500 80.000
59.06000 81.000
59.07500 60.000
59.09000 63.000
59.10500 75.000
59.12000 85.000
59.13500 77.000
59.15000 61.000
59.16500 74.000
59.18000 68.000
59.19500 66.000
59.21000 69.000
59.22500 65.000
59.24000 77.000
59.25500 76.000
59.27000 72.000
59.28500 81.000
59.30000 66.000
59.31500 61.000
59.33000 71.000
59.34500 86.000
59.36000 66.000
59.37500 67.000
59.39000 64.000
59.40500 67.000
59.42000 78.000
59.43500 67.000
59.45000 74.000
59.46500 78.000
59.48000 78.000
59.49500 74.000
59.51000 66.000
59.52500 81.000
59.54000 77.000
59.55500 63.000
59.57000 77.000
59.58500 75.000
59.60000 71.000
59.61500 65.000
59.63000 63.000
59.64500 81.000
59.66000 85.000
59.67500 77.000
59.69000 78.000
59.70500 68.000
59.72000 65.000
59.73500 76.000
59.75000 60.000
59.76500 69.000
59.78000 77.000
59.79500 73.000
59.81000 68.000
59.82500 81.000
59.84000 72.000
59.85500 73.000
59.87000 77.000
59.88500 70.000
59.90000 70.000
59.91500 74.000
59.93000 54.000
59.94500 66.000
59.96000 87.000
59.97500 67.000
59.99000 65.000
60.00500 72.000
60.02000 76.000
60.03500 70.000
60.05000 65.000
60.06500 66.000
60.08000 60.000
60.09500 66.000
60.11000 64.000
60.12500 63.000
60.14000 64.000
60.15500 69.000
60.17000 72.000
60.18500 79.000
60.20000 83.000
60.21500 80.000
60.23000 64.000
60.24500 70.000
60.26000 75.000
60.27500 70.000
60.29000 74.000
60.30500 68.000
60.32000 66.000
60.33500 73.000
60.35000 65.000
60.36500 59.000
60.38000 61.000
60.39500 70.000
60.41000 71.000
60.42500 68.000
60.44000 73.000
60.45500 69.000
60.47000 70.000
60.48500 69.000
60.50000 68.000
60.51500 58.000
60.53000 63.000
60.54500 59.000
60.56000 76.000
60.57500 70.000
60.59000 70.000
60.60500 61.000
60.62000 58.000
60.63500 68.000
60.65000 63.000
60.66500 71.000
60.68000 71.000
60.69500 62.000
60.71000 57.000
60.72500 65.000
60.74000 68.000
60.75500 64.000
60.77000 64.000
60.78500 67.000
60.80000 65.000
60.81500 64.000
60.83000 61.000
60.84500 73.000
60.86000 76.000
60.87500 69.000
60.89000 71.000
60.90500 73.000
60.92000 78.000
60.93500 65.000
60.95000 56.000
60.96500 67.000
60.98000 67.000
60.99500 73.000
61.01000 71.000
61.02500 73.000
61.04000 70.000
61.05500 71.000
61.07000 69.000
61.08500 67.000
61.10000 57.000
61.11500 61.000
61.13000 79.000
61.14500 72.000
61.16000 76.000
61.17500 71.000
61.19000 75.000
61.20500 74.000
61.22000 72.000
61.23500 62.000
61.25000 62.000
61.26500 64.000
61.28000 70.000
61.29500 78.000
61.31000 68.000
61.32500 60.000
61.34000 69.000
61.35500 58.000
61.37000 55.000
61.38500 68.000
61.40000 69.000
61.41500 69.000
61.43000 72.000
61.44500 74.000
61.46000 66.000
61.47500 66.000
61.49000 62.000
61.50500 63.000
61.52000 57.000
61.53500 67.000
61.55000 69.000
61.56500 71.000
61.58000 64.000
61.59500 65.000
61.61000 71.000
61.62500 61.000
61.64000 50.000
61.65500 48.000
61.67000 57.000
61.68500 55.000
61.70000 49.000
61.71500 59.000
61.73000 72.000
61.74500 60.000
61.76000 70.000
61.77500 80.000
61.79000 61.000
61.80500 53.000
61.82000 61.000
61.83500 63.000
61.85000 77.000
61.86500 61.000
61.88000 54.000
61.89500 68.000
61.91000 80.000
61.92500 63.000
61.94000 65.000
61.95500 68.000
61.97000 61.000
61.98500 76.000
