2.00000 1979.000
2.01500 1905.000
2.03000 1856.000
2.04500 1874.000
2.06000 1828.000
2.07500 1759.000
2.09000 1762.000
2.10500 1667.000
2.12000 1699.000
2.13500 1643.000
2.15000 1573.000
2.16500 1564.000
2.18000 1540.000
2.19500 1457.000
2.21000 1365.000
2.22500 1402.000
2.24000 1390.000
2.25500 1359.000
2.27000 1310.000
2.28500 1380.000
2.30000 1266.000
2.31500 1258.000
2.33000 1233.000
2.34500 1194.000
2.36000 1159.000
2.37500 1103.000
2.39000 1100.000
2.40500 1115.000
2.42000 1095.000
2.43500 1057.000
2.45000 1012.000
2.46500 1025.000
2.48000 995.000
2.49500 939.000
2.51000 949.000
2.52500 959.000
2.54000 959.000
2.55500 924.000
2.57000 925.000
2.58500 882.000
2.60000 875.000
2.61500 881.000
2.63000 861.000
2.64500 813.000
2.66000 814.000
2.67500 765.000
2.69000 812.000
2.70500 778.000
2.72000 784.000
2.73500 778.000
2.75000 774.000
2.76500 702.000
2.78000 725.000
2.79500 723.000
2.81000 740.000
2.82500 678.000
2.84000 692.000
2.85500 702.000
2.87000 652.000
2.88500 696.000
2.90000 676.000
2.91500 643.000
2.93000 660.000
2.94500 619.000
2.96000 628.000
2.97500 628.000
2.99000 627.000
3.00500 624.000
3.02000 617.000
3.03500 555.000
3.05000 588.000
3.06500 582.000
3.08000 575.000
3.09500 530.000
3.11000 544.000
3.12500 561.000
3.14000 508.000
3.15500 522.000
3.17000 549.000
3.18500 561.000
3.20000 518.000
3.21500 523.000
3.23000 490.000
3.24500 476.000
3.26000 496.000
3.27500 533.000
3.29000 475.000
3.30500 468.000
3.32000 482.000
3.33500 471.000
3.35000 453.000
3.36500 451.000
3.38000 455.000
3.39500 456.000
3.41000 450.000
3.42500 436.000
3.44000 438.000
3.45500 430.000
3.47000 457.000
3.48500 404.000
3.50000 437.000
3.51500 417.000
3.53000 433.000
3.54500 452.000
3.56000 433.000
3.57500 443.000
3.59000 415.000
3.60500 427.000
3.62000 397.000
3.63500 397.000
3.65000 408.000
3.66500 390.000
3.68000 420.000
3.69500 393.000
3.71000 371.000
3.72500 402.000
3.74000 392.000
3.75500 373.000
3.77000 379.000
3.78500 374.000
3.80000 372.000
3.81500 382.000
3.83000 358.000
3.84500 366.000
3.86000 366.000
3.87500 367.000
3.89000 373.000
3.90500 354.000
3.92000 370.000
3.93500 382.000
3.95000 348.000
3.96500 352.000
3.98000 363.000
3.99500 365.000
4.01000 324.000
4.02500 357.000
4.04000 367.000
4.05500 374.000
4.07000 361.000
4.08500 343.000
4.10000 328.000
4.11500 336.000
4.13000 346.000
4.14500 345.000
4.16000 302.000
4.17500 339.000
4.19000 351.000
4.20500 332.000
4.22000 310.000
4.23500 309.000
4.25000 325.000
4.26500 311.000
4.28000 335.000
4.29500 297.000
4.31000 284.000
4.32500 279.000
4.34000 300.000
4.35500 292.000
4.37000 321.000
4.38500 320.000
4.40000 323.000
4.41500 313.000
4.43000 319.000
4.44500 313.000
4.46000 281.000
4.47500 299.000
4.49000 289.000
4.50500 307.000
4.52000 317.000
4.53500 310.000
4.55000 319.000
4.56500 298.000
4.58000 283.000
4.59500 264.000
4.61000 290.000
4.62500 290.000
4.64000 277.000
4.65500 286.000
4.67000 303.000
4.68500 301.000
4.70000 295.000
4.71500 293.000
4.73000 292.000
4.74500 269.000
4.76000 267.000
4.77500 261.000
4.79000 279.000
4.80500 292.000
4.82000 289.000
4.83500 286.000
4.85000 292.000
4.86500 275.000
4.88000 282.000
4.89500 255.000
4.91000 295.000
4.92500 278.000
4.94000 278.000
4.95500 283.000
4.97000 236.000
4.98500 282.000
5.00000 274.000
5.01500 292.000
5.03000 289.000
5.04500 282.000
5.06000 282.000
5.07500 268.000
5.09000 265.000
5.10500 275.000
5.12000 257.000
5.13500 271.000
5.15000 283.000
5.16500 273.000
5.18000 259.000
5.19500 282.000
5.21000 272.000
5.22500 289.000
5.24000 283.000
5.25500 257.000
5.27000 260.000
5.28500 261.000
5.30000 259.000
5.31500 242.000
5.33000 241.000
5.34500 254.000
5.36000 269.000
5.37500 272.000
5.39000 281.000
5.40500 260.000
5.42000 243.000
5.43500 263.000
5.45000 276.000
5.46500 256.000
5.48000 255.000
5.49500 266.000
5.51000 266.000
5.52500 280.000
5.54000 269.000
5.55500 248.000
5.57000 253.000
5.58500 260.000
5.60000 268.000
5.61500 265.000
5.63000 258.000
5.64500 273.000
5.66000 255.000
5.67500 253.000
5.69000 271.000
5.70500 258.000
5.72000 248.000
5.73500 257.000
5.75000 273.000
5.76500 263.000
5.78000 269.000
5.79500 271.000
5.81000 244.000
5.82500 277.000
5.84000 269.000
5.85500 260.000
5.87000 252.000
5.88500 259.000
5.90000 250.000
5.91500 239.000
5.93000 246.000
5.94500 248.000
5.96000 257.000
5.97500 249.000
5.99000 255.000
6.00500 259.000
6.02000 260.000
6.03500 254.000
6.05000 265.000
6.06500 266.000
6.08000 244.000
6.09500 233.000
6.11000 245.000
6.12500 252.000
6.14000 226.000
6.15500 259.000
6.17000 244.000
6.18500 247.000
6.20000 268.000
6.21500 249.000
6.23000 240.000
6.24500 240.000
6.26000 239.000
6.27500 255.000
6.29000 263.000
6.30500 244.000
6.32000 246.000
6.33500 242.000
6.35000 248.000
6.36500 226.000
6.38000 228.000
6.39500 257.000
6.41000 236.000
6.42500 234.000
6.44000 234.000
6.45500 242.000
6.47000 243.000
6.48500 264.000
6.50000 269.000
6.51500 258.000
6.53000 224.000
6.54500 224.000
6.56000 264.000
6.57500 252.000
6.59000 243.000
6.60500 236.000
6.62000 251.000
6.63500 251.000
6.65000 263.000
6.66500 258.000
6.68000 236.000
6.69500 257.000
6.71000 243.000
6.72500 221.000
6.74000 226.000
6.75500 227.000
6.77000 243.000
6.78500 223.000
6.80000 233.000
6.81500 224.000
6.83000 243.000
6.84500 238.000
6.86000 234.000
6.87500 255.000
6.89000 244.000
6.90500 238.000
6.92000 226.000
6.93500 235.000
6.95000 229.000
6.96500 232.000
6.98000 238.000
6.99500 242.000
7.01000 240.000
7.02500 223.000
7.04000 233.000
7.05500 257.000
7.07000 229.000
7.08500 231.000
7.10000 230.000
7.11500 266.000
7.13000 242.000
7.14500 232.000
7.16000 229.000
7.17500 220.000
7.19000 234.000
7.20500 236.000
7.22000 223.000
7.23500 240.000
7.25000 235.000
7.26500 232.000
7.28000 225.000
7.29500 223.000
7.31000 230.000
7.32500 225.000
7.34000 242.000
7.35500 240.000
7.37000 224.000
7.38500 239.000
7.40000 228.000
7.41500 217.000
7.43000 216.000
7.44500 231.000
7.46000 244.000
7.47500 242.000
7.49000 251.000
7.50500 214.000
7.52000 222.000
7.53500 220.000
7.55000 209.000
7.56500 244.000
7.58000 240.000
7.59500 235.000
7.61000 218.000
7.62500 210.000
7.64000 233.000
7.65500 249.000
7.67000 234.000
7.68500 227.000
7.70000 238.000
7.71500 252.000
7.73000 242.000
7.74500 239.000
7.76000 250.000
7.77500 227.000
7.79000 220.000
7.80500 223.000
7.82000 234.000
7.83500 248.000
7.85000 247.000
7.86500 208.000
7.88000 224.000
7.89500 232.000
7.91000 222.000
7.92500 216.000
7.94000 216.000
7.95500 235.000
7.97000 226.000
7.98500 245.000
8.00000 247.000
8.01500 216.000
8.03000 222.000
8.04500 229.000
8.06000 233.000
8.07500 226.000
8.09000 222.000
8.10500 231.000
8.12000 245.000
8.13500 233.000
8.15000 233.000
8.16500 261.000
8.18000 253.000
8.19500 254.000
8.21000 244.000
8.22500 211.000
8.24000 230.000
8.25500 228.000
8.27000 225.000
8.28500 204.000
8.30000 215.000
8.31500 216.000
8.33000 213.000
8.34500 217.000
8.36000 225.000
8.37500 220.000
8.39000 241.000
8.40500 224.000
8.42000 225.000
8.43500 228.000
8.45000 230.000
8.46500 219.000
8.48000 234.000
8.49500 241.000
8.51000 241.000
8.52500 274.000
8.54000 241.000
8.55500 233.000
8.57000 213.000
8.58500 236.000
8.60000 225.000
8.61500 249.000
8.63000 227.000
8.64500 223.000
8.66000 199.000
8.67500 227.000
8.69000 216.000
8.70500 232.000
8.72000 244.000
8.73500 232.000
8.75000 235.000
8.76500 243.000
8.78000 222.000
8.79500 238.000
8.81000 234.000
8.82500 222.000
8.84000 223.000
8.85500 225.000
8.87000 230.000
8.88500 227.000
8.90000 237.000
8.91500 240.000
8.93000 222.000
8.94500 229.000
8.96000 249.000
8.97500 222.000
8.99000 214.000
9.00500 214.000
9.02000 221.000
9.03500 230.000
9.05000 228.000
9.06500 229.000
9.08000 224.000
9.09500 202.000
9.11000 218.000
9.12500 223.000
9.14000 229.000
9.15500 232.000
9.17000 218.000
9.18500 228.000
9.20000 217.000
9.21500 216.000
9.23000 219.000
9.24500 237.000
9.26000 240.000
9.27500 235.000
9.29000 210.000
9.30500 218.000
9.32000 224.000
9.33500 217.000
9.35000 211.000
9.36500 211.000
9.38000 231.000
9.39500 226.000
9.41000 209.000
9.42500 208.000
9.44000 212.000
9.45500 227.000
9.47000 222.000
9.48500 221.000
9.50000 227.000
9.51500 232.000
9.53000 234.000
9.54500 239.000
9.56000 243.000
9.57500 215.000
9.59000 230.000
9.60500 208.000
9.62000 238.000
9.63500 246.000
9.65000 216.000
9.66500 215.000
9.68000 220.000
9.69500 233.000
9.71000 235.000
9.72500 239.000
9.74000 230.000
9.75500 229.000
9.77000 206.000
9.78500 232.000
9.80000 239.000
9.81500 240.000
9.83000 219.000
9.84500 229.000
9.86000 243.000
9.87500 244.000
9.89000 236.000
9.90500 231.000
9.92000 234.000
9.93500 230.000
9.95000 219.000
9.96500 246.000
9.98000 234.000
9.99500 238.000
10.01000 234.000
10.02500 218.000
10.04000 227.000
10.05500 220.000
10.07000 252.000
10.08500 261.000
10.10000 227.000
10.11500 237.000
10.13000 248.000
10.14500 227.000
10.16000 223.000
10.17500 228.000
10.19000 216.000
10.20500 210.000
10.22000 248.000
10.23500 217.000
10.25000 216.000
10.26500 230.000
10.28000 227.000
10.29500 223.000
10.31000 229.000
10.32500 229.000
10.34000 233.000
10.35500 229.000
10.37000 240.000
10.38500 252.000
10.40000 221.000
10.41500 240.000
10.43000 231.000
10.44500 218.000
10.46000 232.000
10.47500 239.000
10.49000 218.000
10.50500 226.000
10.52000 238.000
10.53500 202.000
10.55000 211.000
10.56500 244.000
10.58000 237.000
10.59500 230.000
10.61000 243.000
10.62500 241.000
10.64000 231.000
10.65500 226.000
10.67000 222.000
10.68500 218.000
10.70000 220.000
10.71500 219.000
10.73000 218.000
10.74500 209.000
10.76000 214.000
10.77500 246.000
10.79000 241.000
10.80500 250.000
10.82000 210.000
10.83500 204.000
10.85000 234.000
10.86500 235.000
10.88000 246.000
10.89500 226.000
10.91000 228.000
10.92500 228.000
10.94000 230.000
10.95500 214.000
10.97000 220.000
10.98500 213.000
11.00000 233.000
11.01500 244.000
11.03000 230.000
11.04500 219.000
11.06000 254.000
11.07500 231.000
11.09000 231.000
11.10500 226.000
11.12000 220.000
11.13500 233.000
11.15000 230.000
11.16500 253.000
11.18000 226.000
11.19500 214.000
11.21000 248.000
11.22500 266.000
11.24000 240.000
11.25500 238.000
11.27000 233.000
11.28500 247.000
11.30000 241.000
11.31500 229.000
11.33000 228.000
11.34500 221.000
11.36000 239.000
11.37500 253.000
11.39000 238.000
11.40500 246.000
11.42000 254.000
11.43500 261.000
11.45000 247.000
11.46500 239.000
11.48000 257.000
11.49500 265.000
11.51000 262.000
11.52500 255.000
11.54000 249.000
11.55500 281.000
11.57000 257.000
11.58500 279.000
11.60000 264.000
11.61500 267.000
11.63000 266.000
11.64500 277.000
11.66000 267.000
11.67500 266.000
11.69000 284.000
11.70500 298.000
11.72000 295.000
11.73500 324.000
11.75000 274.000
11.76500 288.000
11.78000 290.000
11.79500 313.000
11.81000 314.000
11.82500 329.000
11.84000 291.000
11.85500 310.000
11.87000 322.000
11.88500 310.000
11.90000 333.000
11.91500 334.000
11.93000 357.000
11.94500 337.000
11.96000 308.000
11.97500 328.000
11.99000 364.000
12.00500 326.000
12.02000 345.000
12.03500 346.000
12.05000 351.000
12.06500 347.000
12.08000 339.000
12.09500 355.000
12.11000 346.000
12.12500 353.000
12.14000 362.000
12.15500 328.000
12.17000 329.000
12.18500 290.000
12.20000 308.000
12.21500 324.000
12.23000 341.000
12.24500 333.000
12.26000 344.000
12.27500 326.000
12.29000 329.000
12.30500 329.000
12.32000 296.000
12.33500 314.000
12.35000 292.000
12.36500 303.000
12.38000 305.000
12.39500 292.000
12.41000 304.000
12.42500 293.000
12.44000 303.000
12.45500 293.000
12.47000 303.000
12.48500 287.000
12.50000 296.000
12.51500 293.000
12.53000 276.000
12.54500 269.000
12.56000 280.000
12.57500 283.000
12.59000 282.000
12.60500 289.000
12.62000 276.000
12.63500 284.000
12.65000 265.000
12.66500 271.000
12.68000 242.000
12.69500 265.000
12.71000 272.000
12.72500 280.000
12.74000 275.000
12.75500 240.000
12.77000 251.000
12.78500 268.000
12.80000 240.000
12.81500 265.000
12.83000 253.000
12.84500 269.000
12.86000 256.000
12.87500 262.000
12.89000 254.000
12.90500 261.000
12.92000 275.000
12.93500 266.000
12.95000 262.000
12.96500 273.000
12.98000 285.000
12.99500 269.000
13.01000 261.000
13.02500 240.000
13.04000 242.000
13.05500 266.000
13.07000 233.000
13.08500 263.000
13.10000 256.000
13.11500 277.000
13.13000 258.000
13.14500 225.000
13.16000 257.000
13.17500 236.000
13.19000 243.000
13.20500 237.000
13.22000 247.000
13.23500 261.000
13.25000 269.000
13.26500 254.000
13.28000 257.000
13.29500 232.000
13.31000 233.000
13.32500 258.000
13.34000 241.000
13.35500 205.000
13.37000 230.000
13.38500 232.000
13.40000 246.000
13.41500 244.000
13.43000 239.000
13.44500 245.000
13.46000 214.000
13.47500 239.000
13.49000 241.000
13.50500 236.000
13.52000 233.000
13.53500 257.000
13.55000 235.000
13.56500 230.000
13.58000 254.000
13.59500 247.000
13.61000 256.000
13.62500 247.000
13.64000 230.000
13.65500 254.000
13.67000 231.000
13.68500 242.000
13.70000 255.000
13.71500 250.000
13.73000 252.000
13.74500 248.000
13.76000 246.000
13.77500 241.000
13.79000 228.000
13.80500 234.000
13.82000 236.000
13.83500 229.000
13.85000 213.000
13.86500 230.000
13.88000 222.000
13.89500 238.000
13.91000 229.000
13.92500 240.000
13.94000 252.000
13.95500 227.000
13.97000 232.000
13.98500 256.000
14.00000 238.000
14.01500 237.000
14.03000 246.000
14.04500 249.000
14.06000 226.000
14.07500 220.000
14.09000 221.000
14.10500 244.000
14.12000 239.000
14.13500 264.000
14.15000 238.000
14.16500 254.000
14.18000 242.000
14.19500 256.000
14.21000 253.000
14.22500 230.000
14.24000 223.000
14.25500 241.000
14.27000 237.000
14.28500 224.000
14.30000 248.000
14.31500 259.000
14.33000 253.000
14.34500 239.000
14.36000 241.000
14.37500 227.000
14.39000 220.000
14.40500 224.000
14.42000 224.000
14.43500 219.000
14.45000 213.000
14.46500 221.000
14.48000 257.000
14.49500 237.000
14.51000 254.000
14.52500 253.000
14.54000 237.000
14.55500 250.000
14.57000 239.000
14.58500 256.000
14.60000 247.000
14.61500 237.000
14.63000 220.000
14.64500 242.000
14.66000 252.000
14.67500 216.000
14.69000 238.000
14.70500 256.000
14.72000 245.000
14.73500 229.000
14.75000 225.000
14.76500 230.000
14.78000 238.000
14.79500 231.000
14.81000 230.000
14.82500 262.000
14.84000 266.000
14.85500 238.000
14.87000 244.000
14.88500 255.000
14.90000 257.000
14.91500 234.000
14.93000 244.000
14.94500 247.000
14.96000 226.000
14.97500 237.000
14.99000 232.000
15.00500 225.000
15.02000 234.000
15.03500 243.000
15.05000 214.000
15.06500 228.000
15.08000 250.000
15.09500 235.000
15.11000 244.000
15.12500 252.000
15.14000 239.000
15.15500 253.000
15.17000 231.000
15.18500 233.000
15.20000 256.000
15.21500 235.000
15.23000 239.000
15.24500 238.000
15.26000 235.000
15.27500 261.000
15.29000 243.000
15.30500 231.000
15.32000 269.000
15.33500 257.000
15.35000 238.000
15.36500 244.000
15.38000 267.000
15.39500 238.000
15.41000 243.000
15.42500 237.000
15.44000 229.000
15.45500 248.000
15.47000 252.000
15.48500 238.000
15.50000 250.000
15.51500 284.000
15.53000 233.000
15.54500 232.000
15.56000 243.000
15.57500 223.000
15.59000 233.000
15.60500 251.000
15.62000 240.000
15.63500 250.000
15.65000 226.000
15.66500 249.000
15.68000 245.000
15.69500 230.000
15.71000 240.000
15.72500 249.000
15.74000 251.000
15.75500 253.000
15.77000 263.000
15.78500 226.000
15.80000 266.000
15.81500 244.000
15.83000 236.000
15.84500 238.000
15.86000 255.000
15.87500 238.000
15.89000 252.000
15.90500 247.000
15.92000 269.000
15.93500 271.000
15.95000 230.000
15.96500 246.000
15.98000 244.000
15.99500 219.000
16.01000 239.000
16.02500 238.000
16.04000 243.000
16.05500 260.000
16.07000 256.000
16.08500 247.000
16.10000 227.000
16.11500 249.000
16.13000 256.000
16.14500 257.000
16.16000 253.000
16.17500 222.000
16.19000 219.000
16.20500 212.000
16.22000 240.000
16.23500 270.000
16.25000 259.000
16.26500 250.000
16.28000 240.000
16.29500 239.000
16.31000 270.000
16.32500 257.000
16.34000 237.000
16.35500 263.000
16.37000 259.000
16.38500 241.000
16.40000 249.000
16.41500 261.000
16.43000 263.000
16.44500 248.000
16.46000 258.000
16.47500 266.000
16.49000 266.000
16.50500 233.000
16.52000 236.000
16.53500 233.000
16.55000 237.000
16.56500 233.000
16.58000 255.000
16.59500 259.000
16.61000 257.000
16.62500 247.000
16.64000 247.000
16.65500 269.000
16.67000 252.000
16.68500 245.000
16.70000 237.000
16.71500 244.000
16.73000 232.000
16.74500 231.000
16.76000 243.000
16.77500 241.000
16.79000 262.000
16.80500 211.000
16.82000 240.000
16.83500 240.000
16.85000 245.000
16.86500 255.000
16.88000 243.000
16.89500 241.000
16.91000 258.000
16.92500 244.000
16.94000 240.000
16.95500 256.000
16.97000 248.000
16.98500 243.000
17.00000 237.000
17.01500 273.000
17.03000 285.000
17.04500 241.000
17.06000 248.000
17.07500 251.000
17.09000 254.000
17.10500 249.000
17.12000 228.000
17.13500 285.000
17.15000 256.000
17.16500 242.000
17.18000 244.000
17.19500 253.000
17.21000 258.000
17.22500 271.000
17.24000 257.000
17.25500 267.000
17.27000 255.000
17.28500 245.000
17.30000 232.000
17.31500 241.000
17.33000 242.000
17.34500 218.000
17.36000 249.000
17.37500 257.000
17.39000 253.000
17.40500 263.000
17.42000 274.000
17.43500 255.000
17.45000 272.000
17.46500 279.000
17.48000 295.000
17.49500 266.000
17.51000 284.000
17.52500 270.000
17.54000 261.000
17.55500 268.000
17.57000 251.000
17.58500 250.000
17.60000 257.000
17.61500 258.000
17.63000 267.000
17.64500 265.000
17.66000 277.000
17.67500 284.000
17.69000 277.000
17.70500 265.000
17.72000 272.000
17.73500 254.000
17.75000 284.000
17.76500 260.000
17.78000 257.000
17.79500 253.000
17.81000 252.000
17.82500 297.000
17.84000 292.000
17.85500 277.000
17.87000 260.000
17.88500 287.000
17.90000 268.000
17.91500 264.000
17.93000 268.000
17.94500 227.000
17.96000 264.000
17.97500 274.000
17.99000 285.000
18.00500 275.000
18.02000 249.000
18.03500 266.000
18.05000 282.000
18.06500 283.000
18.08000 282.000
18.09500 254.000
18.11000 277.000
18.12500 296.000
18.14000 243.000
18.15500 265.000
18.17000 272.000
18.18500 291.000
18.20000 262.000
18.21500 266.000
18.23000 293.000
18.24500 275.000
18.26000 294.000
18.27500 270.000
18.29000 267.000
18.30500 271.000
18.32000 288.000
18.33500 283.000
18.35000 305.000
18.36500 267.000
18.38000 266.000
18.39500 239.000
18.41000 308.000
18.42500 280.000
18.44000 276.000
18.45500 243.000
18.47000 272.000
18.48500 274.000
18.50000 278.000
18.51500 277.000
18.53000 284.000
18.54500 248.000
18.56000 296.000
18.57500 297.000
18.59000 283.000
18.60500 283.000
18.62000 300.000
18.63500 278.000
18.65000 272.000
18.66500 293.000
18.68000 292.000
18.69500 287.000
18.71000 273.000
18.72500 287.000
18.74000 273.000
18.75500 282.000
18.77000 274.000
18.78500 254.000
18.80000 274.000
18.81500 290.000
18.83000 273.000
18.84500 286.000
18.86000 279.000
18.87500 276.000
18.89000 272.000
18.90500 276.000
18.92000 293.000
18.93500 281.000
18.95000 288.000
18.96500 289.000
18.98000 268.000
18.99500 285.000
19.01000 267.000
19.02500 263.000
19.04000 272.000
19.05500 279.000
19.07000 282.000
19.08500 285.000
19.10000 292.000
19.11500 291.000
19.13000 284.000
19.14500 284.000
19.16000 286.000
19.17500 302.000
19.19000 279.000
19.20500 298.000
19.22000 278.000
19.23500 279.000
19.25000 267.000
19.26500 281.000
19.28000 269.000
19.29500 290.000
19.31000 265.000
19.32500 289.000
19.34000 280.000
19.35500 281.000
19.37000 320.000
19.38500 295.000
19.40000 291.000
19.41500 295.000
19.43000 289.000
19.44500 286.000
19.46000 302.000
19.47500 282.000
19.49000 307.000
19.50500 296.000
19.52000 310.000
19.53500 297.000
19.55000 293.000
19.56500 278.000
19.58000 279.000
19.59500 282.000
19.61000 267.000
19.62500 291.000
19.64000 291.000
19.65500 297.000
19.67000 264.000
19.68500 285.000
19.70000 303.000
19.71500 283.000
19.73000 320.000
19.74500 271.000
19.76000 278.000
19.77500 295.000
19.79000 298.000
19.80500 313.000
19.82000 281.000
19.83500 270.000
19.85000 322.000
19.86500 288.000
19.88000 292.000
19.89500 305.000
19.91000 280.000
19.92500 280.000
19.94000 288.000
19.95500 275.000
19.97000 271.000
19.98500 292.000
20.00000 294.000
20.01500 291.000
20.03000 292.000
20.04500 302.000
20.06000 304.000
20.07500 297.000
20.09000 267.000
20.10500 284.000
20.12000 319.000
20.13500 294.000
20.15000 327.000
20.16500 320.000
20.18000 295.000
20.19500 304.000
20.21000 312.000
20.22500 305.000
20.24000 325.000
20.25500 318.000
20.27000 288.000
20.28500 294.000
20.30000 326.000
20.31500 317.000
20.33000 306.000
20.34500 314.000
20.36000 310.000
20.37500 281.000
20.39000 304.000
20.40500 307.000
20.42000 326.000
20.43500 352.000
20.45000 323.000
20.46500 322.000
20.48000 309.000
20.49500 312.000
20.51000 313.000
20.52500 336.000
20.54000 303.000
20.55500 315.000
20.57000 318.000
20.58500 338.000
20.60000 308.000
20.61500 286.000
20.63000 307.000
20.64500 305.000
20.66000 325.000
20.67500 317.000
20.69000 332.000
20.70500 320.000
20.72000 356.000
20.73500 333.000
20.75000 324.000
20.76500 321.000
20.78000 334.000
20.79500 343.000
20.81000 329.000
20.82500 340.000
20.84000 352.000
20.85500 342.000
20.87000 305.000
20.88500 325.000
20.90000 321.000
20.91500 333.000
20.93000 303.000
20.94500 309.000
20.96000 329.000
20.97500 323.000
20.99000 310.000
21.00500 318.000
21.02000 321.000
21.03500 346.000
21.05000 308.000
21.06500 306.000
21.08000 325.000
21.09500 321.000
21.11000 310.000
21.12500 318.000
21.14000 345.000
21.15500 320.000
21.17000 323.000
21.18500 336.000
21.20000 328.000
21.21500 364.000
21.23000 365.000
21.24500 310.000
21.26000 327.000
21.27500 343.000
21.29000 332.000
21.30500 332.000
21.32000 323.000
21.33500 347.000
21.35000 342.000
21.36500 329.000
21.38000 335.000
21.39500 338.000
21.41000 330.000
21.42500 315.000
21.44000 330.000
21.45500 354.000
21.47000 325.000
21.48500 345.000
21.50000 329.000
21.51500 321.000
21.53000 328.000
21.54500 326.000
21.56000 324.000
21.57500 330.000
21.59000 345.000
21.60500 314.000
21.62000 333.000
21.63500 332.000
21.65000 326.000
21.66500 352.000
21.68000 332.000
21.69500 336.000
21.71000 347.000
21.72500 336.000
21.74000 314.000
21.75500 338.000
21.77000 345.000
21.78500 334.000
21.80000 318.000
21.81500 308.000
21.83000 327.000
21.84500 336.000
21.86000 312.000
21.87500 315.000
21.89000 327.000
21.90500 367.000
21.92000 348.000
21.93500 329.000
21.95000 280.000
21.96500 311.000
21.98000 314.000
21.99500 335.000
22.01000 346.000
22.02500 324.000
22.04000 343.000
22.05500 347.000
22.07000 329.000
22.08500 363.000
22.10000 340.000
22.11500 312.000
22.13000 317.000
22.14500 343.000
22.16000 322.000
22.17500 357.000
22.19000 327.000
22.20500 325.000
22.22000 330.000
22.23500 340.000
22.25000 335.000
22.26500 341.000
22.28000 358.000
22.29500 374.000
22.31000 348.000
22.32500 361.000
22.34000 361.000
22.35500 315.000
22.37000 326.000
22.38500 333.000
22.40000 331.000
22.41500 329.000
22.43000 354.000
22.44500 327.000
22.46000 365.000
22.47500 352.000
22.49000 348.000
22.50500 332.000
22.52000 341.000
22.53500 364.000
22.55000 367.000
22.56500 347.000
22.58000 331.000
22.59500 328.000
22.61000 330.000
22.62500 344.000
22.64000 323.000
22.65500 348.000
22.67000 388.000
22.68500 337.000
22.70000 353.000
22.71500 321.000
22.73000 337.000
22.74500 330.000
22.76000 362.000
22.77500 352.000
22.79000 340.000
22.80500 328.000
22.82000 340.000
22.83500 362.000
22.85000 332.000
22.86500 324.000
22.88000 339.000
22.89500 347.000
22.91000 321.000
22.92500 333.000
22.94000 366.000
22.95500 348.000
22.97000 347.000
22.98500 346.000
23.00000 331.000
23.01500 311.000
23.03000 382.000
23.04500 337.000
23.06000 340.000
23.07500 367.000
23.09000 342.000
23.10500 329.000
23.12000 337.000
23.13500 340.000
23.15000 352.000
23.16500 379.000
23.18000 352.000
23.19500 366.000
23.21000 338.000
23.22500 331.000
23.24000 325.000
23.25500 363.000
23.27000 339.000
23.28500 376.000
23.30000 362.000
23.31500 368.000
23.33000 338.000
23.34500 330.000
23.36000 338.000
23.37500 328.000
23.39000 331.000
23.40500 317.000
23.42000 334.000
23.43500 342.000
23.45000 344.000
23.46500 367.000
23.48000 335.000
23.49500 367.000
23.51000 335.000
23.52500 352.000
23.54000 345.000
23.55500 383.000
23.57000 368.000
23.58500 356.000
23.60000 358.000
23.61500 342.000
23.63000 351.000
23.64500 362.000
23.66000 376.000
23.67500 353.000
23.69000 358.000
23.70500 347.000
23.72000 361.000
23.73500 367.000
23.75000 357.000
23.76500 328.000
23.78000 350.000
23.79500 368.000
23.81000 369.000
23.82500 364.000
23.84000 372.000
23.85500 351.000
23.87000 347.000
23.88500 368.000
23.90000 345.000
23.91500 365.000
23.93000 342.000
23.94500 351.000
23.96000 373.000
23.97500 325.000
23.99000 358.000
24.00500 361.000
24.02000 333.000
24.03500 363.000
24.05000 375.000
24.06500 368.000
24.08000 334.000
24.09500 341.000
24.11000 361.000
24.12500 332.000
24.14000 339.000
24.15500 355.000
24.17000 379.000
24.18500 361.000
24.20000 315.000
24.21500 331.000
24.23000 349.000
24.24500 352.000
24.26000 333.000
24.27500 338.000
24.29000 318.000
24.30500 365.000
24.32000 371.000
24.33500 368.000
24.35000 368.000
24.36500 338.000
24.38000 367.000
24.39500 326.000
24.41000 359.000
24.42500 351.000
24.44000 372.000
24.45500 366.000
24.47000 350.000
24.48500 391.000
24.50000 381.000
24.51500 374.000
24.53000 336.000
24.54500 367.000
24.56000 382.000
24.57500 388.000
24.59000 374.000
24.60500 350.000
24.62000 340.000
24.63500 354.000
24.65000 355.000
24.66500 361.000
24.68000 377.000
24.69500 386.000
24.71000 351.000
24.72500 368.000
24.74000 361.000
24.75500 353.000
24.77000 354.000
24.78500 344.000
24.80000 359.000
24.81500 371.000
24.83000 358.000
24.84500 360.000
24.86000 378.000
24.87500 398.000
24.89000 357.000
24.90500 353.000
24.92000 350.000
24.93500 366.000
24.95000 349.000
24.96500 374.000
24.98000 381.000
24.99500 362.000
25.01000 358.000
25.02500 396.000
25.04000 382.000
25.05500 341.000
25.07000 367.000
25.08500 380.000
25.10000 364.000
25.11500 348.000
25.13000 363.000
25.14500 369.000
25.16000 363.000
25.17500 362.000
25.19000 356.000
25.20500 357.000
25.22000 364.000
25.23500 359.000
25.25000 335.000
25.26500 372.000
25.28000 373.000
25.29500 376.000
25.31000 372.000
25.32500 374.000
25.34000 312.000
25.35500 346.000
25.37000 333.000
25.38500 347.000
25.40000 365.000
25.41500 363.000
25.43000 372.000
25.44500 365.000
25.46000 379.000
25.47500 356.000
25.49000 368.000
25.50500 351.000
25.52000 370.000
25.53500 362.000
25.55000 354.000
25.56500 379.000
25.58000 362.000
25.59500 396.000
25.61000 382.000
25.62500 340.000
25.64000 363.000
25.65500 391.000
25.67000 365.000
25.68500 347.000
25.70000 372.000
25.71500 373.000
25.73000 332.000
25.74500 361.000
25.76000 379.000
25.77500 363.000
25.79000 358.000
25.80500 366.000
25.82000 368.000
25.83500 376.000
25.85000 372.000
25.86500 371.000
25.88000 390.000
25.89500 378.000
25.91000 356.000
25.92500 347.000
25.94000 375.000
25.95500 386.000
25.97000 369.000
25.98500 366.000
26.00000 372.000
26.01500 350.000
26.03000 384.000
26.04500 401.000
26.06000 373.000
26.07500 381.000
26.09000 387.000
26.10500 370.000
26.12000 401.000
26.13500 381.000
26.15000 383.000
26.16500 397.000
26.18000 373.000
26.19500 381.000
26.21000 367.000
26.22500 361.000
26.24000 390.000
26.25500 349.000
26.27000 385.000
26.28500 377.000
26.30000 375.000
26.31500 386.000
26.33000 385.000
26.34500 384.000
26.36000 362.000
26.37500 389.000
26.39000 408.000
26.40500 370.000
26.42000 381.000
26.43500 421.000
26.45000 397.000
26.46500 395.000
26.48000 390.000
26.49500 418.000
26.51000 407.000
26.52500 383.000
26.54000 402.000
26.55500 427.000
26.57000 412.000
26.58500 385.000
26.60000 424.000
26.61500 393.000
26.63000 400.000
26.64500 439.000
26.66000 422.000
26.67500 405.000
26.69000 399.000
26.70500 429.000
26.72000 418.000
26.73500 421.000
26.75000 404.000
26.76500 376.000
26.78000 416.000
26.79500 433.000
26.81000 465.000
26.82500 417.000
26.84000 431.000
26.85500 445.000
26.87000 429.000
26.88500 441.000
26.90000 451.000
26.91500 439.000
26.93000 444.000
26.94500 448.000
26.96000 436.000
26.97500 459.000
26.99000 475.000
27.00500 489.000
27.02000 471.000
27.03500 483.000
27.05000 490.000
27.06500 493.000
27.08000 498.000
27.09500 513.000
27.11000 508.000
27.12500 525.000
27.14000 482.000
27.15500 515.000
27.17000 538.000
27.18500 517.000
27.20000 488.000
27.21500 537.000
27.23000 539.000
27.24500 499.000
27.26000 524.000
27.27500 523.000
27.29000 550.000
27.30500 576.000
27.32000 562.000
27.33500 582.000
27.35000 604.000
27.36500 586.000
27.38000 566.000
27.39500 579.000
27.41000 599.000
27.42500 535.000
27.44000 561.000
27.45500 592.000
27.47000 573.000
27.48500 616.000
27.50000 557.000
27.51500 589.000
27.53000 598.000
27.54500 635.000
27.56000 625.000
27.57500 603.000
27.59000 610.000
27.60500 600.000
27.62000 611.000
27.63500 641.000
27.65000 617.000
27.66500 604.000
27.68000 559.000
27.69500 572.000
27.71000 593.000
27.72500 608.000
27.74000 579.000
27.75500 560.000
27.77000 541.000
27.78500 585.000
27.80000 559.000
27.81500 529.000
27.83000 497.000
27.84500 508.000
27.86000 510.000
27.87500 494.000
27.89000 497.000
27.90500 485.000
27.92000 488.000
27.93500 492.000
27.95000 518.000
27.96500 501.000
27.98000 452.000
27.99500 457.000
28.01000 465.000
28.02500 418.000
28.04000 437.000
28.05500 427.000
28.07000 446.000
28.08500 438.000
28.10000 461.000
28.11500 431.000
28.13000 434.000
28.14500 473.000
28.16000 437.000
28.17500 392.000
28.19000 397.000
28.20500 377.000
28.22000 388.000
28.23500 414.000
28.25000 394.000
28.26500 381.000
28.28000 370.000
28.29500 381.000
28.31000 367.000
28.32500 369.000
28.34000 371.000
28.35500 391.000
28.37000 366.000
28.38500 354.000
28.40000 393.000
28.41500 388.000
28.43000 384.000
28.44500 355.000
28.46000 387.000
28.47500 381.000
28.49000 352.000
28.50500 373.000
28.52000 353.000
28.53500 360.000
28.55000 376.000
28.56500 361.000
28.58000 360.000
28.59500 350.000
28.61000 356.000
28.62500 321.000
28.64000 323.000
28.65500 344.000
28.67000 324.000
28.68500 357.000
28.70000 338.000
28.71500 323.000
28.73000 333.000
28.74500 334.000
28.76000 362.000
28.77500 317.000
28.79000 350.000
28.80500 359.000
28.82000 330.000
28.83500 323.000
28.85000 326.000
28.86500 345.000
28.88000 336.000
28.89500 320.000
28.91000 312.000
28.92500 316.000
28.94000 330.000
28.95500 335.000
28.97000 330.000
28.98500 344.000
29.00000 316.000
29.01500 328.000
29.03000 318.000
29.04500 328.000
29.06000 315.000
29.07500 306.000
29.09000 311.000
29.10500 306.000
29.12000 323.000
29.13500 335.000
29.15000 319.000
29.16500 305.000
29.18000 303.000
29.19500 329.000
29.21000 315.000
29.22500 325.000
29.24000 347.000
29.25500 340.000
29.27000 296.000
29.28500 306.000
29.30000 308.000
29.31500 342.000
29.33000 320.000
29.34500 308.000
29.36000 326.000
29.37500 304.000
29.39000 301.000
29.40500 295.000
29.42000 336.000
29.43500 307.000
29.45000 307.000
29.46500 291.000
29.48000 299.000
29.49500 337.000
29.51000 313.000
29.52500 305.000
29.54000 304.000
29.55500 295.000
29.57000 317.000
29.58500 291.000
29.60000 291.000
29.61500 291.000
29.63000 296.000
29.64500 283.000
29.66000 278.000
29.67500 297.000
29.69000 300.000
29.70500 277.000
29.72000 280.000
29.73500 290.000
29.75000 300.000
29.76500 312.000
29.78000 300.000
29.79500 313.000
29.81000 330.000
29.82500 296.000
29.84000 288.000
29.85500 304.000
29.87000 301.000
29.88500 292.000
29.90000 280.000
29.91500 281.000
29.93000 300.000
29.94500 283.000
29.96000 292.000
29.97500 304.000
29.99000 302.000
30.00500 302.000
30.02000 293.000
30.03500 306.000
30.05000 286.000
30.06500 281.000
30.08000 291.000
30.09500 299.000
30.11000 287.000
30.12500 305.000
30.14000 295.000
30.15500 277.000
30.17000 263.000
30.18500 265.000
30.20000 272.000
30.21500 287.000
30.23000 292.000
30.24500 283.000
30.26000 286.000
30.27500 299.000
30.29000 295.000
30.30500 284.000
30.32000 263.000
30.33500 253.000
30.35000 264.000
30.36500 275.000
30.38000 267.000
30.39500 283.000
30.41000 271.000
30.42500 283.000
30.44000 295.000
30.45500 289.000
30.47000 267.000
30.48500 291.000
30.50000 282.000
30.51500 289.000
30.53000 280.000
30.54500 280.000
30.56000 258.000
30.57500 253.000
30.59000 252.000
30.60500 246.000
30.62000 258.000
30.63500 283.000
30.65000 285.000
30.66500 281.000
30.68000 262.000
30.69500 273.000
30.71000 284.000
30.72500 289.000
30.74000 258.000
30.75500 280.000
30.77000 253.000
30.78500 269.000
30.80000 291.000
30.81500 292.000
30.83000 286.000
30.84500 272.000
30.86000 272.000
30.87500 250.000
30.89000 256.000
30.90500 277.000
30.92000 265.000
30.93500 273.000
30.95000 231.000
30.96500 289.000
30.98000 271.000
30.99500 280.000
31.01000 276.000
31.02500 282.000
31.04000 261.000
31.05500 278.000
31.07000 272.000
31.08500 279.000
31.10000 246.000
31.11500 251.000
31.13000 251.000
31.14500 258.000
31.16000 292.000
31.17500 276.000
31.19000 256.000
31.20500 237.000
31.22000 255.000
31.23500 284.000
31.25000 258.000
31.26500 256.000
31.28000 254.000
31.29500 271.000
31.31000 257.000
31.32500 240.000
31.34000 247.000
31.35500 253.000
31.37000 264.000
31.38500 261.000
31.40000 259.000
31.41500 247.000
31.43000 276.000
31.44500 239.000
31.46000 247.000
31.47500 275.000
31.49000 269.000
31.50500 260.000
31.52000 285.000
31.53500 270.000
31.55000 262.000
31.56500 209.000
31.58000 250.000
31.59500 276.000
31.61000 276.000
31.62500 254.000
31.64000 250.000
31.65500 261.000
31.67000 273.000
31.68500 268.000
31.70000 252.000
31.71500 247.000
31.73000 256.000
31.74500 252.000
31.76000 232.000
31.77500 268.000
31.79000 270.000
31.80500 275.000
31.82000 269.000
31.83500 260.000
31.85000 258.000
31.86500 259.000
31.88000 263.000
31.89500 257.000
31.91000 260.000
31.92500 268.000
31.94000 266.000
31.95500 264.000
31.97000 258.000
31.98500 252.000
32.00000 266.000
32.01500 264.000
32.03000 274.000
32.04500 258.000
32.06000 276.000
32.07500 268.000
32.09000 281.000
32.10500 257.000
32.12000 263.000
32.13500 275.000
32.15000 268.000
32.16500 268.000
32.18000 253.000
32.19500 264.000
32.21000 277.000
32.22500 268.000
32.24000 265.000
32.25500 258.000
32.27000 261.000
32.28500 239.000
32.30000 239.000
32.31500 261.000
32.33000 236.000
32.34500 244.000
32.36000 256.000
32.37500 251.000
32.39000 278.000
32.40500 277.000
32.42000 257.000
32.43500 265.000
32.45000 243.000
32.46500 257.000
32.48000 242.000
32.49500 247.000
32.51000 239.000
32.52500 262.000
32.54000 249.000
32.55500 240.000
32.57000 232.000
32.58500 248.000
32.60000 228.000
32.61500 237.000
32.63000 242.000
32.64500 242.000
32.66000 269.000
32.67500 241.000
32.69000 244.000
32.70500 227.000
32.72000 222.000
32.73500 233.000
32.75000 237.000
32.76500 228.000
32.78000 231.000
32.79500 233.000
32.81000 218.000
32.82500 231.000
32.84000 261.000
32.85500 245.000
32.87000 220.000
32.88500 215.000
32.90000 229.000
32.91500 226.000
32.93000 230.000
32.94500 223.000
32.96000 235.000
32.97500 242.000
32.99000 220.000
33.00500 239.000
33.02000 232.000
33.03500 242.000
33.05000 246.000
33.06500 223.000
33.08000 205.000
33.09500 209.000
33.11000 211.000
33.12500 235.000
33.14000 228.000
33.15500 215.000
33.17000 231.000
33.18500 229.000
33.20000 228.000
33.21500 226.000
33.23000 218.000
33.24500 211.000
33.26000 212.000
33.27500 223.000
33.29000 218.000
33.30500 209.000
33.32000 214.000
33.33500 202.000
33.35000 203.000
33.36500 222.000
33.38000 220.000
33.39500 231.000
33.41000 231.000
33.42500 216.000
33.44000 207.000
33.45500 206.000
33.47000 209.000
33.48500 230.000
33.50000 233.000
33.51500 234.000
33.53000 236.000
33.54500 220.000
33.56000 218.000
33.57500 215.000
33.59000 222.000
33.60500 220.000
33.62000 200.000
33.63500 206.000
33.65000 221.000
33.66500 221.000
33.68000 226.000
33.69500 216.000
33.71000 196.000
33.72500 207.000
33.74000 195.000
33.75500 222.000
33.77000 203.000
33.78500 201.000
33.80000 225.000
33.81500 213.000
33.83000 209.000
33.84500 210.000
33.86000 197.000
33.87500 204.000
33.89000 209.000
33.90500 212.000
33.92000 220.000
33.93500 216.000
33.95000 207.000
33.96500 199.000
33.98000 195.000
33.99500 197.000
34.01000 197.000
34.02500 207.000
34.04000 210.000
34.05500 207.000
34.07000 208.000
34.08500 209.000
34.10000 220.000
34.11500 195.000
34.13000 200.000
34.14500 196.000
34.16000 187.000
34.17500 197.000
34.19000 205.000
34.20500 196.000
34.22000 206.000
34.23500 204.000
34.25000 209.000
34.26500 184.000
34.28000 189.000
34.29500 192.000
34.31000 204.000
34.32500 200.000
34.34000 191.000
34.35500 186.000
34.37000 208.000
34.38500 200.000
34.40000 198.000
34.41500 176.000
34.43000 187.000
34.44500 192.000
34.46000 200.000
34.47500 212.000
34.49000 190.000
34.50500 196.000
34.52000 199.000
34.53500 195.000
34.55000 177.000
34.56500 199.000
34.58000 200.000
34.59500 183.000
34.61000 199.000
34.62500 191.000
34.64000 177.000
34.65500 172.000
34.67000 179.000
34.68500 181.000
34.70000 175.000
34.71500 176.000
34.73000 200.000
34.74500 194.000
34.76000 190.000
34.77500 206.000
34.79000 198.000
34.80500 198.000
34.82000 183.000
34.83500 174.000
34.85000 173.000
34.86500 189.000
34.88000 187.000
34.89500 188.000
34.91000 183.000
34.92500 180.000
34.94000 208.000
34.95500 202.000
34.97000 189.000
34.98500 184.000
35.00000 192.000
35.01500 169.000
35.03000 167.000
35.04500 202.000
35.06000 186.000
35.07500 183.000
35.09000 191.000
35.10500 176.000
35.12000 183.000
35.13500 203.000
35.15000 194.000
35.16500 180.000
35.18000 186.000
35.19500 187.000
35.21000 203.000
35.22500 175.000
35.24000 179.000
35.25500 168.000
35.27000 176.000
35.28500 173.000
35.30000 177.000
35.31500 163.000
35.33000 174.000
35.34500 179.000
35.36000 164.000
35.37500 194.000
35.39000 203.000
35.40500 195.000
35.42000 172.000
35.43500 165.000
35.45000 184.000
35.46500 184.000
35.48000 168.000
35.49500 167.000
35.51000 170.000
35.52500 165.000
35.54000 184.000
35.55500 183.000
35.57000 187.000
35.58500 166.000
35.60000 175.000
35.61500 171.000
35.63000 186.000
35.64500 205.000
35.66000 202.000
35.67500 177.000
35.69000 166.000
35.70500 164.000
35.72000 181.000
35.73500 174.000
35.75000 181.000
35.76500 189.000
35.78000 179.000
35.79500 181.000
35.81000 184.000
35.82500 170.000
35.84000 187.000
35.85500 168.000
35.87000 165.000
35.88500 171.000
35.90000 183.000
35.91500 179.000
35.93000 180.000
35.94500 171.000
35.96000 168.000
35.97500 174.000
35.99000 173.000
36.00500 169.000
36.02000 161.000
36.03500 176.000
36.05000 168.000
36.06500 166.000
36.08000 159.000
36.09500 177.000
36.11000 177.000
36.12500 180.000
36.14000 173.000
36.15500 169.000
36.17000 172.000
36.18500 176.000
36.20000 178.000
36.21500 179.000
36.23000 172.000
36.24500 196.000
36.26000 179.000
36.27500 162.000
36.29000 172.000
36.30500 163.000
36.32000 179.000
36.33500 177.000
36.35000 179.000
36.36500 171.000
36.38000 176.000
36.39500 169.000
36.41000 179.000
36.42500 177.000
36.44000 178.000
36.45500 180.000
36.47000 164.000
36.48500 158.000
36.50000 144.000
36.51500 161.000
36.53000 182.000
36.54500 190.000
36.56000 182.000
36.57500 159.000
36.59000 162.000
36.60500 157.000
36.62000 169.000
36.63500 159.000
36.65000 175.000
36.66500 174.000
36.68000 162.000
36.69500 158.000
36.71000 158.000
36.72500 165.000
36.74000 168.000
36.75500 182.000
36.77000 169.000
36.78500 179.000
36.80000 167.000
36.81500 154.000
36.83000 156.000
36.84500 168.000
36.86000 172.000
36.87500 164.000
36.89000 175.000
36.90500 153.000
36.92000 166.000
36.93500 161.000
36.95000 163.000
36.96500 164.000
36.98000 159.000
36.99500 168.000
37.01000 165.000
37.02500 168.000
37.04000 158.000
37.05500 156.000
37.07000 178.000
37.08500 172.000
37.10000 161.000
37.11500 152.000
37.13000 178.000
37.14500 169.000
37.16000 154.000
37.17500 155.000
37.19000 176.000
37.20500 175.000
37.22000 155.000
37.23500 149.000
37.25000 156.000
37.26500 152.000
37.28000 145.000
37.29500 166.000
37.31000 159.000
37.32500 166.000
37.34000 164.000
37.35500 163.000
37.37000 164.000
37.38500 158.000
37.40000 167.000
37.41500 164.000
37.43000 162.000
37.44500 144.000
37.46000 153.000
37.47500 154.000
37.49000 149.000
37.50500 153.000
37.52000 152.000
37.53500 163.000
37.55000 160.000
37.56500 154.000
37.58000 164.000
37.59500 166.000
37.61000 173.000
37.62500 162.000
37.64000 140.000
37.65500 155.000
37.67000 173.000
37.68500 164.000
37.70000 164.000
37.71500 155.000
37.73000 153.000
37.74500 148.000
37.76000 152.000
37.77500 140.000
37.79000 166.000
37.80500 155.000
37.82000 148.000
37.83500 139.000
37.85000 145.000
37.86500 151.000
37.88000 151.000
37.89500 165.000
37.91000 155.000
37.92500 158.000
37.94000 154.000
37.95500 155.000
37.97000 146.000
37.98500 158.000
38.00000 149.000
38.01500 152.000
38.03000 150.000
38.04500 144.000
38.06000 144.000
38.07500 136.000
38.09000 163.000
38.10500 131.000
38.12000 150.000
38.13500 141.000
38.15000 143.000
38.16500 156.000
38.18000 160.000
38.19500 151.000
38.21000 134.000
38.22500 150.000
38.24000 153.000
38.25500 138.000
38.27000 153.000
38.28500 139.000
38.30000 137.000
38.31500 138.000
38.33000 153.000
38.34500 152.000
38.36000 161.000
38.37500 156.000
38.39000 166.000
38.40500 159.000
38.42000 153.000
38.43500 145.000
38.45000 162.000
38.46500 148.000
38.48000 143.000
38.49500 141.000
38.51000 130.000
38.52500 141.000
38.54000 142.000
38.55500 145.000
38.57000 135.000
38.58500 150.000
38.60000 155.000
38.61500 152.000
38.63000 144.000
38.64500 154.000
38.66000 140.000
38.67500 138.000
38.69000 138.000
38.70500 155.000
38.72000 153.000
38.73500 155.000
38.75000 158.000
38.76500 169.000
38.78000 151.000
38.79500 147.000
38.81000 147.000
38.82500 152.000
38.84000 142.000
38.85500 154.000
38.87000 153.000
38.88500 141.000
38.90000 140.000
38.91500 151.000
38.93000 157.000
38.94500 147.000
38.96000 147.000
38.97500 161.000
38.99000 144.000
39.00500 138.000
39.02000 139.000
39.03500 157.000
39.05000 131.000
39.06500 128.000
39.08000 131.000
39.09500 154.000
39.11000 136.000
39.12500 139.000
39.14000 155.000
39.15500 141.000
39.17000 144.000
39.18500 142.000
39.20000 142.000
39.21500 140.000
39.23000 140.000
39.24500 134.000
39.26000 148.000
39.27500 145.000
39.29000 129.000
39.30500 146.000
39.32000 134.000
39.33500 138.000
39.35000 176.000
39.36500 150.000
39.38000 138.000
39.39500 143.000
39.41000 121.000
39.42500 128.000
39.44000 144.000
39.45500 152.000
39.47000 160.000
39.48500 139.000
39.50000 168.000
39.51500 171.000
39.53000 146.000
39.54500 151.000
39.56000 155.000
39.57500 160.000
39.59000 157.000
39.60500 163.000
39.62000 136.000
39.63500 150.000
39.65000 137.000
39.66500 160.000
39.68000 134.000
39.69500 147.000
39.71000 133.000
39.72500 140.000
39.74000 136.000
39.75500 145.000
39.77000 144.000
39.78500 138.000
39.80000 142.000
39.81500 162.000
39.83000 139.000
39.84500 157.000
39.86000 143.000
39.87500 160.000
39.89000 151.000
39.90500 138.000
39.92000 134.000
39.93500 150.000
39.95000 151.000
39.96500 143.000
39.98000 161.000
39.99500 147.000
40.01000 138.000
40.02500 140.000
40.04000 144.000
40.05500 150.000
40.07000 146.000
40.08500 173.000
40.10000 153.000
40.11500 131.000
40.13000 131.000
40.14500 137.000
40.16000 140.000
40.17500 133.000
40.19000 130.000
40.20500 143.000
40.22000 134.000
40.23500 143.000
40.25000 144.000
40.26500 137.000
40.28000 167.000
40.29500 161.000
40.31000 149.000
40.32500 145.000
40.34000 149.000
40.35500 143.000
40.37000 124.000
40.38500 132.000
40.40000 147.000
40.41500 152.000
40.43000 160.000
40.44500 135.000
40.46000 137.000
40.47500 150.000
40.49000 157.000
40.50500 160.000
40.52000 151.000
40.53500 154.000
40.55000 140.000
40.56500 147.000
40.58000 151.000
40.59500 161.000
40.61000 133.000
40.62500 138.000
40.64000 144.000
40.65500 148.000
40.67000 147.000
40.68500 153.000
40.70000 133.000
40.71500 141.000
40.73000 147.000
40.74500 149.000
40.76000 129.000
40.77500 151.000
40.79000 145.000
40.80500 142.000
40.82000 140.000
40.83500 126.000
40.85000 142.000
40.86500 129.000
40.88000 138.000
40.89500 137.000
40.91000 142.000
40.92500 156.000
40.94000 135.000
40.95500 134.000
40.97000 132.000
40.98500 151.000
41.00000 142.000
41.01500 126.000
41.03000 152.000
41.04500 162.000
41.06000 139.000
41.07500 146.000
41.09000 152.000
41.10500 141.000
41.12000 131.000
41.13500 152.000
41.15000 151.000
41.16500 142.000
41.18000 135.000
41.19500 140.000
41.21000 148.000
41.22500 133.000
41.24000 131.000
41.25500 139.000
41.27000 144.000
41.28500 149.000
41.30000 139.000
41.31500 155.000
41.33000 153.000
41.34500 146.000
41.36000 133.000
41.37500 129.000
41.39000 150.000
41.40500 143.000
41.42000 146.000
41.43500 139.000
41.45000 148.000
41.46500 160.000
41.48000 153.000
41.49500 145.000
41.51000 133.000
41.52500 146.000
41.54000 151.000
41.55500 140.000
41.57000 147.000
41.58500 151.000
41.60000 156.000
41.61500 147.000
41.63000 161.000
41.64500 141.000
41.66000 147.000
41.67500 157.000
41.69000 144.000
41.70500 143.000
41.72000 163.000
41.73500 136.000
41.75000 140.000
41.76500 146.000
41.78000 135.000
41.79500 147.000
41.81000 146.000
41.82500 158.000
41.84000 143.000
41.85500 148.000
41.87000 168.000
41.88500 163.000
41.90000 170.000
41.91500 156.000
41.93000 149.000
41.94500 140.000
41.96000 161.000
41.97500 170.000
41.99000 150.000
42.00500 136.000
42.02000 143.000
42.03500 151.000
42.05000 162.000
42.06500 160.000
42.08000 156.000
42.09500 144.000
42.11000 151.000
42.12500 133.000
42.14000 130.000
42.15500 142.000
42.17000 147.000
42.18500 149.000
42.20000 169.000
42.21500 171.000
42.23000 164.000
42.24500 161.000
42.26000 142.000
42.27500 140.000
42.29000 157.000
42.30500 148.000
42.32000 149.000
42.33500 155.000
42.35000 138.000
42.36500 153.000
42.38000 149.000
42.39500 146.000
42.41000 163.000
42.42500 165.000
42.44000 147.000
42.45500 147.000
42.47000 156.000
42.48500 161.000
42.50000 172.000
42.51500 175.000
42.53000 176.000
42.54500 160.000
42.56000 165.000
42.57500 159.000
42.59000 155.000
42.60500 185.000
42.62000 164.000
42.63500 161.000
42.65000 155.000
42.66500 146.000
42.68000 153.000
42.69500 160.000
42.71000 165.000
42.72500 140.000
42.74000 161.000
42.75500 142.000
42.77000 144.000
42.78500 163.000
42.80000 160.000
42.81500 150.000
42.83000 159.000
42.84500 155.000
42.86000 148.000
42.87500 167.000
42.89000 154.000
42.90500 176.000
42.92000 172.000
42.93500 173.000
42.95000 176.000
42.96500 155.000
42.98000 163.000
42.99500 165.000
43.01000 165.000
43.02500 163.000
43.04000 157.000
43.05500 160.000
43.07000 155.000
43.08500 164.000
43.10000 161.000
43.11500 160.000
43.13000 165.000
43.14500 164.000
43.16000 137.000
43.17500 174.000
43.19000 166.000
43.20500 168.000
43.22000 159.000
43.23500 161.000
43.25000 157.000
43.26500 165.000
43.28000 167.000
43.29500 156.000
43.31000 162.000
43.32500 173.000
43.34000 146.000
43.35500 144.000
43.37000 167.000
43.38500 173.000
43.40000 155.000
43.41500 153.000
43.43000 155.000
43.44500 157.000
43.46000 161.000
43.47500 163.000
43.49000 152.000
43.50500 156.000
43.52000 147.000
43.53500 160.000
43.55000 159.000
43.56500 146.000
43.58000 148.000
43.59500 142.000
43.61000 148.000
43.62500 157.000
43.64000 151.000
43.65500 137.000
43.67000 143.000
43.68500 161.000
43.70000 154.000
43.71500 157.000
43.73000 156.000
43.74500 170.000
43.76000 149.000
43.77500 136.000
43.79000 136.000
43.80500 142.000
43.82000 152.000
43.83500 142.000
43.85000 152.000
43.86500 156.000
43.88000 166.000
43.89500 144.000
43.91000 135.000
43.92500 144.000
43.94000 142.000
43.95500 133.000
43.97000 150.000
43.98500 166.000
44.00000 153.000
44.01500 139.000
44.03000 160.000
44.04500 146.000
44.06000 145.000
44.07500 150.000
44.09000 156.000
44.10500 133.000
44.12000 129.000
44.13500 153.000
44.15000 161.000
44.16500 163.000
44.18000 148.000
44.19500 144.000
44.21000 129.000
44.22500 136.000
44.24000 150.000
44.25500 142.000
44.27000 175.000
44.28500 167.000
44.30000 171.000
44.31500 167.000
44.33000 168.000
44.34500 151.000
44.36000 137.000
44.37500 150.000
44.39000 143.000
44.40500 143.000
44.42000 146.000
44.43500 137.000
44.45000 150.000
44.46500 146.000
44.48000 151.000
44.49500 156.000
44.51000 145.000
44.52500 153.000
44.54000 150.000
44.55500 160.000
44.57000 148.000
44.58500 161.000
44.60000 155.000
44.61500 150.000
44.63000 132.000
44.64500 140.000
44.66000 151.000
44.67500 148.000
44.69000 132.000
44.70500 158.000
44.72000 156.000
44.73500 134.000
44.75000 144.000
44.76500 149.000
44.78000 149.000
44.79500 151.000
44.81000 156.000
44.82500 154.000
44.84000 149.000
44.85500 147.000
44.87000 149.000
44.88500 152.000
44.90000 153.000
44.91500 127.000
44.93000 139.000
44.94500 139.000
44.96000 153.000
44.97500 158.000
44.99000 141.000
45.00500 156.000
45.02000 148.000
45.03500 141.000
45.05000 140.000
45.06500 142.000
45.08000 155.000
45.09500 154.000
45.11000 147.000
45.12500 150.000
45.14000 134.000
45.15500 119.000
45.17000 135.000
45.18500 149.000
45.20000 153.000
45.21500 137.000
45.23000 139.000
45.24500 142.000
45.26000 123.000
45.27500 129.000
45.29000 153.000
45.30500 136.000
45.32000 138.000
45.33500 148.000
45.35000 152.000
45.36500 135.000
45.38000 146.000
45.39500 126.000
45.41000 142.000
45.42500 150.000
45.44000 135.000
45.45500 135.000
45.47000 125.000
45.48500 129.000
45.50000 132.000
45.51500 127.000
45.53000 137.000
45.54500 130.000
45.56000 145.000
45.57500 122.000
45.59000 136.000
45.60500 138.000
45.62000 135.000
45.63500 132.000
45.65000 145.000
45.66500 131.000
45.68000 141.000
45.69500 138.000
45.71000 137.000
45.72500 144.000
45.74000 142.000
45.75500 123.000
45.77000 132.000
45.78500 137.000
45.80000 113.000
45.81500 139.000
45.83000 140.000
45.84500 125.000
45.86000 129.000
45.87500 127.000
45.89000 116.000
45.90500 132.000
45.92000 121.000
45.93500 112.000
45.95000 123.000
45.96500 133.000
45.98000 138.000
45.99500 141.000
46.01000 154.000
46.02500 146.000
46.04000 116.000
46.05500 115.000
46.07000 123.000
46.08500 126.000
46.10000 146.000
46.11500 141.000
46.13000 134.000
46.14500 123.000
46.16000 143.000
46.17500 138.000
46.19000 154.000
46.20500 133.000
46.22000 133.000
46.23500 142.000
46.25000 129.000
46.26500 146.000
46.28000 139.000
46.29500 141.000
46.31000 149.000
46.32500 129.000
46.34000 136.000
46.35500 128.000
46.37000 123.000
46.38500 117.000
46.40000 129.000
46.41500 131.000
46.43000 128.000
46.44500 125.000
46.46000 125.000
46.47500 141.000
46.49000 150.000
46.50500 152.000
46.52000 135.000
46.53500 141.000
46.55000 118.000
46.56500 131.000
46.58000 110.000
46.59500 140.000
46.61000 152.000
46.62500 141.000
46.64000 144.000
46.65500 151.000
46.67000 109.000
46.68500 106.000
46.70000 134.000
46.71500 121.000
46.73000 116.000
46.74500 125.000
46.76000 140.000
46.77500 135.000
46.79000 132.000
46.80500 114.000
46.82000 119.000
46.83500 127.000
46.85000 133.000
46.86500 118.000
46.88000 128.000
46.89500 129.000
46.91000 119.000
46.92500 130.000
46.94000 127.000
46.95500 124.000
46.97000 122.000
46.98500 118.000
47.00000 123.000
47.01500 144.000
47.03000 132.000
47.04500 121.000
47.06000 121.000
47.07500 129.000
47.09000 124.000
47.10500 124.000
47.12000 129.000
47.13500 124.000
47.15000 130.000
47.16500 130.000
47.18000 122.000
47.19500 130.000
47.21000 127.000
47.22500 119.000
47.24000 142.000
47.25500 129.000
47.27000 136.000
47.28500 136.000
47.30000 133.000
47.31500 150.000
47.33000 128.000
47.34500 120.000
47.36000 122.000
47.37500 127.000
47.39000 125.000
47.40500 142.000
47.42000 117.000
47.43500 122.000
47.45000 142.000
47.46500 126.000
47.48000 133.000
47.49500 125.000
47.51000 139.000
47.52500 134.000
47.54000 109.000
47.55500 111.000
47.57000 132.000
47.58500 128.000
47.60000 114.000
47.61500 107.000
47.63000 137.000
47.64500 108.000
47.66000 119.000
47.67500 121.000
47.69000 105.000
47.70500 115.000
47.72000 117.000
47.73500 123.000
47.75000 129.000
47.76500 128.000
47.78000 125.000
47.79500 116.000
47.81000 118.000
47.82500 105.000
47.84000 121.000
47.85500 123.000
47.87000 122.000
47.88500 139.000
47.90000 131.000
47.91500 128.000
47.93000 114.000
47.94500 115.000
47.96000 121.000
47.97500 127.000
47.99000 127.000
48.00500 120.000
48.02000 124.000
48.03500 130.000
48.05000 128.000
48.06500 103.000
48.08000 119.000
48.09500 118.000
48.11000 117.000
48.12500 117.000
48.14000 129.000
48.15500 118.000
48.17000 122.000
48.18500 107.000
48.20000 127.000
48.21500 116.000
48.23000 118.000
48.24500 118.000
48.26000 120.000
48.27500 119.000
48.29000 99.000
48.30500 100.000
48.32000 125.000
48.33500 129.000
48.35000 131.000
48.36500 120.000
48.38000 115.000
48.39500 117.000
48.41000 111.000
48.42500 122.000
48.44000 122.000
48.45500 122.000
48.47000 113.000
48.48500 112.000
48.50000 119.000
48.51500 98.000
48.53000 106.000
48.54500 117.000
48.56000 112.000
48.57500 104.000
48.59000 113.000
48.60500 124.000
48.62000 122.000
48.63500 120.000
48.65000 105.000
48.66500 112.000
48.68000 121.000
48.69500 114.000
48.71000 116.000
48.72500 118.000
48.74000 109.000
48.75500 114.000
48.77000 124.000
48.78500 115.000
48.80000 121.000
48.81500 117.000
48.83000 129.000
48.84500 109.000
48.86000 122.000
48.87500 116.000
48.89000 115.000
48.90500 103.000
48.92000 113.000
48.93500 113.000
48.95000 108.000
48.96500 111.000
48.98000 122.000
48.99500 125.000
49.01000 133.000
49.02500 103.000
49.04000 118.000
49.05500 118.000
49.07000 117.000
49.08500 124.000
49.10000 130.000
49.11500 116.000
49.13000 123.000
49.14500 113.000
49.16000 113.000
49.17500 118.000
49.19000 134.000
49.20500 106.000
49.22000 121.000
49.23500 115.000
49.25000 119.000
49.26500 105.000
49.28000 121.000
49.29500 139.000
49.31000 111.000
49.32500 118.000
49.34000 120.000
49.35500 111.000
49.37000 116.000
49.38500 108.000
49.40000 131.000
49.41500 117.000
49.43000 119.000
49.44500 107.000
49.46000 116.000
49.47500 125.000
49.49000 123.000
49.50500 128.000
49.52000 109.000
49.53500 101.000
49.55000 108.000
49.56500 120.000
49.58000 106.000
49.59500 116.000
49.61000 123.000
49.62500 120.000
49.64000 104.000
49.65500 103.000
49.67000 105.000
49.68500 114.000
49.70000 106.000
49.71500 120.000
49.73000 120.000
49.74500 107.000
49.76000 137.000
49.77500 116.000
49.79000 114.000
49.80500 113.000
49.82000 114.000
49.83500 125.000
49.85000 118.000
49.86500 101.000
49.88000 121.000
49.89500 96.000
49.91000 105.000
49.92500 124.000
49.94000 115.000
49.95500 104.000
49.97000 101.000
49.98500 109.000
50.00000 126.000
50.01500 134.000
50.03000 127.000
50.04500 125.000
50.06000 109.000
50.07500 132.000
50.09000 124.000
50.10500 114.000
50.12000 131.000
50.13500 129.000
50.15000 134.000
50.16500 132.000
50.18000 125.000
50.19500 116.000
50.21000 120.000
50.22500 100.000
50.24000 99.000
50.25500 105.000
50.27000 101.000
50.28500 113.000
50.30000 108.000
50.31500 113.000
50.33000 120.000
50.34500 112.000
50.36000 114.000
50.37500 110.000
50.39000 111.000
50.40500 102.000
50.42000 109.000
50.43500 114.000
50.45000 125.000
50.46500 108.000
50.48000 109.000
50.49500 108.000
50.51000 107.000
50.52500 111.000
50.54000 126.000
50.55500 114.000
50.57000 121.000
50.58500 126.000
50.60000 113.000
50.61500 117.000
50.63000 108.000
50.64500 108.000
50.66000 104.000
50.67500 103.000
50.69000 104.000
50.70500 112.000
50.72000 111.000
50.73500 100.000
50.75000 123.000
50.76500 117.000
50.78000 113.000
50.79500 117.000
50.81000 107.000
50.82500 113.000
50.84000 108.000
50.85500 98.000
50.87000 108.000
50.88500 117.000
50.90000 113.000
50.91500 103.000
50.93000 107.000
50.94500 114.000
50.96000 92.000
50.97500 112.000
50.99000 109.000
51.00500 107.000
51.02000 109.000
51.03500 113.000
51.05000 110.000
51.06500 108.000
51.08000 99.000
51.09500 95.000
51.11000 108.000
51.12500 121.000
51.14000 116.000
51.15500 113.000
51.17000 111.000
51.18500 105.000
51.20000 135.000
51.21500 101.000
51.23000 102.000
51.24500 110.000
51.26000 121.000
51.27500 112.000
51.29000 107.000
51.30500 102.000
51.32000 102.000
51.33500 113.000
51.35000 112.000
51.36500 97.000
51.38000 107.000
51.39500 113.000
51.41000 112.000
51.42500 111.000
51.44000 113.000
51.45500 106.000
51.47000 104.000
51.48500 108.000
51.50000 110.000
51.51500 111.000
51.53000 101.000
51.54500 103.000
51.56000 113.000
51.57500 107.000
51.59000 108.000
51.60500 103.000
51.62000 95.000
51.63500 120.000
51.65000 109.000
51.66500 116.000
51.68000 110.000
51.69500 112.000
51.71000 106.000
51.72500 122.000
51.74000 101.000
51.75500 107.000
51.77000 99.000
51.78500 96.000
51.80000 103.000
51.81500 123.000
51.83000 100.000
51.84500 104.000
51.86000 105.000
51.87500 107.000
51.89000 111.000
51.90500 113.000
51.92000 106.000
51.93500 99.000
51.95000 112.000
51.96500 115.000
51.98000 101.000
51.99500 116.000
52.01000 90.000
52.02500 97.000
52.04000 93.000
52.05500 105.000
52.07000 119.000
52.08500 103.000
52.10000 112.000
52.11500 118.000
52.13000 116.000
52.14500 121.000
52.16000 119.000
52.17500 104.000
52.19000 108.000
52.20500 99.000
52.22000 106.000
52.23500 112.000
52.25000 130.000
52.26500 113.000
52.28000 105.000
52.29500 91.000
52.31000 92.000
52.32500 102.000
52.34000 104.000
52.35500 111.000
52.37000 113.000
52.38500 100.000
52.40000 108.000
52.41500 105.000
52.43000 108.000
52.44500 92.000
52.46000 108.000
52.47500 103.000
52.49000 108.000
52.50500 95.000
52.52000 102.000
52.53500 121.000
52.55000 126.000
52.56500 118.000
52.58000 109.000
52.59500 122.000
52.61000 112.000
52.62500 108.000
52.64000 113.000
52.65500 99.000
52.67000 113.000
52.68500 119.000
52.70000 121.000
52.71500 114.000
52.73000 101.000
52.74500 99.000
52.76000 116.000
52.77500 110.000
52.79000 101.000
52.80500 105.000
52.82000 111.000
52.83500 100.000
52.85000 112.000
52.86500 102.000
52.88000 108.000
52.89500 108.000
52.91000 106.000
52.92500 103.000
52.94000 100.000
52.95500 98.000
52.97000 108.000
52.98500 99.000
53.00000 101.000
53.01500 100.000
53.03000 119.000
53.04500 112.000
53.06000 102.000
53.07500 113.000
53.09000 112.000
53.10500 116.000
53.12000 116.000
53.13500 121.000
53.15000 99.000
53.16500 107.000
53.18000 109.000
53.19500 108.000
53.21000 94.000
53.22500 104.000
53.24000 97.000
53.25500 103.000
53.27000 102.000
53.28500 106.000
53.30000 99.000
53.31500 109.000
53.33000 118.000
53.34500 124.000
53.36000 119.000
53.37500 108.000
53.39000 108.000
53.40500 109.000
53.42000 104.000
53.43500 100.000
53.45000 100.000
53.46500 115.000
53.48000 112.000
53.49500 112.000
53.51000 106.000
53.52500 106.000
53.54000 118.000
53.55500 105.000
53.57000 113.000
53.58500 102.000
53.60000 110.000
53.61500 115.000
53.63000 102.000
53.64500 112.000
53.66000 118.000
53.67500 101.000
53.69000 104.000
53.70500 117.000
53.72000 114.000
53.73500 106.000
53.75000 101.000
53.76500 107.000
53.78000 115.000
53.79500 119.000
53.81000 107.000
53.82500 110.000
53.84000 122.000
53.85500 118.000
53.87000 112.000
53.88500 120.000
53.90000 123.000
53.91500 110.000
53.93000 90.000
53.94500 99.000
53.96000 89.000
53.97500 109.000
53.99000 128.000
54.00500 118.000
54.02000 106.000
54.03500 107.000
54.05000 108.000
54.06500 113.000
54.08000 112.000
54.09500 109.000
54.11000 109.000
54.12500 116.000
54.14000 102.000
54.15500 106.000
54.17000 110.000
54.18500 109.000
54.20000 111.000
54.21500 104.000
54.23000 107.000
54.24500 101.000
54.26000 112.000
54.27500 118.000
54.29000 114.000
54.30500 118.000
54.32000 116.000
54.33500 108.000
54.35000 114.000
54.36500 108.000
54.38000 106.000
54.39500 110.000
54.41000 105.000
54.42500 103.000
54.44000 115.000
54.45500 114.000
54.47000 126.000
54.48500 126.000
54.50000 114.000
54.51500 111.000
54.53000 115.000
54.54500 106.000
54.56000 115.000
54.57500 113.000
54.59000 108.000
54.60500 98.000
54.62000 106.000
54.63500 116.000
54.65000 109.000
54.66500 101.000
54.68000 124.000
54.69500 105.000
54.71000 120.000
54.72500 97.000
54.74000 101.000
54.75500 101.000
54.77000 108.000
54.78500 109.000
54.80000 137.000
54.81500 105.000
54.83000 127.000
54.84500 114.000
54.86000 102.000
54.87500 99.000
54.89000 102.000
54.90500 106.000
54.92000 101.000
54.93500 98.000
54.95000 106.000
54.96500 104.000
54.98000 113.000
54.99500 124.000
55.01000 110.000
55.02500 116.000
55.04000 111.000
55.05500 117.000
55.07000 109.000
55.08500 103.000
55.10000 114.000
55.11500 118.000
55.13000 121.000
55.14500 115.000
55.16000 110.000
55.17500 106.000
55.19000 98.000
55.20500 104.000
55.22000 102.000
55.23500 107.000
55.25000 103.000
55.26500 119.000
55.28000 121.000
55.29500 118.000
55.31000 98.000
55.32500 97.000
55.34000 102.000
55.35500 120.000
55.37000 111.000
55.38500 101.000
55.40000 119.000
55.41500 121.000
55.43000 119.000
55.44500 133.000
55.46000 124.000
55.47500 103.000
55.49000 111.000
55.50500 120.000
55.52000 125.000
55.53500 113.000
55.55000 119.000
55.56500 115.000
55.58000 101.000
55.59500 118.000
55.61000 121.000
55.62500 111.000
55.64000 106.000
55.65500 115.000
55.67000 129.000
55.68500 121.000
55.70000 133.000
55.71500 120.000
55.73000 124.000
55.74500 108.000
55.76000 111.000
55.77500 115.000
55.79000 105.000
55.80500 125.000
55.82000 131.000
55.83500 120.000
55.85000 106.000
55.86500 107.000
55.88000 112.000
55.89500 115.000
55.91000 116.000
55.92500 111.000
55.94000 102.000
55.95500 97.000
55.97000 102.000
55.98500 98.000
56.00000 101.000
56.01500 127.000
56.03000 104.000
56.04500 106.000
56.06000 103.000
56.07500 113.000
56.09000 98.000
56.10500 106.000
56.12000 123.000
56.13500 123.000
56.15000 117.000
56.16500 110.000
56.18000 122.000
56.19500 123.000
56.21000 125.000
56.22500 115.000
56.24000 104.000
56.25500 107.000
56.27000 113.000
56.28500 116.000
56.30000 113.000
56.31500 113.000
56.33000 110.000
56.34500 98.000
56.36000 104.000
56.37500 105.000
56.39000 106.000
56.40500 112.000
56.42000 124.000
56.43500 112.000
56.45000 104.000
56.46500 107.000
56.48000 115.000
56.49500 123.000
56.51000 115.000
56.52500 117.000
56.54000 113.000
56.55500 122.000
56.57000 121.000
56.58500 98.000
56.60000 114.000
56.61500 108.000
56.63000 101.000
56.64500 116.000
56.66000 107.000
56.67500 126.000
56.69000 117.000
56.70500 118.000
56.72000 125.000
56.73500 117.000
56.75000 123.000
56.76500 124.000
56.78000 124.000
56.79500 119.000
56.81000 105.000
56.82500 111.000
56.84000 118.000
56.85500 113.000
56.87000 101.000
56.88500 123.000
56.90000 107.000
56.91500 112.000
56.93000 109.000
56.94500 103.000
56.96000 109.000
56.97500 105.000
56.99000 120.000
57.00500 118.000
57.02000 125.000
57.03500 128.000
57.05000 106.000
57.06500 101.000
57.08000 113.000
57.09500 108.000
57.11000 107.000
57.12500 111.000
57.14000 129.000
57.15500 121.000
57.17000 108.000
57.18500 116.000
57.20000 113.000
57.21500 107.000
57.23000 140.000
57.24500 123.000
57.26000 118.000
57.27500 105.000
57.29000 118.000
57.30500 125.000
57.32000 124.000
57.33500 131.000
57.35000 115.000
57.36500 94.000
57.38000 100.000
57.39500 108.000
57.41000 118.000
57.42500 108.000
57.44000 111.000
57.45500 115.000
57.47000 99.000
57.48500 114.000
57.50000 111.000
57.51500 129.000
57.53000 107.000
57.54500 105.000
57.56000 121.000
57.57500 105.000
57.59000 118.000
57.60500 124.000
57.62000 125.000
57.63500 108.000
57.65000 105.000
57.66500 110.000
57.68000 102.000
57.69500 115.000
57.71000 106.000
57.72500 128.000
57.74000 125.000
57.75500 104.000
57.77000 105.000
57.78500 100.000
57.80000 102.000
57.81500 110.000
57.83000 105.000
57.84500 108.000
57.86000 109.000
57.87500 119.000
57.89000 119.000
57.90500 105.000
57.92000 106.000
57.93500 111.000
57.95000 108.000
57.96500 118.000
57.98000 115.000
57.99500 105.000
58.01000 111.000
58.02500 101.000
58.04000 94.000
58.05500 115.000
58.07000 108.000
58.08500 118.000
58.10000 116.000
58.11500 107.000
58.13000 104.000
58.14500 99.000
58.16000 110.000
58.17500 120.000
58.19000 97.000
58.20500 104.000
58.22000 115.000
58.23500 114.000
58.25000 103.000
58.26500 104.000
58.28000 101.000
58.29500 106.000
58.31000 112.000
58.32500 96.000
58.34000 111.000
58.35500 122.000
58.37000 108.000
58.38500 97.000
58.40000 93.000
58.41500 105.000
58.43000 93.000
58.44500 89.000
58.46000 99.000
58.47500 113.000
58.49000 117.000
58.50500 99.000
58.52000 104.000
58.53500 107.000
58.55000 99.000
58.56500 96.000
58.58000 104.000
58.59500 106.000
58.61000 110.000
58.62500 92.000
58.64000 101.000
58.65500 102.000
58.67000 109.000
58.68500 111.000
58.70000 113.000
58.71500 118.000
58.73000 110.000
58.74500 113.000
58.76000 113.000
58.77500 109.000
58.79000 104.000
58.80500 120.000
58.82000 96.000
58.83500 103.000
58.85000 109.000
58.86500 96.000
58.88000 103.000
58.89500 109.000
58.91000 113.000
58.92500 102.000
58.94000 118.000
58.95500 112.000
58.97000 107.000
58.98500 97.000
59.00000 107.000
59.01500 110.000
59.03000 102.000
59.04500 111.000
59.06000 113.000
59.07500 96.000
59.09000 115.000
59.10500 107.000
59.12000 120.000
59.13500 104.000
59.15000 109.000
59.16500 110.000
59.18000 110.000
59.19500 110.000
59.21000 117.000
59.22500 107.000
59.24000 102.000
59.25500 111.000
59.27000 108.000
59.28500 100.000
59.30000 92.000
59.31500 102.000
59.33000 90.000
59.34500 98.000
59.36000 87.000
59.37500 87.000
59.39000 90.000
59.40500 113.000
59.42000 111.000
59.43500 107.000
59.45000 101.000
59.46500 106.000
59.48000 115.000
59.49500 117.000
59.51000 110.000
59.52500 107.000
59.54000 103.000
59.55500 99.000
59.57000 111.000
59.58500 92.000
59.60000 103.000
59.61500 108.000
59.63000 107.000
59.64500 95.000
59.66000 97.000
59.67500 93.000
59.69000 92.000
59.70500 102.000
59.72000 104.000
59.73500 99.000
59.75000 92.000
59.76500 108.000
59.78000 102.000
59.79500 112.000
59.81000 106.000
59.82500 94.000
59.84000 95.000
59.85500 114.000
59.87000 112.000
59.88500 113.000
59.90000 98.000
59.91500 123.000
59.93000 114.000
59.94500 113.000
59.96000 110.000
59.97500 98.000
59.99000 104.000
60.00500 116.000
60.02000 112.000
60.03500 100.000
60.05000 112.000
60.06500 122.000
60.08000 110.000
60.09500 105.000
60.11000 90.000
60.12500 89.000
60.14000 93.000
60.15500 99.000
60.17000 108.000
60.18500 98.000
60.20000 106.000
60.21500 97.000
60.23000 93.000
60.24500 101.000
60.26000 100.000
60.27500 113.000
60.29000 95.000
60.30500 103.000
60.32000 104.000
60.33500 120.000
60.35000 109.000
60.36500 98.000
60.38000 81.000
60.39500 103.000
60.41000 104.000
60.42500 95.000
60.44000 96.000
60.45500 105.000
60.47000 102.000
60.48500 96.000
60.50000 90.000
60.51500 99.000
60.53000 92.000
60.54500 78.000
60.56000 88.000
60.57500 99.000
60.59000 112.000
60.60500 92.000
60.62000 100.000
60.63500 118.000
60.65000 105.000
60.66500 112.000
60.68000 105.000
60.69500 90.000
60.71000 96.000
60.72500 97.000
60.74000 114.000
60.75500 104.000
60.77000 105.000
60.78500 105.000
60.80000 94.000
60.81500 96.000
60.83000 103.000
60.84500 107.000
60.86000 99.000
60.87500 105.000
60.89000 99.000
60.90500 97.000
60.92000 94.000
60.93500 92.000
60.95000 90.000
60.96500 107.000
60.98000 114.000
60.99500 130.000
61.01000 110.000
61.02500 96.000
61.04000 92.000
61.05500 96.000
61.07000 100.000
61.08500 102.000
61.10000 104.000
61.11500 106.000
61.13000 104.000
61.14500 97.000
61.16000 91.000
61.17500 96.000
61.19000 102.000
61.20500 100.000
61.22000 96.000
61.23500 98.000
61.25000 109.000
61.26500 115.000
61.28000 105.000
61.29500 109.000
61.31000 106.000
61.32500 111.000
61.34000 99.000
61.35500 107.000
61.37000 89.000
61.38500 83.000
61.40000 102.000
61.41500 104.000
61.43000 107.000
61.44500 102.000
61.46000 109.000
61.47500 112.000
61.49000 98.000
61.50500 96.000
61.52000 77.000
61.53500 87.000
61.55000 87.000
61.56500 88.000
61.58000 90.000
61.59500 89.000
61.61000 90.000
61.62500 90.000
61.64000 104.000
61.65500 127.000
61.67000 103.000
61.68500 104.000
61.70000 104.000
61.71500 90.000
61.73000 90.000
61.74500 91.000
61.76000 98.000
61.77500 106.000
61.79000 115.000
61.80500 99.000
61.82000 83.000
61.83500 86.000
61.85000 101.000
61.86500 108.000
61.88000 102.000
61.89500 106.000
61.91000 99.000
61.92500 106.000
61.94000 108.000
61.95500 101.000
61.97000 103.000
61.98500 105.000
