2.00000 4.000
2.01500 5.000
2.03000 10.000
2.04500 9.000
2.06000 10.000
2.07500 8.000
2.09000 7.000
2.10500 4.000
2.12000 7.000
2.13500 9.000
2.15000 7.000
2.16500 9.000
2.18000 8.000
2.19500 6.000
2.21000 4.000
2.22500 4.000
2.24000 4.000
2.25500 7.000
2.27000 7.000
2.28500 6.000
2.30000 7.000
2.31500 9.000
2.33000 8.000
2.34500 8.000
2.36000 8.000
2.37500 7.000
2.39000 4.000
2.40500 3.000
2.42000 4.000
2.43500 7.000
2.45000 3.000
2.46500 7.000
2.48000 4.000
2.49500 4.000
2.51000 5.000
2.52500 3.000
2.54000 6.000
2.55500 3.000
2.57000 4.000
2.58500 6.000
2.60000 6.000
2.61500 7.000
2.63000 11.000
2.64500 9.000
2.66000 6.000
2.67500 5.000
2.69000 8.000
2.70500 5.000
2.72000 2.000
2.73500 6.000
2.75000 8.000
2.76500 3.000
2.78000 6.000
2.79500 8.000
2.81000 7.000
2.82500 5.000
2.84000 9.000
2.85500 6.000
2.87000 3.000
2.88500 6.000
2.90000 4.000
2.91500 3.000
2.93000 6.000
2.94500 4.000
2.96000 5.000
2.97500 8.000
2.99000 7.000
3.00500 6.000
3.02000 6.000
3.03500 7.000
3.05000 4.000
3.06500 4.000
3.08000 5.000
3.09500 3.000
3.11000 6.000
3.12500 12.000
3.14000 14.000
3.15500 19.000
3.17000 27.000
3.18500 42.000
3.20000 100.000
3.21500 214.000
3.23000 398.000
3.24500 675.000
3.26000 948.000
3.27500 1264.000
3.29000 1535.000
3.30500 1709.000
3.32000 1924.000
3.33500 2060.000
3.35000 2006.000
3.36500 2037.000
3.38000 1992.000
3.39500 2042.000
3.41000 2022.000
3.42500 2007.000
3.44000 2029.000
3.45500 2012.000
3.47000 2031.000
3.48500 1970.000
3.50000 1977.000
3.51500 1934.000
3.53000 1965.000
3.54500 1896.000
3.56000 1961.000
3.57500 1881.000
3.59000 1863.000
3.60500 1833.000
3.62000 1874.000
3.63500 1878.000
3.65000 1827.000
3.66500 1762.000
3.68000 1780.000
3.69500 1845.000
3.71000 1842.000
3.72500 1854.000
3.74000 1760.000
3.75500 1752.000
3.77000 1691.000
3.78500 1669.000
3.80000 1686.000
3.81500 1676.000
3.83000 1677.000
3.84500 1663.000
3.86000 1668.000
3.87500 1593.000
3.89000 1646.000
3.90500 1646.000
3.92000 1623.000
3.93500 1658.000
3.95000 1621.000
3.96500 1588.000
3.98000 1598.000
3.99500 1601.000
4.01000 1555.000
4.02500 1590.000
4.04000 1571.000
4.05500 1523.000
4.07000 1575.000
4.08500 1544.000
4.10000 1551.000
4.11500 1489.000
4.13000 1498.000
4.14500 1486.000
4.16000 1509.000
4.17500 1521.000
4.19000 1470.000
4.20500 1471.000
4.22000 1458.000
4.23500 1435.000
4.25000 1444.000
4.26500 1527.000
4.28000 1449.000
4.29500 1401.000
4.31000 1379.000
4.32500 1384.000
4.34000 1414.000
4.35500 1377.000
4.37000 1341.000
4.38500 1348.000
4.40000 1411.000
4.41500 1369.000
4.43000 1418.000
4.44500 1352.000
4.46000 1316.000
4.47500 1327.000
4.49000 1363.000
4.50500 1337.000
4.52000 1280.000
4.53500 1239.000
4.55000 1247.000
4.56500 1246.000
4.58000 1243.000
4.59500 1326.000
4.61000 1332.000
4.62500 1291.000
4.64000 1246.000
4.65500 1235.000
4.67000 1202.000
4.68500 1181.000
4.70000 1171.000
4.71500 1284.000
4.73000 1257.000
4.74500 1203.000
4.76000 1218.000
4.77500 1248.000
4.79000 1224.000
4.80500 1207.000
4.82000 1156.000
4.83500 1149.000
4.85000 1173.000
4.86500 1113.000
4.88000 1136.000
4.89500 1110.000
4.91000 1164.000
4.92500 1086.000
4.94000 1151.000
4.95500 1142.000
4.97000 1133.000
4.98500 1115.000
5.00000 1069.000
5.01500 1109.000
5.03000 1140.000
5.04500 1107.000
5.06000 1168.000
5.07500 1113.000
5.09000 1060.000
5.10500 1064.000
5.12000 1058.000
5.13500 1081.000
5.15000 1074.000
5.16500 1124.000
5.18000 1038.000
5.19500 1097.000
5.21000 1051.000
5.22500 1031.000
5.24000 1077.000
5.25500 1081.000
5.27000 1061.000
5.28500 1065.000
5.30000 1024.000
5.31500 1052.000
5.33000 1024.000
5.34500 1029.000
5.36000 1015.000
5.37500 1009.000
5.39000 1018.000
5.40500 1012.000
5.42000 997.000
5.43500 1024.000
5.45000 1007.000
5.46500 988.000
5.48000 1001.000
5.49500 997.000
5.51000 1044.000
5.52500 988.000
5.54000 943.000
5.55500 981.000
5.57000 952.000
5.58500 958.000
5.60000 942.000
5.61500 957.000
5.63000 975.000
5.64500 918.000
5.66000 967.000
5.67500 989.000
5.69000 962.000
5.70500 927.000
5.72000 914.000
5.73500 934.000
5.75000 941.000
5.76500 947.000
5.78000 912.000
5.79500 953.000
5.81000 924.000
5.82500 886.000
5.84000 909.000
5.85500 902.000
5.87000 905.000
5.88500 889.000
5.90000 950.000
5.91500 955.000
5.93000 906.000
5.94500 916.000
5.96000 933.000
5.97500 958.000
5.99000 896.000
6.00500 864.000
6.02000 873.000
6.03500 923.000
6.05000 855.000
6.06500 906.000
6.08000 898.000
6.09500 912.000
6.11000 924.000
6.12500 872.000
6.14000 880.000
6.15500 936.000
6.17000 943.000
6.18500 943.000
6.20000 939.000
6.21500 976.000
6.23000 934.000
6.24500 945.000
6.26000 966.000
6.27500 1011.000
6.29000 926.000
6.30500 984.000
6.32000 974.000
6.33500 920.000
6.35000 882.000
6.36500 829.000
6.38000 844.000
6.39500 827.000
6.41000 822.000
6.42500 825.000
6.44000 867.000
6.45500 819.000
6.47000 818.000
6.48500 799.000
6.50000 811.000
6.51500 833.000
6.53000 802.000
6.54500 806.000
6.56000 795.000
6.57500 816.000
6.59000 818.000
6.60500 810.000
6.62000 821.000
6.63500 804.000
6.65000 771.000
6.66500 801.000
6.68000 787.000
6.69500 817.000
6.71000 801.000
6.72500 794.000
6.74000 826.000
6.75500 778.000
6.77000 775.000
6.78500 822.000
6.80000 781.000
6.81500 808.000
6.83000 779.000
6.84500 729.000
6.86000 754.000
6.87500 749.000
6.89000 772.000
6.90500 796.000
6.92000 777.000
6.93500 765.000
6.95000 750.000
6.96500 752.000
6.98000 723.000
6.99500 762.000
7.01000 749.000
7.02500 746.000
7.04000 756.000
7.05500 780.000
7.07000 744.000
7.08500 777.000
7.10000 720.000
7.11500 741.000
7.13000 775.000
7.14500 734.000
7.16000 755.000
7.17500 740.000
7.19000 734.000
7.20500 726.000
7.22000 786.000
7.23500 786.000
7.25000 746.000
7.26500 746.000
7.28000 757.000
7.29500 756.000
7.31000 747.000
7.32500 750.000
7.34000 765.000
7.35500 764.000
7.37000 747.000
7.38500 730.000
7.40000 704.000
7.41500 732.000
7.43000 686.000
7.44500 680.000
7.46000 704.000
7.47500 754.000
7.49000 739.000
7.50500 734.000
7.52000 725.000
7.53500 724.000
7.55000 725.000
7.56500 698.000
7.58000 708.000
7.59500 685.000
7.61000 691.000
7.62500 712.000
7.64000 700.000
7.65500 745.000
7.67000 717.000
7.68500 653.000
7.70000 710.000
7.71500 695.000
7.73000 661.000
7.74500 686.000
7.76000 690.000
7.77500 699.000
7.79000 702.000
7.80500 711.000
7.82000 687.000
7.83500 665.000
7.85000 656.000
7.86500 662.000
7.88000 690.000
7.89500 687.000
7.91000 665.000
7.92500 701.000
7.94000 681.000
7.95500 636.000
7.97000 651.000
7.98500 689.000
8.00000 644.000
8.01500 659.000
8.03000 738.000
8.04500 723.000
8.06000 733.000
8.07500 696.000
8.09000 717.000
8.10500 684.000
8.12000 665.000
8.13500 670.000
8.15000 661.000
8.16500 678.000
8.18000 690.000
8.19500 667.000
8.21000 678.000
8.22500 673.000
8.24000 670.000
8.25500 727.000
8.27000 676.000
8.28500 664.000
8.30000 678.000
8.31500 689.000
8.33000 648.000
8.34500 710.000
8.36000 662.000
8.37500 687.000
8.39000 685.000
8.40500 720.000
8.42000 695.000
8.43500 725.000
8.45000 705.000
8.46500 674.000
8.48000 657.000
8.49500 682.000
8.51000 683.000
8.52500 688.000
8.54000 671.000
8.55500 669.000
8.57000 645.000
8.58500 666.000
8.60000 700.000
8.61500 650.000
8.63000 668.000
8.64500 680.000
8.66000 683.000
8.67500 671.000
8.69000 700.000
8.70500 671.000
8.72000 664.000
8.73500 678.000
8.75000 663.000
8.76500 664.000
8.78000 659.000
8.79500 638.000
8.81000 672.000
8.82500 670.000
8.84000 693.000
8.85500 682.000
8.87000 689.000
8.88500 673.000
8.90000 661.000
8.91500 692.000
8.93000 695.000
8.94500 674.000
8.96000 657.000
8.97500 684.000
8.99000 670.000
9.00500 647.000
9.02000 669.000
9.03500 676.000
9.05000 654.000
9.06500 654.000
9.08000 651.000
9.09500 682.000
9.11000 635.000
9.12500 629.000
9.14000 615.000
9.15500 602.000
9.17000 612.000
9.18500 637.000
9.20000 683.000
9.21500 695.000
9.23000 611.000
9.24500 647.000
9.26000 651.000
9.27500 619.000
9.29000 598.000
9.30500 609.000
9.32000 641.000
9.33500 639.000
9.35000 636.000
9.36500 634.000
9.38000 637.000
9.39500 622.000
9.41000 642.000
9.42500 658.000
9.44000 647.000
9.45500 648.000
9.47000 673.000
9.48500 644.000
9.50000 672.000
9.51500 651.000
9.53000 651.000
9.54500 663.000
9.56000 648.000
9.57500 637.000
9.59000 669.000
9.60500 615.000
9.62000 621.000
9.63500 643.000
9.65000 631.000
9.66500 637.000
9.68000 677.000
9.69500 674.000
9.71000 677.000
9.72500 696.000
9.74000 674.000
9.75500 671.000
9.77000 660.000
9.78500 678.000
9.80000 691.000
9.81500 711.000
9.83000 682.000
9.84500 682.000
9.86000 698.000
9.87500 698.000
9.89000 678.000
9.90500 692.000
9.92000 679.000
9.93500 669.000
9.95000 670.000
9.96500 678.000
9.98000 712.000
9.99500 671.000
10.01000 662.000
10.02500 672.000
10.04000 618.000
10.05500 649.000
10.07000 656.000
10.08500 667.000
10.10000 718.000
10.11500 631.000
10.13000 602.000
10.14500 670.000
10.16000 642.000
10.17500 657.000
10.19000 689.000
10.20500 676.000
10.22000 646.000
10.23500 648.000
10.25000 655.000
10.26500 693.000
10.28000 651.000
10.29500 693.000
10.31000 656.000
10.32500 671.000
10.34000 694.000
10.35500 670.000
10.37000 698.000
10.38500 692.000
10.40000 686.000
10.41500 726.000
10.43000 723.000
10.44500 724.000
10.46000 719.000
10.47500 734.000
10.49000 708.000
10.50500 662.000
10.52000 684.000
10.53500 657.000
10.55000 679.000
10.56500 681.000
10.58000 729.000
10.59500 715.000
10.61000 726.000
10.62500 728.000
10.64000 711.000
10.65500 749.000
10.67000 707.000
10.68500 702.000
10.70000 745.000
10.71500 714.000
10.73000 706.000
10.74500 695.000
10.76000 715.000
10.77500 725.000
10.79000 713.000
10.80500 731.000
10.82000 723.000
10.83500 724.000
10.85000 730.000
10.86500 697.000
10.88000 737.000
10.89500 744.000
10.91000 755.000
10.92500 779.000
10.94000 757.000
10.95500 776.000
10.97000 832.000
10.98500 816.000
11.00000 828.000
11.01500 830.000
11.03000 822.000
11.04500 804.000
11.06000 765.000
11.07500 759.000
11.09000 738.000
11.10500 768.000
11.12000 716.000
11.13500 699.000
11.15000 720.000
11.16500 738.000
11.18000 730.000
11.19500 722.000
11.21000 718.000
11.22500 739.000
11.24000 723.000
11.25500 704.000
11.27000 684.000
11.28500 686.000
11.30000 670.000
11.31500 674.000
11.33000 700.000
11.34500 709.000
11.36000 693.000
11.37500 668.000
11.39000 761.000
11.40500 720.000
11.42000 685.000
11.43500 747.000
11.45000 697.000
11.46500 713.000
11.48000 696.000
11.49500 725.000
11.51000 747.000
11.52500 744.000
11.54000 743.000
11.55500 710.000
11.57000 774.000
11.58500 806.000
11.60000 806.000
11.61500 827.000
11.63000 796.000
11.64500 828.000
11.66000 870.000
11.67500 920.000
11.69000 917.000
11.70500 912.000
11.72000 990.000
11.73500 987.000
11.75000 1001.000
11.76500 1073.000
11.78000 1110.000
11.79500 1201.000
11.81000 1264.000
11.82500 1279.000
11.84000 1389.000
11.85500 1577.000
11.87000 1614.000
11.88500 1641.000
11.90000 1777.000
11.91500 1912.000
11.93000 2054.000
11.94500 2209.000
11.96000 2359.000
11.97500 2522.000
11.99000 2655.000
12.00500 2851.000
12.02000 2972.000
12.03500 3007.000
12.05000 3006.000
12.06500 2975.000
12.08000 2854.000
12.09500 2742.000
12.11000 2464.000
12.12500 2339.000
12.14000 2094.000
12.15500 1855.000
12.17000 1695.000
12.18500 1486.000
12.20000 1356.000
12.21500 1298.000
12.23000 1205.000
12.24500 1108.000
12.26000 1029.000
12.27500 1007.000
12.29000 962.000
12.30500 948.000
12.32000 948.000
12.33500 881.000
12.35000 870.000
12.36500 815.000
12.38000 813.000
12.39500 809.000
12.41000 808.000
12.42500 760.000
12.44000 788.000
12.45500 761.000
12.47000 757.000
12.48500 750.000
12.50000 701.000
12.51500 749.000
12.53000 709.000
12.54500 693.000
12.56000 685.000
12.57500 681.000
12.59000 673.000
12.60500 708.000
12.62000 720.000
12.63500 684.000
12.65000 692.000
12.66500 714.000
12.68000 681.000
12.69500 683.000
12.71000 694.000
12.72500 689.000
12.74000 670.000
12.75500 665.000
12.77000 666.000
12.78500 666.000
12.80000 617.000
12.81500 651.000
12.83000 610.000
12.84500 619.000
12.86000 654.000
12.87500 613.000
12.89000 619.000
12.90500 642.000
12.92000 636.000
12.93500 680.000
12.95000 638.000
12.96500 629.000
12.98000 618.000
12.99500 634.000
13.01000 602.000
13.02500 608.000
13.04000 638.000
13.05500 622.000
13.07000 661.000
13.08500 643.000
13.10000 649.000
13.11500 646.000
13.13000 638.000
13.14500 613.000
13.16000 616.000
13.17500 629.000
13.19000 606.000
13.20500 589.000
13.22000 619.000
13.23500 594.000
13.25000 588.000
13.26500 665.000
13.28000 619.000
13.29500 603.000
13.31000 632.000
13.32500 605.000
13.34000 566.000
13.35500 602.000
13.37000 641.000
13.38500 606.000
13.40000 601.000
13.41500 588.000
13.43000 620.000
13.44500 579.000
13.46000 606.000
13.47500 609.000
13.49000 606.000
13.50500 599.000
13.52000 606.000
13.53500 618.000
13.55000 609.000
13.56500 585.000
13.58000 581.000
13.59500 560.000
13.61000 600.000
13.62500 560.000
13.64000 571.000
13.65500 583.000
13.67000 598.000
13.68500 584.000
13.70000 590.000
13.71500 578.000
13.73000 603.000
13.74500 630.000
13.76000 580.000
13.77500 585.000
13.79000 590.000
13.80500 581.000
13.82000 591.000
13.83500 577.000
13.85000 556.000
13.86500 578.000
13.88000 571.000
13.89500 574.000
13.91000 597.000
13.92500 604.000
13.94000 609.000
13.95500 605.000
13.97000 593.000
13.98500 604.000
14.00000 577.000
14.01500 595.000
14.03000 574.000
14.04500 598.000
14.06000 608.000
14.07500 597.000
14.09000 625.000
14.10500 579.000
14.12000 634.000
14.13500 620.000
14.15000 626.000
14.16500 583.000
14.18000 602.000
14.19500 602.000
14.21000 581.000
14.22500 597.000
14.24000 604.000
14.25500 623.000
14.27000 583.000
14.28500 575.000
14.30000 585.000
14.31500 585.000
14.33000 603.000
14.34500 574.000
14.36000 582.000
14.37500 572.000
14.39000 596.000
14.40500 614.000
14.42000 605.000
14.43500 615.000
14.45000 593.000
14.46500 625.000
14.48000 595.000
14.49500 565.000
14.51000 562.000
14.52500 565.000
14.54000 601.000
14.55500 612.000
14.57000 606.000
14.58500 618.000
14.60000 593.000
14.61500 581.000
14.63000 563.000
14.64500 577.000
14.66000 582.000
14.67500 585.000
14.69000 620.000
14.70500 589.000
14.72000 588.000
14.73500 621.000
14.75000 624.000
14.76500 608.000
14.78000 560.000
14.79500 595.000
14.81000 591.000
14.82500 597.000
14.84000 590.000
14.85500 596.000
14.87000 563.000
14.88500 591.000
14.90000 582.000
14.91500 575.000
14.93000 617.000
14.94500 601.000
14.96000 595.000
14.97500 603.000
14.99000 606.000
15.00500 595.000
15.02000 588.000
15.03500 599.000
15.05000 593.000
15.06500 636.000
15.08000 626.000
15.09500 613.000
15.11000 584.000
15.12500 609.000
15.14000 536.000
15.15500 577.000
15.17000 581.000
15.18500 570.000
15.20000 543.000
15.21500 558.000
15.23000 609.000
15.24500 606.000
15.26000 587.000
15.27500 603.000
15.29000 583.000
15.30500 619.000
15.32000 575.000
15.33500 597.000
15.35000 613.000
15.36500 573.000
15.38000 562.000
15.39500 586.000
15.41000 579.000
15.42500 572.000
15.44000 597.000
15.45500 586.000
15.47000 596.000
15.48500 596.000
15.50000 576.000
15.51500 565.000
15.53000 630.000
15.54500 579.000
15.56000 546.000
15.57500 588.000
15.59000 595.000
15.60500 622.000
15.62000 590.000
15.63500 552.000
15.65000 565.000
15.66500 609.000
15.68000 630.000
15.69500 600.000
15.71000 574.000
15.72500 595.000
15.74000 580.000
15.75500 572.000
15.77000 601.000
15.78500 594.000
15.80000 624.000
15.81500 591.000
15.83000 600.000
15.84500 592.000
15.86000 579.000
15.87500 592.000
15.89000 586.000
15.90500 626.000
15.92000 604.000
15.93500 598.000
15.95000 610.000
15.96500 575.000
15.98000 633.000
15.99500 635.000
16.01000 600.000
16.02500 593.000
16.04000 582.000
16.05500 614.000
16.07000 572.000
16.08500 583.000
16.10000 582.000
16.11500 608.000
16.13000 602.000
16.14500 598.000
16.16000 619.000
16.17500 593.000
16.19000 589.000
16.20500 556.000
16.22000 603.000
16.23500 620.000
16.25000 614.000
16.26500 577.000
16.28000 595.000
16.29500 639.000
16.31000 592.000
16.32500 594.000
16.34000 610.000
16.35500 589.000
16.37000 601.000
16.38500 611.000
16.40000 598.000
16.41500 577.000
16.43000 587.000
16.44500 586.000
16.46000 634.000
16.47500 595.000
16.49000 622.000
16.50500 622.000
16.52000 588.000
16.53500 594.000
16.55000 616.000
16.56500 634.000
16.58000 602.000
16.59500 543.000
16.61000 600.000
16.62500 608.000
16.64000 660.000
16.65500 619.000
16.67000 607.000
16.68500 620.000
16.70000 566.000
16.71500 630.000
16.73000 621.000
16.74500 576.000
16.76000 625.000
16.77500 624.000
16.79000 568.000
16.80500 587.000
16.82000 625.000
16.83500 665.000
16.85000 626.000
16.86500 635.000
16.88000 577.000
16.89500 608.000
16.91000 618.000
16.92500 609.000
16.94000 634.000
16.95500 587.000
16.97000 608.000
16.98500 607.000
17.00000 608.000
17.01500 627.000
17.03000 617.000
17.04500 633.000
17.06000 625.000
17.07500 634.000
17.09000 632.000
17.10500 647.000
17.12000 642.000
17.13500 648.000
17.15000 636.000
17.16500 666.000
17.18000 679.000
17.19500 682.000
17.21000 646.000
17.22500 642.000
17.24000 635.000
17.25500 681.000
17.27000 662.000
17.28500 654.000
17.30000 630.000
17.31500 681.000
17.33000 676.000
17.34500 652.000
17.36000 638.000
17.37500 680.000
17.39000 668.000
17.40500 650.000
17.42000 651.000
17.43500 694.000
17.45000 692.000
17.46500 717.000
17.48000 715.000
17.49500 732.000
17.51000 723.000
17.52500 704.000
17.54000 708.000
17.55500 702.000
17.57000 748.000
17.58500 727.000
17.60000 723.000
17.61500 684.000
17.63000 736.000
17.64500 725.000
17.66000 755.000
17.67500 739.000
17.69000 740.000
17.70500 721.000
17.72000 706.000
17.73500 782.000
17.75000 702.000
17.76500 746.000
17.78000 738.000
17.79500 731.000
17.81000 767.000
17.82500 808.000
17.84000 766.000
17.85500 761.000
17.87000 804.000
17.88500 768.000
17.90000 735.000
17.91500 769.000
17.93000 778.000
17.94500 788.000
17.96000 802.000
17.97500 796.000
17.99000 768.000
18.00500 795.000
18.02000 803.000
18.03500 743.000
18.05000 761.000
18.06500 795.000
18.08000 786.000
18.09500 779.000
18.11000 695.000
18.12500 766.000
18.14000 785.000
18.15500 823.000
18.17000 775.000
18.18500 770.000
18.20000 723.000
18.21500 743.000
18.23000 745.000
18.24500 699.000
18.26000 724.000
18.27500 687.000
18.29000 761.000
18.30500 742.000
18.32000 738.000
18.33500 752.000
18.35000 743.000
18.36500 741.000
18.38000 647.000
18.39500 708.000
18.41000 737.000
18.42500 678.000
18.44000 676.000
18.45500 684.000
18.47000 704.000
18.48500 703.000
18.50000 706.000
18.51500 708.000
18.53000 693.000
18.54500 650.000
18.56000 634.000
18.57500 652.000
18.59000 668.000
18.60500 671.000
18.62000 678.000
18.63500 683.000
18.65000 666.000
18.66500 695.000
18.68000 675.000
18.69500 691.000
18.71000 655.000
18.72500 685.000
18.74000 656.000
18.75500 652.000
18.77000 616.000
18.78500 660.000
18.80000 680.000
18.81500 697.000
18.83000 681.000
18.84500 693.000
18.86000 664.000
18.87500 663.000
18.89000 680.000
18.90500 692.000
18.92000 683.000
18.93500 645.000
18.95000 638.000
18.96500 654.000
18.98000 646.000
18.99500 682.000
19.01000 661.000
19.02500 660.000
19.04000 659.000
19.05500 627.000
19.07000 626.000
19.08500 611.000
19.10000 642.000
19.11500 645.000
19.13000 630.000
19.14500 598.000
19.16000 648.000
19.17500 634.000
19.19000 631.000
19.20500 647.000
19.22000 657.000
19.23500 649.000
19.25000 664.000
19.26500 630.000
19.28000 625.000
19.29500 613.000
19.31000 649.000
19.32500 645.000
19.34000 615.000
19.35500 605.000
19.37000 581.000
19.38500 628.000
19.40000 641.000
19.41500 649.000
19.43000 644.000
19.44500 612.000
19.46000 588.000
19.47500 606.000
19.49000 644.000
19.50500 667.000
19.52000 650.000
19.53500 621.000
19.55000 622.000
19.56500 600.000
19.58000 613.000
19.59500 649.000
19.61000 628.000
19.62500 602.000
19.64000 624.000
19.65500 669.000
19.67000 636.000
19.68500 606.000
19.70000 640.000
19.71500 629.000
19.73000 636.000
19.74500 649.000
19.76000 643.000
19.77500 629.000
19.79000 626.000
19.80500 591.000
19.82000 649.000
19.83500 616.000
19.85000 632.000
19.86500 603.000
19.88000 588.000
19.89500 620.000
19.91000 593.000
19.92500 598.000
19.94000 618.000
19.95500 622.000
19.97000 599.000
19.98500 604.000
20.00000 606.000
20.01500 661.000
20.03000 640.000
20.04500 640.000
20.06000 645.000
20.07500 653.000
20.09000 679.000
20.10500 627.000
20.12000 619.000
20.13500 624.000
20.15000 604.000
20.16500 602.000
20.18000 715.000
20.19500 719.000
20.21000 633.000
20.22500 627.000
20.24000 620.000
20.25500 624.000
20.27000 620.000
20.28500 654.000
20.30000 668.000
20.31500 654.000
20.33000 671.000
20.34500 661.000
20.36000 654.000
20.37500 639.000
20.39000 631.000
20.40500 622.000
20.42000 677.000
20.43500 684.000
20.45000 673.000
20.46500 662.000
20.48000 680.000
20.49500 715.000
20.51000 678.000
20.52500 670.000
20.54000 692.000
20.55500 691.000
20.57000 743.000
20.58500 757.000
20.60000 736.000
20.61500 711.000
20.63000 780.000
20.64500 765.000
20.66000 779.000
20.67500 771.000
20.69000 766.000
20.70500 775.000
20.72000 853.000
20.73500 857.000
20.75000 915.000
20.76500 883.000
20.78000 928.000
20.79500 1022.000
20.81000 1056.000
20.82500 1051.000
20.84000 1081.000
20.85500 1195.000
20.87000 1246.000
20.88500 1335.000
20.90000 1331.000
20.91500 1462.000
20.93000 1553.000
20.94500 1617.000
20.96000 1690.000
20.97500 1772.000
20.99000 1747.000
21.00500 1737.000
21.02000 1667.000
21.03500 1515.000
21.05000 1357.000
21.06500 1256.000
21.08000 1148.000
21.09500 1055.000
21.11000 985.000
21.12500 904.000
21.14000 855.000
21.15500 821.000
21.17000 815.000
21.18500 770.000
21.20000 761.000
21.21500 750.000
21.23000 738.000
21.24500 697.000
21.26000 716.000
21.27500 712.000
21.29000 667.000
21.30500 684.000
21.32000 705.000
21.33500 725.000
21.35000 699.000
21.36500 689.000
21.38000 670.000
21.39500 635.000
21.41000 668.000
21.42500 664.000
21.44000 668.000
21.45500 669.000
21.47000 643.000
21.48500 679.000
21.50000 677.000
21.51500 672.000
21.53000 655.000
21.54500 676.000
21.56000 667.000
21.57500 672.000
21.59000 610.000
21.60500 655.000
21.62000 635.000
21.63500 656.000
21.65000 676.000
21.66500 673.000
21.68000 662.000
21.69500 663.000
21.71000 685.000
21.72500 650.000
21.74000 656.000
21.75500 642.000
21.77000 634.000
21.78500 668.000
21.80000 646.000
21.81500 636.000
21.83000 622.000
21.84500 632.000
21.86000 661.000
21.87500 685.000
21.89000 699.000
21.90500 664.000
21.92000 647.000
21.93500 624.000
21.95000 642.000
21.96500 638.000
21.98000 645.000
21.99500 673.000
22.01000 688.000
22.02500 665.000
22.04000 644.000
22.05500 623.000
22.07000 630.000
22.08500 649.000
22.10000 650.000
22.11500 646.000
22.13000 615.000
22.14500 603.000
22.16000 653.000
22.17500 656.000
22.19000 622.000
22.20500 631.000
22.22000 624.000
22.23500 676.000
22.25000 645.000
22.26500 618.000
22.28000 637.000
22.29500 654.000
22.31000 650.000
22.32500 674.000
22.34000 651.000
22.35500 643.000
22.37000 652.000
22.38500 633.000
22.40000 656.000
22.41500 695.000
22.43000 644.000
22.44500 642.000
22.46000 668.000
22.47500 685.000
22.49000 629.000
22.50500 644.000
22.52000 637.000
22.53500 621.000
22.55000 653.000
22.56500 645.000
22.58000 631.000
22.59500 644.000
22.61000 654.000
22.62500 644.000
22.64000 645.000
22.65500 677.000
22.67000 673.000
22.68500 665.000
22.70000 669.000
22.71500 683.000
22.73000 676.000
22.74500 634.000
22.76000 643.000
22.77500 625.000
22.79000 648.000
22.80500 646.000
22.82000 653.000
22.83500 666.000
22.85000 654.000
22.86500 614.000
22.88000 631.000
22.89500 635.000
22.91000 648.000
22.92500 624.000
22.94000 639.000
22.95500 699.000
22.97000 638.000
22.98500 609.000
23.00000 653.000
23.01500 676.000
23.03000 668.000
23.04500 659.000
23.06000 655.000
23.07500 672.000
23.09000 671.000
23.10500 667.000
23.12000 697.000
23.13500 664.000
23.15000 692.000
23.16500 668.000
23.18000 677.000
23.19500 695.000
23.21000 692.000
23.22500 675.000
23.24000 671.000
23.25500 641.000
23.27000 667.000
23.28500 687.000
23.30000 655.000
23.31500 687.000
23.33000 619.000
23.34500 662.000
23.36000 681.000
23.37500 697.000
23.39000 677.000
23.40500 680.000
23.42000 655.000
23.43500 648.000
23.45000 645.000
23.46500 673.000
23.48000 642.000
23.49500 661.000
23.51000 682.000
23.52500 652.000
23.54000 675.000
23.55500 678.000
23.57000 706.000
23.58500 668.000
23.60000 680.000
23.61500 684.000
23.63000 661.000
23.64500 658.000
23.66000 687.000
23.67500 662.000
23.69000 690.000
23.70500 697.000
23.72000 712.000
23.73500 714.000
23.75000 694.000
23.76500 679.000
23.78000 697.000
23.79500 725.000
23.81000 668.000
23.82500 691.000
23.84000 684.000
23.85500 693.000
23.87000 710.000
23.88500 695.000
23.90000 722.000
23.91500 739.000
23.93000 737.000
23.94500 699.000
23.96000 726.000
23.97500 743.000
23.99000 724.000
24.00500 732.000
24.02000 733.000
24.03500 751.000
24.05000 775.000
24.06500 772.000
24.08000 757.000
24.09500 764.000
24.11000 829.000
24.12500 871.000
24.14000 830.000
24.15500 836.000
24.17000 905.000
24.18500 992.000
24.20000 988.000
24.21500 1092.000
24.23000 1072.000
24.24500 1100.000
24.26000 1176.000
24.27500 1233.000
24.29000 1228.000
24.30500 1259.000
24.32000 1171.000
24.33500 1117.000
24.35000 1100.000
24.36500 1092.000
24.38000 1043.000
24.39500 982.000
24.41000 968.000
24.42500 927.000
24.44000 932.000
24.45500 928.000
24.47000 961.000
24.48500 942.000
24.50000 929.000
24.51500 958.000
24.53000 947.000
24.54500 933.000
24.56000 983.000
24.57500 975.000
24.59000 1017.000
24.60500 969.000
24.62000 962.000
24.63500 1021.000
24.65000 1016.000
24.66500 980.000
24.68000 1021.000
24.69500 1065.000
24.71000 1056.000
24.72500 1089.000
24.74000 1104.000
24.75500 1112.000
24.77000 1089.000
24.78500 1145.000
24.80000 1175.000
24.81500 1126.000
24.83000 1125.000
24.84500 1186.000
24.86000 1227.000
24.87500 1136.000
24.89000 1137.000
24.90500 1127.000
24.92000 1127.000
24.93500 1132.000
24.95000 1045.000
24.96500 1043.000
24.98000 1045.000
24.99500 1096.000
25.01000 1048.000
25.02500 1032.000
25.04000 1024.000
25.05500 1026.000
25.07000 1037.000
25.08500 970.000
25.10000 966.000
25.11500 997.000
25.13000 980.000
25.14500 928.000
25.16000 919.000
25.17500 966.000
25.19000 994.000
25.20500 924.000
25.22000 902.000
25.23500 905.000
25.25000 919.000
25.26500 875.000
25.28000 910.000
25.29500 919.000
25.31000 898.000
25.32500 867.000
25.34000 923.000
25.35500 903.000
25.37000 841.000
25.38500 867.000
25.40000 868.000
25.41500 930.000
25.43000 872.000
25.44500 842.000
25.46000 867.000
25.47500 882.000
25.49000 911.000
25.50500 915.000
25.52000 867.000
25.53500 879.000
25.55000 869.000
25.56500 866.000
25.58000 875.000
25.59500 845.000
25.61000 860.000
25.62500 855.000
25.64000 847.000
25.65500 845.000
25.67000 832.000
25.68500 842.000
25.70000 826.000
25.71500 830.000
25.73000 835.000
25.74500 829.000
25.76000 818.000
25.77500 840.000
25.79000 797.000
25.80500 802.000
25.82000 840.000
25.83500 844.000
25.85000 844.000
25.86500 796.000
25.88000 796.000
25.89500 853.000
25.91000 832.000
25.92500 809.000
25.94000 881.000
25.95500 851.000
25.97000 824.000
25.98500 862.000
26.00000 871.000
26.01500 831.000
26.03000 854.000
26.04500 870.000
26.06000 847.000
26.07500 879.000
26.09000 889.000
26.10500 889.000
26.12000 875.000
26.13500 911.000
26.15000 894.000
26.16500 965.000
26.18000 971.000
26.19500 1011.000
26.21000 1053.000
26.22500 1106.000
26.24000 1036.000
26.25500 1149.000
26.27000 1327.000
26.28500 1352.000
26.30000 1471.000
26.31500 1561.000
26.33000 1702.000
26.34500 1839.000
26.36000 2046.000
26.37500 2230.000
26.39000 2375.000
26.40500 2504.000
26.42000 2667.000
26.43500 2753.000
26.45000 2605.000
26.46500 2589.000
26.48000 2559.000
26.49500 2502.000
26.51000 2386.000
26.52500 2311.000
26.54000 2265.000
26.55500 2241.000
26.57000 2212.000
26.58500 2166.000
26.60000 2092.000
26.61500 2193.000
26.63000 2156.000
26.64500 2119.000
26.66000 2124.000
26.67500 2193.000
26.69000 2173.000
26.70500 2134.000
26.72000 2171.000
26.73500 2163.000
26.75000 2146.000
26.76500 2134.000
26.78000 2145.000
26.79500 2194.000
26.81000 2168.000
26.82500 2167.000
26.84000 2196.000
26.85500 2175.000
26.87000 2199.000
26.88500 2136.000
26.90000 2196.000
26.91500 2096.000
26.93000 2096.000
26.94500 2069.000
26.96000 2088.000
26.97500 2060.000
26.99000 2044.000
27.00500 2008.000
27.02000 1926.000
27.03500 2016.000
27.05000 1919.000
27.06500 1915.000
27.08000 1958.000
27.09500 1946.000
27.11000 1970.000
27.12500 1962.000
27.14000 1889.000
27.15500 1891.000
27.17000 1963.000
27.18500 1892.000
27.20000 1906.000
27.21500 1867.000
27.23000 1888.000
27.24500 1898.000
27.26000 1855.000
27.27500 1908.000
27.29000 1917.000
27.30500 1954.000
27.32000 1911.000
27.33500 1997.000
27.35000 1943.000
27.36500 1857.000
27.38000 1917.000
27.39500 1935.000
27.41000 2026.000
27.42500 1978.000
27.44000 2023.000
27.45500 1979.000
27.47000 1904.000
27.48500 2008.000
27.50000 1981.000
27.51500 1969.000
27.53000 1947.000
27.54500 2017.000
27.56000 1938.000
27.57500 1949.000
27.59000 1957.000
27.60500 1902.000
27.62000 1953.000
27.63500 1893.000
27.65000 1889.000
27.66500 1873.000
27.68000 1858.000
27.69500 1842.000
27.71000 1799.000
27.72500 1849.000
27.74000 1791.000
27.75500 1716.000
27.77000 1736.000
27.78500 1736.000
27.80000 1673.000
27.81500 1672.000
27.83000 1605.000
27.84500 1664.000
27.86000 1638.000
27.87500 1608.000
27.89000 1579.000
27.90500 1617.000
27.92000 1593.000
27.93500 1529.000
27.95000 1493.000
27.96500 1477.000
27.98000 1532.000
27.99500 1525.000
28.01000 1465.000
28.02500 1492.000
28.04000 1550.000
28.05500 1583.000
28.07000 1509.000
28.08500 1497.000
28.10000 1529.000
28.11500 1461.000
28.13000 1495.000
28.14500 1436.000
28.16000 1367.000
28.17500 1355.000
28.19000 1245.000
28.20500 1220.000
28.22000 1229.000
28.23500 1138.000
28.25000 1164.000
28.26500 1123.000
28.28000 1070.000
28.29500 1059.000
28.31000 1037.000
28.32500 1016.000
28.34000 1027.000
28.35500 1056.000
28.37000 1030.000
28.38500 1005.000
28.40000 993.000
28.41500 946.000
28.43000 979.000
28.44500 990.000
28.46000 1012.000
28.47500 927.000
28.49000 895.000
28.50500 942.000
28.52000 944.000
28.53500 945.000
28.55000 926.000
28.56500 914.000
28.58000 922.000
28.59500 915.000
28.61000 911.000
28.62500 921.000
28.64000 911.000
28.65500 958.000
28.67000 907.000
28.68500 849.000
28.70000 921.000
28.71500 911.000
28.73000 891.000
28.74500 951.000
28.76000 989.000
28.77500 1003.000
28.79000 978.000
28.80500 993.000
28.82000 1012.000
28.83500 1047.000
28.85000 1117.000
28.86500 1104.000
28.88000 1099.000
28.89500 1159.000
28.91000 1207.000
28.92500 1285.000
28.94000 1330.000
28.95500 1372.000
28.97000 1353.000
28.98500 1462.000
29.00000 1534.000
29.01500 1661.000
29.03000 1710.000
29.04500 1781.000
29.06000 1866.000
29.07500 1876.000
29.09000 2012.000
29.10500 2055.000
29.12000 2091.000
29.13500 2141.000
29.15000 2189.000
29.16500 2191.000
29.18000 2114.000
29.19500 2094.000
29.21000 2052.000
29.22500 2018.000
29.24000 1927.000
29.25500 1943.000
29.27000 1743.000
29.28500 1711.000
29.30000 1695.000
29.31500 1598.000
29.33000 1529.000
29.34500 1515.000
29.36000 1499.000
29.37500 1441.000
29.39000 1410.000
29.40500 1340.000
29.42000 1304.000
29.43500 1322.000
29.45000 1311.000
29.46500 1231.000
29.48000 1227.000
29.49500 1159.000
29.51000 1171.000
29.52500 1147.000
29.54000 1120.000
29.55500 1143.000
29.57000 1127.000
29.58500 1106.000
29.60000 1083.000
29.61500 1049.000
29.63000 1029.000
29.64500 1044.000
29.66000 987.000
29.67500 981.000
29.69000 1011.000
29.70500 918.000
29.72000 978.000
29.73500 957.000
29.75000 933.000
29.76500 918.000
29.78000 906.000
29.79500 902.000
29.81000 917.000
29.82500 895.000
29.84000 886.000
29.85500 869.000
29.87000 874.000
29.88500 896.000
29.90000 932.000
29.91500 837.000
29.93000 810.000
29.94500 804.000
29.96000 796.000
29.97500 796.000
29.99000 763.000
30.00500 778.000
30.02000 768.000
30.03500 760.000
30.05000 772.000
30.06500 741.000
30.08000 742.000
30.09500 775.000
30.11000 733.000
30.12500 741.000
30.14000 731.000
30.15500 763.000
30.17000 732.000
30.18500 720.000
30.20000 704.000
30.21500 709.000
30.23000 729.000
30.24500 694.000
30.26000 697.000
30.27500 682.000
30.29000 682.000
30.30500 726.000
30.32000 731.000
30.33500 698.000
30.35000 631.000
30.36500 662.000
30.38000 699.000
30.39500 661.000
30.41000 665.000
30.42500 654.000
30.44000 662.000
30.45500 660.000
30.47000 658.000
30.48500 671.000
30.50000 689.000
30.51500 664.000
30.53000 634.000
30.54500 642.000
30.56000 650.000
30.57500 662.000
30.59000 653.000
30.60500 633.000
30.62000 630.000
30.63500 677.000
30.65000 646.000
30.66500 605.000
30.68000 600.000
30.69500 633.000
30.71000 596.000
30.72500 605.000
30.74000 588.000
30.75500 635.000
30.77000 581.000
30.78500 595.000
30.80000 645.000
30.81500 638.000
30.83000 597.000
30.84500 612.000
30.86000 550.000
30.87500 598.000
30.89000 610.000
30.90500 567.000
30.92000 597.000
30.93500 616.000
30.95000 612.000
30.96500 588.000
30.98000 629.000
30.99500 613.000
31.01000 606.000
31.02500 580.000
31.04000 594.000
31.05500 563.000
31.07000 576.000
31.08500 608.000
31.10000 602.000
31.11500 586.000
31.13000 595.000
31.14500 608.000
31.16000 646.000
31.17500 595.000
31.19000 573.000
31.20500 551.000
31.22000 578.000
31.23500 583.000
31.25000 566.000
31.26500 547.000
31.28000 552.000
31.29500 562.000
31.31000 583.000
31.32500 576.000
31.34000 601.000
31.35500 569.000
31.37000 591.000
31.38500 603.000
31.40000 576.000
31.41500 606.000
31.43000 604.000
31.44500 622.000
31.46000 612.000
31.47500 593.000
31.49000 548.000
31.50500 605.000
31.52000 582.000
31.53500 594.000
31.55000 571.000
31.56500 589.000
31.58000 596.000
31.59500 609.000
31.61000 580.000
31.62500 562.000
31.64000 576.000
31.65500 609.000
31.67000 620.000
31.68500 550.000
31.70000 556.000
31.71500 600.000
31.73000 592.000
31.74500 551.000
31.76000 604.000
31.77500 608.000
31.79000 635.000
31.80500 610.000
31.82000 631.000
31.83500 631.000
31.85000 607.000
31.86500 639.000
31.88000 638.000
31.89500 630.000
31.91000 652.000
31.92500 622.000
31.94000 645.000
31.95500 679.000
31.97000 727.000
31.98500 694.000
32.00000 689.000
32.01500 721.000
32.03000 711.000
32.04500 733.000
32.06000 751.000
32.07500 725.000
32.09000 764.000
32.10500 775.000
32.12000 826.000
32.13500 780.000
32.15000 869.000
32.16500 851.000
32.18000 943.000
32.19500 944.000
32.21000 1019.000
32.22500 1014.000
32.24000 1076.000
32.25500 1217.000
32.27000 1240.000
32.28500 1254.000
32.30000 1326.000
32.31500 1338.000
32.33000 1318.000
32.34500 1271.000
32.36000 1218.000
32.37500 1184.000
32.39000 1128.000
32.40500 1046.000
32.42000 932.000
32.43500 896.000
32.45000 854.000
32.46500 809.000
32.48000 765.000
32.49500 738.000
32.51000 712.000
32.52500 690.000
32.54000 694.000
32.55500 628.000
32.57000 623.000
32.58500 640.000
32.60000 629.000
32.61500 578.000
32.63000 586.000
32.64500 588.000
32.66000 596.000
32.67500 562.000
32.69000 613.000
32.70500 558.000
32.72000 555.000
32.73500 581.000
32.75000 546.000
32.76500 564.000
32.78000 569.000
32.79500 581.000
32.81000 582.000
32.82500 629.000
32.84000 573.000
32.85500 526.000
32.87000 533.000
32.88500 504.000
32.90000 543.000
32.91500 547.000
32.93000 535.000
32.94500 493.000
32.96000 496.000
32.97500 536.000
32.99000 518.000
33.00500 482.000
33.02000 470.000
33.03500 531.000
33.05000 529.000
33.06500 495.000
33.08000 499.000
33.09500 516.000
33.11000 516.000
33.12500 483.000
33.14000 491.000
33.15500 504.000
33.17000 517.000
33.18500 505.000
33.20000 494.000
33.21500 500.000
33.23000 510.000
33.24500 529.000
33.26000 515.000
33.27500 539.000
33.29000 552.000
33.30500 524.000
33.32000 513.000
33.33500 541.000
33.35000 477.000
33.36500 499.000
33.38000 545.000
33.39500 534.000
33.41000 518.000
33.42500 527.000
33.44000 518.000
33.45500 505.000
33.47000 517.000
33.48500 539.000
33.50000 539.000
33.51500 499.000
33.53000 498.000
33.54500 534.000
33.56000 546.000
33.57500 520.000
33.59000 564.000
33.60500 572.000
33.62000 518.000
33.63500 542.000
33.65000 499.000
33.66500 519.000
33.68000 547.000
33.69500 537.000
33.71000 549.000
33.72500 521.000
33.74000 546.000
33.75500 581.000
33.77000 552.000
33.78500 537.000
33.80000 545.000
33.81500 551.000
33.83000 543.000
33.84500 586.000
33.86000 548.000
33.87500 526.000
33.89000 544.000
33.90500 551.000
33.92000 573.000
33.93500 562.000
33.95000 550.000
33.96500 544.000
33.98000 580.000
33.99500 548.000
34.01000 563.000
34.02500 574.000
34.04000 590.000
34.05500 583.000
34.07000 541.000
34.08500 582.000
34.10000 550.000
34.11500 557.000
34.13000 555.000
34.14500 548.000
34.16000 544.000
34.17500 532.000
34.19000 521.000
34.20500 537.000
34.22000 521.000
34.23500 533.000
34.25000 542.000
34.26500 501.000
34.28000 517.000
34.29500 521.000
34.31000 531.000
34.32500 552.000
34.34000 526.000
34.35500 535.000
34.37000 537.000
34.38500 493.000
34.40000 520.000
34.41500 503.000
34.43000 523.000
34.44500 503.000
34.46000 498.000
34.47500 529.000
34.49000 562.000
34.50500 543.000
34.52000 569.000
34.53500 551.000
34.55000 520.000
34.56500 511.000
34.58000 522.000
34.59500 503.000
34.61000 523.000
34.62500 522.000
34.64000 531.000
34.65500 514.000
34.67000 481.000
34.68500 506.000
34.70000 525.000
34.71500 541.000
34.73000 513.000
34.74500 516.000
34.76000 516.000
34.77500 515.000
34.79000 519.000
34.80500 543.000
34.82000 524.000
34.83500 532.000
34.85000 521.000
34.86500 534.000
34.88000 536.000
34.89500 552.000
34.91000 570.000
34.92500 560.000
34.94000 552.000
34.95500 526.000
34.97000 553.000
34.98500 533.000
35.00000 579.000
35.01500 591.000
35.03000 565.000
35.04500 595.000
35.06000 562.000
35.07500 580.000
35.09000 574.000
35.10500 579.000
35.12000 588.000
35.13500 566.000
35.15000 555.000
35.16500 546.000
35.18000 540.000
35.19500 538.000
35.21000 573.000
35.22500 521.000
35.24000 486.000
35.25500 504.000
35.27000 488.000
35.28500 484.000
35.30000 492.000
35.31500 491.000
35.33000 468.000
35.34500 503.000
35.36000 486.000
35.37500 481.000
35.39000 521.000
35.40500 511.000
35.42000 517.000
35.43500 496.000
35.45000 503.000
35.46500 494.000
35.48000 503.000
35.49500 507.000
35.51000 487.000
35.52500 487.000
35.54000 526.000
35.55500 482.000
35.57000 478.000
35.58500 488.000
35.60000 473.000
35.61500 478.000
35.63000 508.000
35.64500 493.000
35.66000 521.000
35.67500 507.000
35.69000 480.000
35.70500 483.000
35.72000 470.000
35.73500 485.000
35.75000 458.000
35.76500 503.000
35.78000 472.000
35.79500 464.000
35.81000 499.000
35.82500 483.000
35.84000 484.000
35.85500 467.000
35.87000 502.000
35.88500 476.000
35.90000 475.000
35.91500 511.000
35.93000 522.000
35.94500 483.000
35.96000 469.000
35.97500 505.000
35.99000 507.000
36.00500 491.000
36.02000 511.000
36.03500 483.000
36.05000 478.000
36.06500 520.000
36.08000 516.000
36.09500 512.000
36.11000 532.000
36.12500 519.000
36.14000 501.000
36.15500 537.000
36.17000 525.000
36.18500 519.000
36.20000 545.000
36.21500 507.000
36.23000 492.000
36.24500 506.000
36.26000 499.000
36.27500 512.000
36.29000 498.000
36.30500 486.000
36.32000 527.000
36.33500 525.000
36.35000 506.000
36.36500 498.000
36.38000 520.000
36.39500 491.000
36.41000 496.000
36.42500 480.000
36.44000 483.000
36.45500 510.000
36.47000 473.000
36.48500 468.000
36.50000 472.000
36.51500 526.000
36.53000 478.000
36.54500 500.000
36.56000 516.000
36.57500 473.000
36.59000 473.000
36.60500 467.000
36.62000 506.000
36.63500 502.000
36.65000 489.000
36.66500 517.000
36.68000 502.000
36.69500 499.000
36.71000 464.000
36.72500 461.000
36.74000 460.000
36.75500 476.000
36.77000 461.000
36.78500 468.000
36.80000 449.000
36.81500 455.000
36.83000 458.000
36.84500 438.000
36.86000 444.000
36.87500 451.000
36.89000 448.000
36.90500 463.000
36.92000 465.000
36.93500 460.000
36.95000 437.000
36.96500 444.000
36.98000 494.000
36.99500 451.000
37.01000 449.000
37.02500 457.000
37.04000 438.000
37.05500 473.000
37.07000 461.000
37.08500 481.000
37.10000 458.000
37.11500 469.000
37.13000 461.000
37.14500 445.000
37.16000 463.000
37.17500 452.000
37.19000 442.000
37.20500 411.000
37.22000 451.000
37.23500 421.000
37.25000 417.000
37.26500 418.000
37.28000 460.000
37.29500 457.000
37.31000 416.000
37.32500 458.000
37.34000 419.000
37.35500 407.000
37.37000 426.000
37.38500 449.000
37.40000 442.000
37.41500 412.000
37.43000 414.000
37.44500 398.000
37.46000 417.000
37.47500 456.000
37.49000 436.000
37.50500 447.000
37.52000 418.000
37.53500 451.000
37.55000 446.000
37.56500 455.000
37.58000 451.000
37.59500 458.000
37.61000 446.000
37.62500 423.000
37.64000 460.000
37.65500 433.000
37.67000 403.000
37.68500 446.000
37.70000 419.000
37.71500 411.000
37.73000 468.000
37.74500 426.000
37.76000 456.000
37.77500 423.000
37.79000 444.000
37.80500 438.000
37.82000 434.000
37.83500 434.000
37.85000 448.000
37.86500 415.000
37.88000 417.000
37.89500 444.000
37.91000 466.000
37.92500 442.000
37.94000 432.000
37.95500 447.000
37.97000 416.000
37.98500 406.000
38.00000 456.000
38.01500 446.000
38.03000 427.000
38.04500 443.000
38.06000 445.000
38.07500 434.000
38.09000 467.000
38.10500 437.000
38.12000 444.000
38.13500 418.000
38.15000 453.000
38.16500 478.000
38.18000 435.000
38.19500 442.000
38.21000 483.000
38.22500 456.000
38.24000 447.000
38.25500 413.000
38.27000 430.000
38.28500 447.000
38.30000 423.000
38.31500 396.000
38.33000 418.000
38.34500 406.000
38.36000 425.000
38.37500 417.000
38.39000 427.000
38.40500 467.000
38.42000 435.000
38.43500 446.000
38.45000 421.000
38.46500 429.000
38.48000 425.000
38.49500 432.000
38.51000 446.000
38.52500 456.000
38.54000 403.000
38.55500 429.000
38.57000 446.000
38.58500 458.000
38.60000 465.000
38.61500 445.000
38.63000 453.000
38.64500 450.000
38.66000 451.000
38.67500 461.000
38.69000 459.000
38.70500 455.000
38.72000 444.000
38.73500 464.000
38.75000 438.000
38.76500 442.000
38.78000 445.000
38.79500 434.000
38.81000 416.000
38.82500 417.000
38.84000 471.000
38.85500 477.000
38.87000 474.000
38.88500 468.000
38.90000 455.000
38.91500 454.000
38.93000 465.000
38.94500 452.000
38.96000 410.000
38.97500 438.000
38.99000 455.000
39.00500 429.000
39.02000 437.000
39.03500 436.000
39.05000 455.000
39.06500 482.000
39.08000 451.000
39.09500 464.000
39.11000 482.000
39.12500 440.000
39.14000 427.000
39.15500 438.000
39.17000 429.000
39.18500 457.000
39.20000 442.000
39.21500 468.000
39.23000 480.000
39.24500 432.000
39.26000 454.000
39.27500 453.000
39.29000 452.000
39.30500 482.000
39.32000 510.000
39.33500 471.000
39.35000 475.000
39.36500 455.000
39.38000 491.000
39.39500 497.000
39.41000 487.000
39.42500 481.000
39.44000 468.000
39.45500 458.000
39.47000 464.000
39.48500 455.000
39.50000 467.000
39.51500 467.000
39.53000 494.000
39.54500 514.000
39.56000 496.000
39.57500 480.000
39.59000 472.000
39.60500 469.000
39.62000 467.000
39.63500 483.000
39.65000 499.000
39.66500 494.000
39.68000 510.000
39.69500 474.000
39.71000 450.000
39.72500 492.000
39.74000 492.000
39.75500 457.000
39.77000 435.000
39.78500 462.000
39.80000 490.000
39.81500 479.000
39.83000 465.000
39.84500 486.000
39.86000 454.000
39.87500 473.000
39.89000 470.000
39.90500 470.000
39.92000 492.000
39.93500 469.000
39.95000 445.000
39.96500 430.000
39.98000 472.000
39.99500 483.000
40.01000 482.000
40.02500 464.000
40.04000 449.000
40.05500 467.000
40.07000 467.000
40.08500 441.000
40.10000 452.000
40.11500 481.000
40.13000 479.000
40.14500 436.000
40.16000 454.000
40.17500 466.000
40.19000 482.000
40.20500 456.000
40.22000 440.000
40.23500 474.000
40.25000 469.000
40.26500 429.000
40.28000 410.000
40.29500 425.000
40.31000 427.000
40.32500 440.000
40.34000 457.000
40.35500 474.000
40.37000 447.000
40.38500 463.000
40.40000 458.000
40.41500 451.000
40.43000 425.000
40.44500 408.000
40.46000 409.000
40.47500 427.000
40.49000 420.000
40.50500 420.000
40.52000 444.000
40.53500 438.000
40.55000 457.000
40.56500 425.000
40.58000 457.000
40.59500 464.000
40.61000 436.000
40.62500 440.000
40.64000 436.000
40.65500 457.000
40.67000 433.000
40.68500 453.000
40.70000 447.000
40.71500 455.000
40.73000 452.000
40.74500 456.000
40.76000 405.000
40.77500 406.000
40.79000 436.000
40.80500 448.000
40.82000 450.000
40.83500 409.000
40.85000 429.000
40.86500 392.000
40.88000 424.000
40.89500 429.000
40.91000 430.000
40.92500 430.000
40.94000 415.000
40.95500 414.000
40.97000 414.000
40.98500 431.000
41.00000 419.000
41.01500 421.000
41.03000 417.000
41.04500 427.000
41.06000 434.000
41.07500 471.000
41.09000 431.000
41.10500 422.000
41.12000 430.000
41.13500 425.000
41.15000 430.000
41.16500 429.000
41.18000 433.000
41.19500 454.000
41.21000 387.000
41.22500 422.000
41.24000 427.000
41.25500 439.000
41.27000 409.000
41.28500 439.000
41.30000 403.000
41.31500 436.000
41.33000 400.000
41.34500 421.000
41.36000 420.000
41.37500 425.000
41.39000 404.000
41.40500 439.000
41.42000 439.000
41.43500 425.000
41.45000 445.000
41.46500 436.000
41.48000 428.000
41.49500 417.000
41.51000 424.000
41.52500 423.000
41.54000 434.000
41.55500 436.000
41.57000 433.000
41.58500 429.000
41.60000 451.000
41.61500 423.000
41.63000 424.000
41.64500 433.000
41.66000 455.000
41.67500 444.000
41.69000 416.000
41.70500 406.000
41.72000 432.000
41.73500 415.000
41.75000 428.000
41.76500 419.000
41.78000 425.000
41.79500 432.000
41.81000 404.000
41.82500 424.000
41.84000 436.000
41.85500 469.000
41.87000 444.000
41.88500 430.000
41.90000 442.000
41.91500 428.000
41.93000 432.000
41.94500 428.000
41.96000 425.000
41.97500 419.000
41.99000 445.000
42.00500 460.000
42.02000 456.000
42.03500 491.000
42.05000 459.000
42.06500 455.000
42.08000 457.000
42.09500 470.000
42.11000 445.000
42.12500 457.000
42.14000 451.000
42.15500 439.000
42.17000 462.000
42.18500 462.000
42.20000 465.000
42.21500 497.000
42.23000 498.000
42.24500 513.000
42.26000 499.000
42.27500 479.000
42.29000 500.000
42.30500 469.000
42.32000 482.000
42.33500 496.000
42.35000 488.000
42.36500 499.000
42.38000 493.000
42.39500 478.000
42.41000 475.000
42.42500 509.000
42.44000 479.000
42.45500 494.000
42.47000 488.000
42.48500 518.000
42.50000 505.000
42.51500 499.000
42.53000 528.000
42.54500 510.000
42.56000 495.000
42.57500 503.000
42.59000 543.000
42.60500 477.000
42.62000 474.000
42.63500 517.000
42.65000 544.000
42.66500 526.000
42.68000 542.000
42.69500 535.000
42.71000 550.000
42.72500 541.000
42.74000 559.000
42.75500 551.000
42.77000 500.000
42.78500 531.000
42.80000 546.000
42.81500 538.000
42.83000 507.000
42.84500 513.000
42.86000 483.000
42.87500 466.000
42.89000 468.000
42.90500 489.000
42.92000 462.000
42.93500 462.000
42.95000 471.000
42.96500 475.000
42.98000 502.000
42.99500 458.000
43.01000 466.000
43.02500 478.000
43.04000 449.000
43.05500 474.000
43.07000 488.000
43.08500 460.000
43.10000 432.000
43.11500 437.000
43.13000 416.000
43.14500 429.000
43.16000 469.000
43.17500 424.000
43.19000 455.000
43.20500 470.000
43.22000 456.000
43.23500 442.000
43.25000 428.000
43.26500 433.000
43.28000 438.000
43.29500 414.000
43.31000 437.000
43.32500 467.000
43.34000 438.000
43.35500 460.000
43.37000 453.000
43.38500 422.000
43.40000 439.000
43.41500 470.000
43.43000 413.000
43.44500 408.000
43.46000 458.000
43.47500 433.000
43.49000 432.000
43.50500 426.000
43.52000 422.000
43.53500 427.000
43.55000 436.000
43.56500 435.000
43.58000 438.000
43.59500 416.000
43.61000 422.000
43.62500 433.000
43.64000 425.000
43.65500 443.000
43.67000 448.000
43.68500 444.000
43.70000 453.000
43.71500 460.000
43.73000 463.000
43.74500 438.000
43.76000 437.000
43.77500 451.000
43.79000 440.000
43.80500 430.000
43.82000 457.000
43.83500 475.000
43.85000 467.000
43.86500 453.000
43.88000 453.000
43.89500 470.000
43.91000 474.000
43.92500 445.000
43.94000 485.000
43.95500 465.000
43.97000 449.000
43.98500 457.000
44.00000 463.000
44.01500 475.000
44.03000 486.000
44.04500 481.000
44.06000 482.000
44.07500 487.000
44.09000 510.000
44.10500 510.000
44.12000 497.000
44.13500 505.000
44.15000 478.000
44.16500 538.000
44.18000 538.000
44.19500 532.000
44.21000 546.000
44.22500 526.000
44.24000 542.000
44.25500 552.000
44.27000 565.000
44.28500 518.000
44.30000 565.000
44.31500 571.000
44.33000 553.000
44.34500 571.000
44.36000 602.000
44.37500 582.000
44.39000 584.000
44.40500 597.000
44.42000 592.000
44.43500 572.000
44.45000 593.000
44.46500 597.000
44.48000 621.000
44.49500 658.000
44.51000 667.000
44.52500 663.000
44.54000 641.000
44.55500 723.000
44.57000 715.000
44.58500 691.000
44.60000 700.000
44.61500 692.000
44.63000 723.000
44.64500 667.000
44.66000 688.000
44.67500 715.000
44.69000 718.000
44.70500 639.000
44.72000 670.000
44.73500 741.000
44.75000 748.000
44.76500 658.000
44.78000 671.000
44.79500 698.000
44.81000 688.000
44.82500 690.000
44.84000 712.000
44.85500 728.000
44.87000 673.000
44.88500 654.000
44.90000 656.000
44.91500 628.000
44.93000 669.000
44.94500 668.000
44.96000 692.000
44.97500 692.000
44.99000 644.000
45.00500 636.000
45.02000 578.000
45.03500 604.000
45.05000 621.000
45.06500 624.000
45.08000 609.000
45.09500 568.000
45.11000 563.000
45.12500 574.000
45.14000 582.000
45.15500 535.000
45.17000 543.000
45.18500 554.000
45.20000 526.000
45.21500 555.000
45.23000 526.000
45.24500 511.000
45.26000 573.000
45.27500 529.000
45.29000 515.000
45.30500 517.000
45.32000 526.000
45.33500 533.000
45.35000 463.000
45.36500 472.000
45.38000 472.000
45.39500 474.000
45.41000 469.000
45.42500 500.000
45.44000 506.000
45.45500 497.000
45.47000 500.000
45.48500 465.000
45.50000 444.000
45.51500 455.000
45.53000 457.000
45.54500 459.000
45.56000 443.000
45.57500 468.000
45.59000 475.000
45.60500 479.000
45.62000 446.000
45.63500 452.000
45.65000 450.000
45.66500 452.000
45.68000 452.000
45.69500 513.000
45.71000 481.000
45.72500 438.000
45.74000 458.000
45.75500 463.000
45.77000 470.000
45.78500 450.000
45.80000 446.000
45.81500 517.000
45.83000 464.000
45.84500 480.000
45.86000 447.000
45.87500 445.000
45.89000 456.000
45.90500 439.000
45.92000 460.000
45.93500 465.000
45.95000 479.000
45.96500 412.000
45.98000 449.000
45.99500 468.000
46.01000 472.000
46.02500 458.000
46.04000 467.000
46.05500 424.000
46.07000 406.000
46.08500 440.000
46.10000 415.000
46.11500 463.000
46.13000 440.000
46.14500 427.000
46.16000 425.000
46.17500 455.000
46.19000 409.000
46.20500 392.000
46.22000 411.000
46.23500 412.000
46.25000 435.000
46.26500 415.000
46.28000 405.000
46.29500 427.000
46.31000 403.000
46.32500 425.000
46.34000 408.000
46.35500 400.000
46.37000 435.000
46.38500 434.000
46.40000 403.000
46.41500 409.000
46.43000 428.000
46.44500 415.000
46.46000 400.000
46.47500 407.000
46.49000 445.000
46.50500 469.000
46.52000 438.000
46.53500 420.000
46.55000 460.000
46.56500 432.000
46.58000 451.000
46.59500 472.000
46.61000 462.000
46.62500 446.000
46.64000 445.000
46.65500 441.000
46.67000 457.000
46.68500 441.000
46.70000 437.000
46.71500 446.000
46.73000 416.000
46.74500 433.000
46.76000 435.000
46.77500 429.000
46.79000 412.000
46.80500 390.000
46.82000 409.000
46.83500 438.000
46.85000 418.000
46.86500 359.000
46.88000 385.000
46.89500 414.000
46.91000 433.000
46.92500 406.000
46.94000 357.000
46.95500 383.000
46.97000 375.000
46.98500 378.000
47.00000 389.000
47.01500 375.000
47.03000 382.000
47.04500 364.000
47.06000 399.000
47.07500 383.000
47.09000 380.000
47.10500 390.000
47.12000 377.000
47.13500 401.000
47.15000 385.000
47.16500 361.000
47.18000 365.000
47.19500 371.000
47.21000 371.000
47.22500 337.000
47.24000 342.000
47.25500 379.000
47.27000 361.000
47.28500 372.000
47.30000 374.000
47.31500 377.000
47.33000 361.000
47.34500 350.000
47.36000 346.000
47.37500 364.000
47.39000 377.000
47.40500 389.000
47.42000 384.000
47.43500 362.000
47.45000 362.000
47.46500 386.000
47.48000 359.000
47.49500 390.000
47.51000 370.000
47.52500 369.000
47.54000 344.000
47.55500 371.000
47.57000 347.000
47.58500 381.000
47.60000 349.000
47.61500 322.000
47.63000 361.000
47.64500 359.000
47.66000 343.000
47.67500 378.000
47.69000 346.000
47.70500 349.000
47.72000 341.000
47.73500 336.000
47.75000 347.000
47.76500 339.000
47.78000 347.000
47.79500 339.000
47.81000 343.000
47.82500 330.000
47.84000 343.000
47.85500 316.000
47.87000 311.000
47.88500 307.000
47.90000 329.000
47.91500 289.000
47.93000 323.000
47.94500 348.000
47.96000 337.000
47.97500 332.000
47.99000 338.000
48.00500 353.000
48.02000 341.000
48.03500 327.000
48.05000 338.000
48.06500 341.000
48.08000 334.000
48.09500 321.000
48.11000 342.000
48.12500 322.000
48.14000 331.000
48.15500 347.000
48.17000 348.000
48.18500 343.000
48.20000 324.000
48.21500 305.000
48.23000 325.000
48.24500 323.000
48.26000 318.000
48.27500 332.000
48.29000 312.000
48.30500 336.000
48.32000 333.000
48.33500 313.000
48.35000 303.000
48.36500 323.000
48.38000 313.000
48.39500 316.000
48.41000 314.000
48.42500 325.000
48.44000 347.000
48.45500 301.000
48.47000 312.000
48.48500 326.000
48.50000 313.000
48.51500 312.000
48.53000 295.000
48.54500 326.000
48.56000 324.000
48.57500 316.000
48.59000 302.000
48.60500 300.000
48.62000 313.000
48.63500 310.000
48.65000 300.000
48.66500 302.000
48.68000 304.000
48.69500 299.000
48.71000 300.000
48.72500 313.000
48.74000 330.000
48.75500 302.000
48.77000 300.000
48.78500 306.000
48.80000 322.000
48.81500 328.000
48.83000 320.000
48.84500 332.000
48.86000 344.000
48.87500 322.000
48.89000 331.000
48.90500 310.000
48.92000 323.000
48.93500 353.000
48.95000 312.000
48.96500 314.000
48.98000 319.000
48.99500 300.000
49.01000 317.000
49.02500 328.000
49.04000 302.000
49.05500 309.000
49.07000 329.000
49.08500 321.000
49.10000 318.000
49.11500 328.000
49.13000 292.000
49.14500 302.000
49.16000 317.000
49.17500 320.000
49.19000 342.000
49.20500 327.000
49.22000 328.000
49.23500 314.000
49.25000 340.000
49.26500 335.000
49.28000 329.000
49.29500 323.000
49.31000 295.000
49.32500 341.000
49.34000 336.000
49.35500 330.000
49.37000 296.000
49.38500 333.000
49.40000 312.000
49.41500 306.000
49.43000 297.000
49.44500 298.000
49.46000 312.000
49.47500 320.000
49.49000 317.000
49.50500 322.000
49.52000 318.000
49.53500 319.000
49.55000 289.000
49.56500 306.000
49.58000 320.000
49.59500 305.000
49.61000 328.000
49.62500 349.000
49.64000 349.000
49.65500 342.000
49.67000 332.000
49.68500 349.000
49.70000 352.000
49.71500 350.000
49.73000 341.000
49.74500 342.000
49.76000 358.000
49.77500 330.000
49.79000 298.000
49.80500 290.000
49.82000 329.000
49.83500 316.000
49.85000 319.000
49.86500 316.000
49.88000 339.000
49.89500 323.000
49.91000 333.000
49.92500 341.000
49.94000 350.000
49.95500 335.000
49.97000 353.000
49.98500 346.000
50.00000 334.000
50.01500 338.000
50.03000 324.000
50.04500 301.000
50.06000 315.000
50.07500 307.000
50.09000 323.000
50.10500 300.000
50.12000 309.000
50.13500 301.000
50.15000 297.000
50.16500 317.000
50.18000 331.000
50.19500 336.000
50.21000 328.000
50.22500 321.000
50.24000 327.000
50.25500 347.000
50.27000 346.000
50.28500 324.000
50.30000 325.000
50.31500 339.000
50.33000 354.000
50.34500 361.000
50.36000 339.000
50.37500 375.000
50.39000 392.000
50.40500 356.000
50.42000 357.000
50.43500 373.000
50.45000 338.000
50.46500 324.000
50.48000 348.000
50.49500 371.000
50.51000 382.000
50.52500 374.000
50.54000 362.000
50.55500 378.000
50.57000 379.000
50.58500 371.000
50.60000 395.000
50.61500 400.000
50.63000 380.000
50.64500 387.000
50.66000 365.000
50.67500 390.000
50.69000 369.000
50.70500 393.000
50.72000 464.000
50.73500 452.000
50.75000 453.000
50.76500 449.000
50.78000 413.000
50.79500 440.000
50.81000 430.000
50.82500 444.000
50.84000 463.000
50.85500 446.000
50.87000 437.000
50.88500 453.000
50.90000 451.000
50.91500 466.000
50.93000 463.000
50.94500 450.000
50.96000 468.000
50.97500 489.000
50.99000 479.000
51.00500 473.000
51.02000 474.000
51.03500 469.000
51.05000 441.000
51.06500 455.000
51.08000 429.000
51.09500 417.000
51.11000 440.000
51.12500 417.000
51.14000 396.000
51.15500 410.000
51.17000 425.000
51.18500 410.000
51.20000 391.000
51.21500 370.000
51.23000 396.000
51.24500 364.000
51.26000 400.000
51.27500 384.000
51.29000 375.000
51.30500 392.000
51.32000 362.000
51.33500 366.000
51.35000 351.000
51.36500 367.000
51.38000 351.000
51.39500 372.000
51.41000 349.000
51.42500 349.000
51.44000 326.000
51.45500 367.000
51.47000 329.000
51.48500 339.000
51.50000 359.000
51.51500 341.000
51.53000 332.000
51.54500 344.000
51.56000 345.000
51.57500 328.000
51.59000 332.000
51.60500 323.000
51.62000 330.000
51.63500 327.000
51.65000 353.000
51.66500 317.000
51.68000 314.000
51.69500 309.000
51.71000 295.000
51.72500 304.000
51.74000 316.000
51.75500 301.000
51.77000 304.000
51.78500 302.000
51.80000 293.000
51.81500 325.000
51.83000 306.000
51.84500 334.000
51.86000 291.000
51.87500 306.000
51.89000 334.000
51.90500 324.000
51.92000 307.000
51.93500 305.000
51.95000 319.000
51.96500 296.000
51.98000 290.000
51.99500 325.000
52.01000 307.000
52.02500 279.000
52.04000 289.000
52.05500 298.000
52.07000 313.000
52.08500 307.000
52.10000 313.000
52.11500 297.000
52.13000 290.000
52.14500 297.000
52.16000 311.000
52.17500 295.000
52.19000 322.000
52.20500 322.000
52.22000 292.000
52.23500 305.000
52.25000 335.000
52.26500 328.000
52.28000 337.000
52.29500 320.000
52.31000 320.000
52.32500 315.000
52.34000 316.000
52.35500 304.000
52.37000 316.000
52.38500 319.000
52.40000 314.000
52.41500 337.000
52.43000 321.000
52.44500 336.000
52.46000 314.000
52.47500 313.000
52.49000 335.000
52.50500 315.000
52.52000 333.000
52.53500 344.000
52.55000 315.000
52.56500 311.000
52.58000 321.000
52.59500 300.000
52.61000 306.000
52.62500 307.000
52.64000 312.000
52.65500 328.000
52.67000 306.000
52.68500 278.000
52.70000 310.000
52.71500 320.000
52.73000 298.000
52.74500 301.000
52.76000 293.000
52.77500 316.000
52.79000 302.000
52.80500 289.000
52.82000 293.000
52.83500 294.000
52.85000 311.000
52.86500 300.000
52.88000 301.000
52.89500 283.000
52.91000 303.000
52.92500 303.000
52.94000 297.000
52.95500 311.000
52.97000 293.000
52.98500 304.000
53.00000 301.000
53.01500 326.000
53.03000 308.000
53.04500 319.000
53.06000 303.000
53.07500 308.000
53.09000 301.000
53.10500 322.000
53.12000 288.000
53.13500 332.000
53.15000 319.000
53.16500 329.000
53.18000 309.000
53.19500 336.000
53.21000 324.000
53.22500 326.000
53.24000 308.000
53.25500 336.000
53.27000 292.000
53.28500 306.000
53.30000 301.000
53.31500 288.000
53.33000 289.000
53.34500 298.000
53.36000 290.000
53.37500 282.000
53.39000 297.000
53.40500 315.000
53.42000 315.000
53.43500 310.000
53.45000 305.000
53.46500 287.000
53.48000 321.000
53.49500 312.000
53.51000 322.000
53.52500 331.000
53.54000 316.000
53.55500 307.000
53.57000 297.000
53.58500 320.000
53.60000 303.000
53.61500 294.000
53.63000 302.000
53.64500 327.000
53.66000 307.000
53.67500 330.000
53.69000 336.000
53.70500 317.000
53.72000 315.000
53.73500 320.000
53.75000 329.000
53.76500 339.000
53.78000 299.000
53.79500 312.000
53.81000 299.000
53.82500 312.000
53.84000 332.000
53.85500 326.000
53.87000 308.000
53.88500 286.000
53.90000 315.000
53.91500 333.000
53.93000 316.000
53.94500 324.000
53.96000 335.000
53.97500 338.000
53.99000 322.000
54.00500 323.000
54.02000 335.000
54.03500 321.000
54.05000 356.000
54.06500 354.000
54.08000 340.000
54.09500 338.000
54.11000 330.000
54.12500 355.000
54.14000 343.000
54.15500 376.000
54.17000 360.000
54.18500 352.000
54.20000 370.000
54.21500 400.000
54.23000 391.000
54.24500 380.000
54.26000 376.000
54.27500 384.000
54.29000 402.000
54.30500 403.000
54.32000 423.000
54.33500 402.000
54.35000 434.000
54.36500 448.000
54.38000 476.000
54.39500 473.000
54.41000 443.000
54.42500 422.000
54.44000 450.000
54.45500 465.000
54.47000 467.000
54.48500 497.000
54.50000 490.000
54.51500 496.000
54.53000 498.000
54.54500 489.000
54.56000 469.000
54.57500 506.000
54.59000 532.000
54.60500 502.000
54.62000 495.000
54.63500 462.000
54.65000 456.000
54.66500 454.000
54.68000 446.000
54.69500 431.000
54.71000 405.000
54.72500 422.000
54.74000 386.000
54.75500 357.000
54.77000 390.000
54.78500 387.000
54.80000 341.000
54.81500 339.000
54.83000 370.000
54.84500 386.000
54.86000 375.000
54.87500 344.000
54.89000 355.000
54.90500 369.000
54.92000 339.000
54.93500 342.000
54.95000 347.000
54.96500 318.000
54.98000 334.000
54.99500 338.000
55.01000 346.000
55.02500 333.000
55.04000 323.000
55.05500 327.000
55.07000 351.000
55.08500 335.000
55.10000 351.000
55.11500 311.000
55.13000 339.000
55.14500 336.000
55.16000 342.000
55.17500 342.000
55.19000 337.000
55.20500 332.000
55.22000 363.000
55.23500 347.000
55.25000 326.000
55.26500 347.000
55.28000 347.000
55.29500 336.000
55.31000 342.000
55.32500 343.000
55.34000 341.000
55.35500 344.000
55.37000 334.000
55.38500 344.000
55.40000 346.000
55.41500 362.000
55.43000 356.000
55.44500 345.000
55.46000 330.000
55.47500 345.000
55.49000 335.000
55.50500 329.000
55.52000 336.000
55.53500 337.000
55.55000 346.000
55.56500 341.000
55.58000 352.000
55.59500 365.000
55.61000 343.000
55.62500 375.000
55.64000 346.000
55.65500 343.000
55.67000 352.000
55.68500 353.000
55.70000 343.000
55.71500 355.000
55.73000 352.000
55.74500 342.000
55.76000 347.000
55.77500 390.000
55.79000 379.000
55.80500 369.000
55.82000 358.000
55.83500 361.000
55.85000 349.000
55.86500 378.000
55.88000 359.000
55.89500 363.000
55.91000 383.000
55.92500 353.000
55.94000 348.000
55.95500 378.000
55.97000 399.000
55.98500 387.000
56.00000 383.000
56.01500 389.000
56.03000 346.000
56.04500 354.000
56.06000 359.000
56.07500 378.000
56.09000 337.000
56.10500 348.000
56.12000 391.000
56.13500 394.000
56.15000 382.000
56.16500 357.000
56.18000 349.000
56.19500 369.000
56.21000 367.000
56.22500 358.000
56.24000 332.000
56.25500 357.000
56.27000 360.000
56.28500 358.000
56.30000 361.000
56.31500 371.000
56.33000 352.000
56.34500 362.000
56.36000 376.000
56.37500 380.000
56.39000 374.000
56.40500 377.000
56.42000 380.000
56.43500 379.000
56.45000 348.000
56.46500 354.000
56.48000 365.000
56.49500 359.000
56.51000 360.000
56.52500 376.000
56.54000 351.000
56.55500 364.000
56.57000 375.000
56.58500 349.000
56.60000 358.000
56.61500 362.000
56.63000 374.000
56.64500 353.000
56.66000 371.000
56.67500 345.000
56.69000 341.000
56.70500 368.000
56.72000 345.000
56.73500 341.000
56.75000 354.000
56.76500 342.000
56.78000 333.000
56.79500 351.000
56.81000 351.000
56.82500 337.000
56.84000 335.000
56.85500 329.000
56.87000 331.000
56.88500 337.000
56.90000 338.000
56.91500 339.000
56.93000 346.000
56.94500 344.000
56.96000 354.000
56.97500 325.000
56.99000 308.000
57.00500 320.000
57.02000 355.000
57.03500 353.000
57.05000 333.000
57.06500 333.000
57.08000 342.000
57.09500 330.000
57.11000 335.000
57.12500 342.000
57.14000 332.000
57.15500 336.000
57.17000 334.000
57.18500 334.000
57.20000 323.000
57.21500 345.000
57.23000 338.000
57.24500 333.000
57.26000 322.000
57.27500 320.000
57.29000 315.000
57.30500 305.000
57.32000 337.000
57.33500 307.000
57.35000 329.000
57.36500 304.000
57.38000 325.000
57.39500 326.000
57.41000 306.000
57.42500 313.000
57.44000 323.000
57.45500 328.000
57.47000 317.000
57.48500 343.000
57.50000 321.000
57.51500 321.000
57.53000 309.000
57.54500 340.000
57.56000 328.000
57.57500 328.000
57.59000 313.000
57.60500 309.000
57.62000 316.000
57.63500 286.000
57.65000 319.000
57.66500 357.000
57.68000 348.000
57.69500 320.000
57.71000 315.000
57.72500 306.000
57.74000 312.000
57.75500 318.000
57.77000 320.000
57.78500 309.000
57.80000 295.000
57.81500 312.000
57.83000 306.000
57.84500 305.000
57.86000 315.000
57.87500 312.000
57.89000 314.000
57.90500 303.000
57.92000 289.000
57.93500 303.000
57.95000 307.000
57.96500 289.000
57.98000 297.000
57.99500 301.000
58.01000 308.000
58.02500 303.000
58.04000 308.000
58.05500 295.000
58.07000 310.000
58.08500 298.000
58.10000 300.000
58.11500 310.000
58.13000 328.000
58.14500 305.000
58.16000 299.000
58.17500 274.000
58.19000 285.000
58.20500 285.000
58.22000 318.000
58.23500 278.000
58.25000 299.000
58.26500 300.000
58.28000 293.000
58.29500 272.000
58.31000 289.000
58.32500 304.000
58.34000 288.000
58.35500 284.000
58.37000 270.000
58.38500 287.000
58.40000 275.000
58.41500 261.000
58.43000 295.000
58.44500 288.000
58.46000 311.000
58.47500 287.000
58.49000 293.000
58.50500 294.000
58.52000 281.000
58.53500 288.000
58.55000 291.000
58.56500 310.000
58.58000 298.000
58.59500 291.000
58.61000 294.000
58.62500 289.000
58.64000 268.000
58.65500 281.000
58.67000 278.000
58.68500 304.000
58.70000 298.000
58.71500 305.000
58.73000 309.000
58.74500 285.000
58.76000 328.000
58.77500 297.000
58.79000 277.000
58.80500 293.000
58.82000 273.000
58.83500 278.000
58.85000 263.000
58.86500 267.000
58.88000 286.000
58.89500 299.000
58.91000 287.000
58.92500 299.000
58.94000 323.000
58.95500 300.000
58.97000 296.000
58.98500 314.000
59.00000 303.000
59.01500 295.000
59.03000 304.000
59.04500 278.000
59.06000 294.000
59.07500 289.000
59.09000 296.000
59.10500 300.000
59.12000 298.000
59.13500 306.000
59.15000 299.000
59.16500 276.000
59.18000 305.000
59.19500 303.000
59.21000 306.000
59.22500 308.000
59.24000 277.000
59.25500 276.000
59.27000 281.000
59.28500 278.000
59.30000 275.000
59.31500 270.000
59.33000 271.000
59.34500 286.000
59.36000 281.000
59.37500 283.000
59.39000 290.000
59.40500 293.000
59.42000 287.000
59.43500 277.000
59.45000 301.000
59.46500 259.000
59.48000 292.000
59.49500 280.000
59.51000 273.000
59.52500 277.000
59.54000 274.000
59.55500 295.000
59.57000 272.000
59.58500 279.000
59.60000 295.000
59.61500 286.000
59.63000 282.000
59.64500 280.000
59.66000 311.000
59.67500 270.000
59.69000 272.000
59.70500 291.000
59.72000 306.000
59.73500 280.000
59.75000 288.000
59.76500 271.000
59.78000 267.000
59.79500 258.000
59.81000 257.000
59.82500 268.000
59.84000 289.000
59.85500 273.000
59.87000 280.000
59.88500 303.000
59.90000 281.000
59.91500 265.000
59.93000 296.000
59.94500 293.000
59.96000 293.000
59.97500 303.000
59.99000 265.000
60.00500 263.000
60.02000 309.000
60.03500 286.000
60.05000 267.000
60.06500 276.000
60.08000 277.000
60.09500 255.000
60.11000 283.000
60.12500 292.000
60.14000 273.000
60.15500 299.000
60.17000 260.000
60.18500 268.000
60.20000 276.000
60.21500 260.000
60.23000 261.000
60.24500 274.000
60.26000 277.000
60.27500 298.000
60.29000 289.000
60.30500 322.000
60.32000 270.000
60.33500 281.000
60.35000 300.000
60.36500 278.000
60.38000 275.000
60.39500 288.000
60.41000 260.000
60.42500 297.000
60.44000 278.000
60.45500 283.000
60.47000 292.000
60.48500 298.000
60.50000 288.000
60.51500 271.000
60.53000 309.000
60.54500 302.000
60.56000 306.000
60.57500 290.000
60.59000 277.000
60.60500 254.000
60.62000 264.000
60.63500 270.000
60.65000 299.000
60.66500 272.000
60.68000 257.000
60.69500 269.000
60.71000 282.000
60.72500 289.000
60.74000 297.000
60.75500 301.000
60.77000 277.000
60.78500 256.000
60.80000 266.000
60.81500 290.000
60.83000 250.000
60.84500 258.000
60.86000 263.000
60.87500 255.000
60.89000 293.000
60.90500 284.000
60.92000 268.000
60.93500 276.000
60.95000 261.000
60.96500 280.000
60.98000 284.000
60.99500 291.000
61.01000 276.000
61.02500 272.000
61.04000 282.000
61.05500 278.000
61.07000 271.000
61.08500 278.000
61.10000 261.000
61.11500 259.000
61.13000 278.000
61.14500 268.000
61.16000 264.000
61.17500 269.000
61.19000 299.000
61.20500 269.000
61.22000 267.000
61.23500 281.000
61.25000 287.000
61.26500 300.000
61.28000 269.000
61.29500 264.000
61.31000 257.000
61.32500 249.000
61.34000 278.000
61.35500 276.000
61.37000 272.000
61.38500 273.000
61.40000 266.000
61.41500 280.000
61.43000 273.000
61.44500 267.000
61.46000 261.000
61.47500 262.000
61.49000 262.000
61.50500 248.000
61.52000 281.000
61.53500 267.000
61.55000 293.000
61.56500 253.000
61.58000 258.000
61.59500 282.000
61.61000 257.000
61.62500 263.000
61.64000 291.000
61.65500 277.000
61.67000 278.000
61.68500 276.000
61.70000 266.000
61.71500 260.000
61.73000 273.000
61.74500 278.000
61.76000 293.000
61.77500 279.000
61.79000 248.000
61.80500 260.000
61.82000 266.000
61.83500 255.000
61.85000 258.000
61.86500 285.000
61.88000 283.000
61.89500 256.000
61.91000 272.000
61.92500 263.000
61.94000 283.000
61.95500 276.000
61.97000 260.000
61.98500 254.000
