2.00000 4.000
2.01500 4.000
2.03000 6.000
2.04500 6.000
2.06000 3.000
2.07500 2.000
2.09000 1.000
2.10500 2.000
2.12000 6.000
2.13500 4.000
2.15000 5.000
2.16500 4.000
2.18000 5.000
2.19500 2.000
2.21000 6.000
2.22500 6.000
2.24000 1.000
2.25500 6.000
2.27000 5.000
2.28500 0.000
2.30000 2.000
2.31500 4.000
2.33000 4.000
2.34500 4.000
2.36000 3.000
2.37500 5.000
2.39000 2.000
2.40500 4.000
2.42000 6.000
2.43500 2.000
2.45000 4.000
2.46500 4.000
2.48000 1.000
2.49500 2.000
2.51000 1.000
2.52500 2.000
2.54000 3.000
2.55500 4.000
2.57000 3.000
2.58500 2.000
2.60000 3.000
2.61500 7.000
2.63000 4.000
2.64500 4.000
2.66000 2.000
2.67500 2.000
2.69000 3.000
2.70500 6.000
2.72000 7.000
2.73500 7.000
2.75000 6.000
2.76500 2.000
2.78000 4.000
2.79500 3.000
2.81000 4.000
2.82500 4.000
2.84000 2.000
2.85500 4.000
2.87000 3.000
2.88500 3.000
2.90000 6.000
2.91500 4.000
2.93000 2.000
2.94500 3.000
2.96000 5.000
2.97500 5.000
2.99000 6.000
3.00500 11.000
3.02000 19.000
3.03500 13.000
3.05000 16.000
3.06500 33.000
3.08000 66.000
3.09500 88.000
3.11000 152.000
3.12500 198.000
3.14000 242.000
3.15500 300.000
3.17000 372.000
3.18500 410.000
3.20000 430.000
3.21500 425.000
3.23000 419.000
3.24500 392.000
3.26000 429.000
3.27500 449.000
3.29000 411.000
3.30500 429.000
3.32000 423.000
3.33500 415.000
3.35000 407.000
3.36500 411.000
3.38000 383.000
3.39500 398.000
3.41000 385.000
3.42500 382.000
3.44000 365.000
3.45500 413.000
3.47000 378.000
3.48500 381.000
3.50000 397.000
3.51500 385.000
3.53000 358.000
3.54500 348.000
3.56000 348.000
3.57500 364.000
3.59000 390.000
3.60500 361.000
3.62000 364.000
3.63500 368.000
3.65000 332.000
3.66500 370.000
3.68000 378.000
3.69500 358.000
3.71000 349.000
3.72500 376.000
3.74000 355.000
3.75500 350.000
3.77000 342.000
3.78500 354.000
3.80000 345.000
3.81500 355.000
3.83000 350.000
3.84500 341.000
3.86000 336.000
3.87500 348.000
3.89000 366.000
3.90500 354.000
3.92000 353.000
3.93500 360.000
3.95000 350.000
3.96500 334.000
3.98000 359.000
3.99500 350.000
4.01000 329.000
4.02500 352.000
4.04000 358.000
4.05500 363.000
4.07000 343.000
4.08500 343.000
4.10000 329.000
4.11500 339.000
4.13000 335.000
4.14500 321.000
4.16000 338.000
4.17500 345.000
4.19000 355.000
4.20500 351.000
4.22000 360.000
4.23500 355.000
4.25000 337.000
4.26500 348.000
4.28000 329.000
4.29500 335.000
4.31000 337.000
4.32500 339.000
4.34000 366.000
4.35500 340.000
4.37000 340.000
4.38500 325.000
4.40000 345.000
4.41500 346.000
4.43000 357.000
4.44500 323.000
4.46000 326.000
4.47500 318.000
4.49000 306.000
4.50500 334.000
4.52000 341.000
4.53500 328.000
4.55000 330.000
4.56500 345.000
4.58000 325.000
4.59500 322.000
4.61000 330.000
4.62500 322.000
4.64000 333.000
4.65500 341.000
4.67000 327.000
4.68500 347.000
4.70000 352.000
4.71500 330.000
4.73000 328.000
4.74500 333.000
4.76000 316.000
4.77500 311.000
4.79000 345.000
4.80500 314.000
4.82000 353.000
4.83500 339.000
4.85000 317.000
4.86500 310.000
4.88000 297.000
4.89500 311.000
4.91000 327.000
4.92500 326.000
4.94000 340.000
4.95500 327.000
4.97000 304.000
4.98500 342.000
5.00000 331.000
5.01500 292.000
5.03000 317.000
5.04500 325.000
5.06000 322.000
5.07500 302.000
5.09000 353.000
5.10500 327.000
5.12000 322.000
5.13500 316.000
5.15000 327.000
5.16500 333.000
5.18000 329.000
5.19500 305.000
5.21000 326.000
5.22500 315.000
5.24000 334.000
5.25500 352.000
5.27000 334.000
5.28500 301.000
5.30000 333.000
5.31500 347.000
5.33000 356.000
5.34500 325.000
5.36000 328.000
5.37500 330.000
5.39000 320.000
5.40500 333.000
5.42000 336.000
5.43500 341.000
5.45000 313.000
5.46500 325.000
5.48000 330.000
5.49500 340.000
5.51000 354.000
5.52500 341.000
5.54000 329.000
5.55500 349.000
5.57000 353.000
5.58500 344.000
5.60000 350.000
5.61500 362.000
5.63000 359.000
5.64500 330.000
5.66000 331.000
5.67500 310.000
5.69000 341.000
5.70500 333.000
5.72000 350.000
5.73500 338.000
5.75000 335.000
5.76500 323.000
5.78000 348.000
5.79500 339.000
5.81000 331.000
5.82500 344.000
5.84000 333.000
5.85500 330.000
5.87000 348.000
5.88500 336.000
5.90000 341.000
5.91500 350.000
5.93000 335.000
5.94500 339.000
5.96000 335.000
5.97500 338.000
5.99000 371.000
6.00500 352.000
6.02000 338.000
6.03500 340.000
6.05000 313.000
6.06500 332.000
6.08000 341.000
6.09500 342.000
6.11000 335.000
6.12500 298.000
6.14000 328.000
6.15500 347.000
6.17000 324.000
6.18500 347.000
6.20000 329.000
6.21500 332.000
6.23000 377.000
6.24500 363.000
6.26000 356.000
6.27500 345.000
6.29000 365.000
6.30500 361.000
6.32000 335.000
6.33500 347.000
6.35000 348.000
6.36500 350.000
6.38000 353.000
6.39500 363.000
6.41000 348.000
6.42500 346.000
6.44000 349.000
6.45500 336.000
6.47000 335.000
6.48500 354.000
6.50000 346.000
6.51500 331.000
6.53000 320.000
6.54500 300.000
6.56000 343.000
6.57500 351.000
6.59000 354.000
6.60500 347.000
6.62000 347.000
6.63500 346.000
6.65000 354.000
6.66500 348.000
6.68000 358.000
6.69500 360.000
6.71000 368.000
6.72500 385.000
6.74000 350.000
6.75500 357.000
6.77000 346.000
6.78500 374.000
6.80000 350.000
6.81500 358.000
6.83000 334.000
6.84500 372.000
6.86000 360.000
6.87500 359.000
6.89000 357.000
6.90500 391.000
6.92000 383.000
6.93500 355.000
6.95000 364.000
6.96500 351.000
6.98000 365.000
6.99500 374.000
7.01000 391.000
7.02500 373.000
7.04000 354.000
7.05500 345.000
7.07000 357.000
7.08500 373.000
7.10000 347.000
7.11500 323.000
7.13000 361.000
7.14500 361.000
7.16000 367.000
7.17500 357.000
7.19000 379.000
7.20500 367.000
7.22000 361.000
7.23500 371.000
7.25000 361.000
7.26500 370.000
7.28000 380.000
7.29500 368.000
7.31000 369.000
7.32500 358.000
7.34000 366.000
7.35500 364.000
7.37000 377.000
7.38500 367.000
7.40000 384.000
7.41500 341.000
7.43000 369.000
7.44500 369.000
7.46000 369.000
7.47500 381.000
7.49000 363.000
7.50500 361.000
7.52000 353.000
7.53500 349.000
7.55000 355.000
7.56500 347.000
7.58000 355.000
7.59500 376.000
7.61000 370.000
7.62500 378.000
7.64000 364.000
7.65500 394.000
7.67000 362.000
7.68500 351.000
7.70000 351.000
7.71500 362.000
7.73000 363.000
7.74500 367.000
7.76000 381.000
7.77500 387.000
7.79000 357.000
7.80500 372.000
7.82000 366.000
7.83500 376.000
7.85000 386.000
7.86500 368.000
7.88000 381.000
7.89500 355.000
7.91000 347.000
7.92500 359.000
7.94000 358.000
7.95500 349.000
7.97000 378.000
7.98500 390.000
8.00000 366.000
8.01500 360.000
8.03000 395.000
8.04500 339.000
8.06000 374.000
8.07500 350.000
8.09000 349.000
8.10500 345.000
8.12000 356.000
8.13500 355.000
8.15000 383.000
8.16500 373.000
8.18000 370.000
8.19500 385.000
8.21000 385.000
8.22500 389.000
8.24000 373.000
8.25500 373.000
8.27000 364.000
8.28500 367.000
8.30000 376.000
8.31500 371.000
8.33000 385.000
8.34500 388.000
8.36000 382.000
8.37500 365.000
8.39000 382.000
8.40500 394.000
8.42000 351.000
8.43500 354.000
8.45000 332.000
8.46500 353.000
8.48000 394.000
8.49500 393.000
8.51000 392.000
8.52500 375.000
8.54000 392.000
8.55500 399.000
8.57000 400.000
8.58500 391.000
8.60000 396.000
8.61500 352.000
8.63000 351.000
8.64500 396.000
8.66000 402.000
8.67500 367.000
8.69000 415.000
8.70500 417.000
8.72000 423.000
8.73500 395.000
8.75000 406.000
8.76500 368.000
8.78000 369.000
8.79500 394.000
8.81000 351.000
8.82500 403.000
8.84000 390.000
8.85500 363.000
8.87000 370.000
8.88500 385.000
8.90000 379.000
8.91500 353.000
8.93000 381.000
8.94500 372.000
8.96000 388.000
8.97500 368.000
8.99000 388.000
9.00500 410.000
9.02000 375.000
9.03500 364.000
9.05000 395.000
9.06500 394.000
9.08000 377.000
9.09500 393.000
9.11000 356.000
9.12500 379.000
9.14000 350.000
9.15500 391.000
9.17000 392.000
9.18500 373.000
9.20000 411.000
9.21500 384.000
9.23000 406.000
9.24500 397.000
9.26000 393.000
9.27500 374.000
9.29000 381.000
9.30500 370.000
9.32000 386.000
9.33500 405.000
9.35000 372.000
9.36500 364.000
9.38000 363.000
9.39500 385.000
9.41000 384.000
9.42500 402.000
9.44000 390.000
9.45500 391.000
9.47000 375.000
9.48500 381.000
9.50000 379.000
9.51500 371.000
9.53000 355.000
9.54500 377.000
9.56000 384.000
9.57500 396.000
9.59000 385.000
9.60500 407.000
9.62000 405.000
9.63500 409.000
9.65000 434.000
9.66500 391.000
9.68000 385.000
9.69500 381.000
9.71000 384.000
9.72500 407.000
9.74000 387.000
9.75500 386.000
9.77000 375.000
9.78500 382.000
9.80000 399.000
9.81500 388.000
9.83000 392.000
9.84500 368.000
9.86000 413.000
9.87500 408.000
9.89000 449.000
9.90500 442.000
9.92000 415.000
9.93500 399.000
9.95000 411.000
9.96500 417.000
9.98000 407.000
9.99500 413.000
10.01000 427.000
10.02500 446.000
10.04000 434.000
10.05500 412.000
10.07000 407.000
10.08500 417.000
10.10000 386.000
10.11500 406.000
10.13000 398.000
10.14500 419.000
10.16000 394.000
10.17500 397.000
10.19000 431.000
10.20500 427.000
10.22000 416.000
10.23500 401.000
10.25000 414.000
10.26500 403.000
10.28000 408.000
10.29500 382.000
10.31000 407.000
10.32500 408.000
10.34000 433.000
10.35500 428.000
10.37000 414.000
10.38500 410.000
10.40000 403.000
10.41500 407.000
10.43000 448.000
10.44500 425.000
10.46000 430.000
10.47500 420.000
10.49000 416.000
10.50500 406.000
10.52000 418.000
10.53500 420.000
10.55000 439.000
10.56500 433.000
10.58000 415.000
10.59500 426.000
10.61000 420.000
10.62500 432.000
10.64000 431.000
10.65500 415.000
10.67000 413.000
10.68500 406.000
10.70000 431.000
10.71500 452.000
10.73000 423.000
10.74500 435.000
10.76000 431.000
10.77500 439.000
10.79000 458.000
10.80500 439.000
10.82000 414.000
10.83500 426.000
10.85000 436.000
10.86500 462.000
10.88000 445.000
10.89500 431.000
10.91000 438.000
10.92500 406.000
10.94000 451.000
10.95500 436.000
10.97000 449.000
10.98500 454.000
11.00000 434.000
11.01500 441.000
11.03000 439.000
11.04500 434.000
11.06000 438.000
11.07500 435.000
11.09000 419.000
11.10500 448.000
11.12000 459.000
11.13500 439.000
11.15000 429.000
11.16500 440.000
11.18000 465.000
11.19500 437.000
11.21000 439.000
11.22500 459.000
11.24000 454.000
11.25500 436.000
11.27000 397.000
11.28500 449.000
11.30000 452.000
11.31500 467.000
11.33000 426.000
11.34500 426.000
11.36000 442.000
11.37500 449.000
11.39000 456.000
11.40500 407.000
11.42000 430.000
11.43500 454.000
11.45000 425.000
11.46500 418.000
11.48000 454.000
11.49500 451.000
11.51000 441.000
11.52500 459.000
11.54000 472.000
11.55500 460.000
11.57000 484.000
11.58500 464.000
11.60000 397.000
11.61500 453.000
11.63000 467.000
11.64500 457.000
11.66000 478.000
11.67500 468.000
11.69000 477.000
11.70500 462.000
11.72000 465.000
11.73500 493.000
11.75000 451.000
11.76500 449.000
11.78000 469.000
11.79500 466.000
11.81000 457.000
11.82500 507.000
11.84000 488.000
11.85500 489.000
11.87000 473.000
11.88500 454.000
11.90000 492.000
11.91500 510.000
11.93000 489.000
11.94500 476.000
11.96000 480.000
11.97500 505.000
11.99000 481.000
12.00500 492.000
12.02000 522.000
12.03500 507.000
12.05000 459.000
12.06500 446.000
12.08000 479.000
12.09500 530.000
12.11000 500.000
12.12500 487.000
12.14000 506.000
12.15500 529.000
12.17000 529.000
12.18500 503.000
12.20000 505.000
12.21500 537.000
12.23000 507.000
12.24500 517.000
12.26000 504.000
12.27500 492.000
12.29000 508.000
12.30500 512.000
12.32000 509.000
12.33500 512.000
12.35000 503.000
12.36500 519.000
12.38000 560.000
12.39500 548.000
12.41000 533.000
12.42500 550.000
12.44000 556.000
12.45500 549.000
12.47000 582.000
12.48500 555.000
12.50000 567.000
12.51500 572.000
12.53000 569.000
12.54500 589.000
12.56000 619.000
12.57500 604.000
12.59000 576.000
12.60500 598.000
12.62000 622.000
12.63500 606.000
12.65000 638.000
12.66500 594.000
12.68000 605.000
12.69500 626.000
12.71000 607.000
12.72500 629.000
12.74000 612.000
12.75500 674.000
12.77000 654.000
12.78500 624.000
12.80000 637.000
12.81500 677.000
12.83000 640.000
12.84500 666.000
12.86000 685.000
12.87500 654.000
12.89000 717.000
12.90500 672.000
12.92000 609.000
12.93500 628.000
12.95000 669.000
12.96500 631.000
12.98000 660.000
12.99500 672.000
13.01000 671.000
13.02500 641.000
13.04000 640.000
13.05500 679.000
13.07000 654.000
13.08500 667.000
13.10000 627.000
13.11500 654.000
13.13000 636.000
13.14500 648.000
13.16000 692.000
13.17500 667.000
13.19000 634.000
13.20500 601.000
13.22000 630.000
13.23500 628.000
13.25000 666.000
13.26500 661.000
13.28000 659.000
13.29500 628.000
13.31000 669.000
13.32500 658.000
13.34000 662.000
13.35500 675.000
13.37000 635.000
13.38500 656.000
13.40000 638.000
13.41500 631.000
13.43000 632.000
13.44500 644.000
13.46000 656.000
13.47500 659.000
13.49000 662.000
13.50500 639.000
13.52000 633.000
13.53500 640.000
13.55000 618.000
13.56500 605.000
13.58000 585.000
13.59500 639.000
13.61000 644.000
13.62500 616.000
13.64000 623.000
13.65500 647.000
13.67000 623.000
13.68500 634.000
13.70000 617.000
13.71500 639.000
13.73000 627.000
13.74500 631.000
13.76000 629.000
13.77500 617.000
13.79000 602.000
13.80500 618.000
13.82000 614.000
13.83500 618.000
13.85000 616.000
13.86500 611.000
13.88000 583.000
13.89500 591.000
13.91000 593.000
13.92500 603.000
13.94000 612.000
13.95500 591.000
13.97000 625.000
13.98500 620.000
14.00000 612.000
14.01500 624.000
14.03000 627.000
14.04500 598.000
14.06000 603.000
14.07500 595.000
14.09000 621.000
14.10500 648.000
14.12000 551.000
14.13500 573.000
14.15000 592.000
14.16500 581.000
14.18000 592.000
14.19500 590.000
14.21000 630.000
14.22500 595.000
14.24000 595.000
14.25500 615.000
14.27000 620.000
14.28500 616.000
14.30000 583.000
14.31500 573.000
14.33000 592.000
14.34500 589.000
14.36000 622.000
14.37500 610.000
14.39000 607.000
14.40500 587.000
14.42000 568.000
14.43500 601.000
14.45000 576.000
14.46500 573.000
14.48000 601.000
14.49500 583.000
14.51000 593.000
14.52500 577.000
14.54000 560.000
14.55500 586.000
14.57000 559.000
14.58500 578.000
14.60000 596.000
14.61500 582.000
14.63000 591.000
14.64500 552.000
14.66000 591.000
14.67500 573.000
14.69000 572.000
14.70500 590.000
14.72000 565.000
14.73500 547.000
14.75000 568.000
14.76500 614.000
14.78000 586.000
14.79500 561.000
14.81000 587.000
14.82500 576.000
14.84000 563.000
14.85500 585.000
14.87000 586.000
14.88500 573.000
14.90000 571.000
14.91500 592.000
14.93000 572.000
14.94500 560.000
14.96000 616.000
14.97500 582.000
14.99000 564.000
15.00500 576.000
15.02000 561.000
15.03500 506.000
15.05000 526.000
15.06500 572.000
15.08000 559.000
15.09500 563.000
15.11000 543.000
15.12500 548.000
15.14000 564.000
15.15500 578.000
15.17000 528.000
15.18500 541.000
15.20000 558.000
15.21500 531.000
15.23000 552.000
15.24500 557.000
15.26000 517.000
15.27500 558.000
15.29000 586.000
15.30500 563.000
15.32000 543.000
15.33500 568.000
15.35000 530.000
15.36500 558.000
15.38000 572.000
15.39500 582.000
15.41000 558.000
15.42500 548.000
15.44000 530.000
15.45500 541.000
15.47000 535.000
15.48500 590.000
15.50000 563.000
15.51500 545.000
15.53000 557.000
15.54500 563.000
15.56000 570.000
15.57500 566.000
15.59000 550.000
15.60500 559.000
15.62000 556.000
15.63500 517.000
15.65000 583.000
15.66500 557.000
15.68000 568.000
15.69500 525.000
15.71000 502.000
15.72500 533.000
15.74000 570.000
15.75500 541.000
15.77000 563.000
15.78500 534.000
15.80000 550.000
15.81500 557.000
15.83000 565.000
15.84500 561.000
15.86000 557.000
15.87500 568.000
15.89000 558.000
15.90500 555.000
15.92000 558.000
15.93500 545.000
15.95000 545.000
15.96500 537.000
15.98000 546.000
15.99500 553.000
16.01000 566.000
16.02500 569.000
16.04000 592.000
16.05500 584.000
16.07000 578.000
16.08500 573.000
16.10000 587.000
16.11500 581.000
16.13000 578.000
16.14500 524.000
16.16000 538.000
16.17500 559.000
16.19000 559.000
16.20500 567.000
16.22000 577.000
16.23500 549.000
16.25000 544.000
16.26500 558.000
16.28000 550.000
16.29500 590.000
16.31000 587.000
16.32500 567.000
16.34000 568.000
16.35500 549.000
16.37000 537.000
16.38500 534.000
16.40000 571.000
16.41500 568.000
16.43000 578.000
16.44500 547.000
16.46000 555.000
16.47500 550.000
16.49000 548.000
16.50500 579.000
16.52000 571.000
16.53500 537.000
16.55000 548.000
16.56500 523.000
16.58000 551.000
16.59500 535.000
16.61000 561.000
16.62500 533.000
16.64000 559.000
16.65500 540.000
16.67000 554.000
16.68500 570.000
16.70000 514.000
16.71500 528.000
16.73000 579.000
16.74500 531.000
16.76000 547.000
16.77500 539.000
16.79000 498.000
16.80500 505.000
16.82000 546.000
16.83500 529.000
16.85000 527.000
16.86500 529.000
16.88000 549.000
16.89500 544.000
16.91000 546.000
16.92500 537.000
16.94000 578.000
16.95500 574.000
16.97000 522.000
16.98500 573.000
17.00000 550.000
17.01500 533.000
17.03000 563.000
17.04500 525.000
17.06000 593.000
17.07500 589.000
17.09000 550.000
17.10500 546.000
17.12000 533.000
17.13500 554.000
17.15000 565.000
17.16500 566.000
17.18000 571.000
17.19500 532.000
17.21000 531.000
17.22500 575.000
17.24000 584.000
17.25500 547.000
17.27000 544.000
17.28500 539.000
17.30000 565.000
17.31500 529.000
17.33000 596.000
17.34500 562.000
17.36000 595.000
17.37500 607.000
17.39000 569.000
17.40500 578.000
17.42000 596.000
17.43500 595.000
17.45000 591.000
17.46500 579.000
17.48000 589.000
17.49500 547.000
17.51000 557.000
17.52500 567.000
17.54000 574.000
17.55500 555.000
17.57000 580.000
17.58500 576.000
17.60000 594.000
17.61500 603.000
17.63000 589.000
17.64500 599.000
17.66000 565.000
17.67500 571.000
17.69000 585.000
17.70500 538.000
17.72000 582.000
17.73500 585.000
17.75000 585.000
17.76500 558.000
17.78000 546.000
17.79500 558.000
17.81000 561.000
17.82500 585.000
17.84000 604.000
17.85500 603.000
17.87000 575.000
17.88500 553.000
17.90000 572.000
17.91500 562.000
17.93000 547.000
17.94500 576.000
17.96000 602.000
17.97500 598.000
17.99000 587.000
18.00500 560.000
18.02000 592.000
18.03500 600.000
18.05000 574.000
18.06500 585.000
18.08000 548.000
18.09500 582.000
18.11000 567.000
18.12500 599.000
18.14000 559.000
18.15500 589.000
18.17000 590.000
18.18500 562.000
18.20000 562.000
18.21500 593.000
18.23000 608.000
18.24500 581.000
18.26000 575.000
18.27500 613.000
18.29000 577.000
18.30500 544.000
18.32000 596.000
18.33500 588.000
18.35000 582.000
18.36500 570.000
18.38000 563.000
18.39500 584.000
18.41000 600.000
18.42500 583.000
18.44000 582.000
18.45500 569.000
18.47000 555.000
18.48500 586.000
18.50000 582.000
18.51500 590.000
18.53000 585.000
18.54500 569.000
18.56000 545.000
18.57500 553.000
18.59000 556.000
18.60500 524.000
18.62000 560.000
18.63500 560.000
18.65000 589.000
18.66500 622.000
18.68000 601.000
18.69500 584.000
18.71000 583.000
18.72500 558.000
18.74000 565.000
18.75500 578.000
18.77000 540.000
18.78500 565.000
18.80000 583.000
18.81500 554.000
18.83000 557.000
18.84500 543.000
18.86000 531.000
18.87500 577.000
18.89000 591.000
18.90500 578.000
18.92000 556.000
18.93500 564.000
18.95000 535.000
18.96500 568.000
18.98000 563.000
18.99500 584.000
19.01000 554.000
19.02500 605.000
19.04000 580.000
19.05500 597.000
19.07000 557.000
19.08500 536.000
19.10000 521.000
19.11500 552.000
19.13000 604.000
19.14500 576.000
19.16000 561.000
19.17500 535.000
19.19000 568.000
19.20500 546.000
19.22000 579.000
19.23500 594.000
19.25000 539.000
19.26500 536.000
19.28000 524.000
19.29500 556.000
19.31000 541.000
19.32500 576.000
19.34000 621.000
19.35500 575.000
19.37000 543.000
19.38500 542.000
19.40000 554.000
19.41500 527.000
19.43000 575.000
19.44500 560.000
19.46000 554.000
19.47500 557.000
19.49000 530.000
19.50500 541.000
19.52000 541.000
19.53500 557.000
19.55000 560.000
19.56500 549.000
19.58000 552.000
19.59500 564.000
19.61000 569.000
19.62500 570.000
19.64000 552.000
19.65500 558.000
19.67000 551.000
19.68500 540.000
19.70000 542.000
19.71500 564.000
19.73000 560.000
19.74500 572.000
19.76000 539.000
19.77500 556.000
19.79000 542.000
19.80500 553.000
19.82000 594.000
19.83500 579.000
19.85000 581.000
19.86500 541.000
19.88000 540.000
19.89500 529.000
19.91000 555.000
19.92500 576.000
19.94000 560.000
19.95500 557.000
19.97000 566.000
19.98500 570.000
20.00000 528.000
20.01500 562.000
20.03000 582.000
20.04500 565.000
20.06000 520.000
20.07500 565.000
20.09000 542.000
20.10500 552.000
20.12000 544.000
20.13500 547.000
20.15000 559.000
20.16500 562.000
20.18000 574.000
20.19500 598.000
20.21000 573.000
20.22500 572.000
20.24000 586.000
20.25500 550.000
20.27000 553.000
20.28500 548.000
20.30000 576.000
20.31500 593.000
20.33000 564.000
20.34500 539.000
20.36000 569.000
20.37500 591.000
20.39000 569.000
20.40500 571.000
20.42000 575.000
20.43500 555.000
20.45000 540.000
20.46500 535.000
20.48000 534.000
20.49500 552.000
20.51000 576.000
20.52500 583.000
20.54000 560.000
20.55500 534.000
20.57000 540.000
20.58500 565.000
20.60000 536.000
20.61500 546.000
20.63000 552.000
20.64500 538.000
20.66000 537.000
20.67500 579.000
20.69000 562.000
20.70500 549.000
20.72000 559.000
20.73500 531.000
20.75000 533.000
20.76500 560.000
20.78000 577.000
20.79500 541.000
20.81000 579.000
20.82500 557.000
20.84000 547.000
20.85500 560.000
20.87000 565.000
20.88500 561.000
20.90000 530.000
20.91500 538.000
20.93000 573.000
20.94500 574.000
20.96000 573.000
20.97500 567.000
20.99000 543.000
21.00500 532.000
21.02000 567.000
21.03500 571.000
21.05000 564.000
21.06500 542.000
21.08000 584.000
21.09500 572.000
21.11000 536.000
21.12500 540.000
21.14000 555.000
21.15500 572.000
21.17000 562.000
21.18500 577.000
21.20000 577.000
21.21500 607.000
21.23000 589.000
21.24500 534.000
21.26000 558.000
21.27500 530.000
21.29000 556.000
21.30500 549.000
21.32000 553.000
21.33500 558.000
21.35000 562.000
21.36500 557.000
21.38000 530.000
21.39500 579.000
21.41000 573.000
21.42500 563.000
21.44000 578.000
21.45500 587.000
21.47000 560.000
21.48500 560.000
21.50000 563.000
21.51500 562.000
21.53000 580.000
21.54500 589.000
21.56000 594.000
21.57500 548.000
21.59000 587.000
21.60500 600.000
21.62000 553.000
21.63500 585.000
21.65000 547.000
21.66500 610.000
21.68000 599.000
21.69500 588.000
21.71000 571.000
21.72500 553.000
21.74000 553.000
21.75500 584.000
21.77000 595.000
21.78500 600.000
21.80000 583.000
21.81500 568.000
21.83000 556.000
21.84500 531.000
21.86000 552.000
21.87500 574.000
21.89000 624.000
21.90500 558.000
21.92000 555.000
21.93500 588.000
21.95000 577.000
21.96500 530.000
21.98000 571.000
21.99500 520.000
22.01000 583.000
22.02500 592.000
22.04000 581.000
22.05500 582.000
22.07000 603.000
22.08500 579.000
22.10000 564.000
22.11500 599.000
22.13000 589.000
22.14500 567.000
22.16000 561.000
22.17500 593.000
22.19000 548.000
22.20500 557.000
22.22000 567.000
22.23500 569.000
22.25000 561.000
22.26500 567.000
22.28000 563.000
22.29500 587.000
22.31000 595.000
22.32500 542.000
22.34000 563.000
22.35500 579.000
22.37000 559.000
22.38500 560.000
22.40000 597.000
22.41500 582.000
22.43000 558.000
22.44500 555.000
22.46000 577.000
22.47500 573.000
22.49000 583.000
22.50500 575.000
22.52000 563.000
22.53500 595.000
22.55000 593.000
22.56500 579.000
22.58000 556.000
22.59500 578.000
22.61000 558.000
22.62500 574.000
22.64000 552.000
22.65500 577.000
22.67000 578.000
22.68500 550.000
22.70000 546.000
22.71500 552.000
22.73000 580.000
22.74500 586.000
22.76000 620.000
22.77500 581.000
22.79000 586.000
22.80500 595.000
22.82000 546.000
22.83500 535.000
22.85000 560.000
22.86500 552.000
22.88000 541.000
22.89500 573.000
22.91000 577.000
22.92500 543.000
22.94000 570.000
22.95500 591.000
22.97000 570.000
22.98500 587.000
23.00000 592.000
23.01500 550.000
23.03000 588.000
23.04500 560.000
23.06000 550.000
23.07500 555.000
23.09000 565.000
23.10500 597.000
23.12000 591.000
23.13500 608.000
23.15000 586.000
23.16500 571.000
23.18000 585.000
23.19500 579.000
23.21000 574.000
23.22500 566.000
23.24000 558.000
23.25500 568.000
23.27000 581.000
23.28500 575.000
23.30000 581.000
23.31500 576.000
23.33000 523.000
23.34500 529.000
23.36000 539.000
23.37500 572.000
23.39000 569.000
23.40500 563.000
23.42000 556.000
23.43500 556.000
23.45000 541.000
23.46500 541.000
23.48000 548.000
23.49500 544.000
23.51000 550.000
23.52500 569.000
23.54000 560.000
23.55500 548.000
23.57000 543.000
23.58500 588.000
23.60000 570.000
23.61500 558.000
23.63000 541.000
23.64500 543.000
23.66000 551.000
23.67500 542.000
23.69000 561.000
23.70500 600.000
23.72000 583.000
23.73500 584.000
23.75000 536.000
23.76500 550.000
23.78000 560.000
23.79500 558.000
23.81000 532.000
23.82500 563.000
23.84000 581.000
23.85500 573.000
23.87000 577.000
23.88500 548.000
23.90000 544.000
23.91500 546.000
23.93000 562.000
23.94500 579.000
23.96000 541.000
23.97500 551.000
23.99000 553.000
24.00500 536.000
24.02000 551.000
24.03500 547.000
24.05000 574.000
24.06500 562.000
24.08000 560.000
24.09500 561.000
24.11000 548.000
24.12500 524.000
24.14000 532.000
24.15500 547.000
24.17000 502.000
24.18500 540.000
24.20000 590.000
24.21500 580.000
24.23000 562.000
24.24500 552.000
24.26000 541.000
24.27500 537.000
24.29000 583.000
24.30500 581.000
24.32000 591.000
24.33500 561.000
24.35000 588.000
24.36500 560.000
24.38000 604.000
24.39500 575.000
24.41000 582.000
24.42500 565.000
24.44000 574.000
24.45500 625.000
24.47000 596.000
24.48500 588.000
24.50000 566.000
24.51500 591.000
24.53000 590.000
24.54500 608.000
24.56000 604.000
24.57500 587.000
24.59000 585.000
24.60500 596.000
24.62000 592.000
24.63500 546.000
24.65000 585.000
24.66500 536.000
24.68000 554.000
24.69500 591.000
24.71000 574.000
24.72500 564.000
24.74000 604.000
24.75500 596.000
24.77000 615.000
24.78500 607.000
24.80000 588.000
24.81500 591.000
24.83000 565.000
24.84500 575.000
24.86000 580.000
24.87500 608.000
24.89000 606.000
24.90500 627.000
24.92000 619.000
24.93500 570.000
24.95000 605.000
24.96500 578.000
24.98000 590.000
24.99500 606.000
25.01000 614.000
25.02500 626.000
25.04000 624.000
25.05500 623.000
25.07000 603.000
25.08500 596.000
25.10000 601.000
25.11500 639.000
25.13000 620.000
25.14500 627.000
25.16000 581.000
25.17500 613.000
25.19000 631.000
25.20500 603.000
25.22000 617.000
25.23500 654.000
25.25000 622.000
25.26500 634.000
25.28000 648.000
25.29500 629.000
25.31000 639.000
25.32500 656.000
25.34000 644.000
25.35500 645.000
25.37000 648.000
25.38500 626.000
25.40000 683.000
25.41500 659.000
25.43000 673.000
25.44500 643.000
25.46000 649.000
25.47500 676.000
25.49000 683.000
25.50500 677.000
25.52000 694.000
25.53500 719.000
25.55000 664.000
25.56500 663.000
25.58000 692.000
25.59500 699.000
25.61000 689.000
25.62500 689.000
25.64000 673.000
25.65500 691.000
25.67000 674.000
25.68500 680.000
25.70000 691.000
25.71500 722.000
25.73000 748.000
25.74500 768.000
25.76000 747.000
25.77500 717.000
25.79000 765.000
25.80500 745.000
25.82000 732.000
25.83500 722.000
25.85000 776.000
25.86500 755.000
25.88000 779.000
25.89500 759.000
25.91000 740.000
25.92500 764.000
25.94000 769.000
25.95500 760.000
25.97000 805.000
25.98500 857.000
26.00000 817.000
26.01500 794.000
26.03000 804.000
26.04500 833.000
26.06000 808.000
26.07500 826.000
26.09000 824.000
26.10500 777.000
26.12000 838.000
26.13500 863.000
26.15000 883.000
26.16500 863.000
26.18000 921.000
26.19500 885.000
26.21000 891.000
26.22500 928.000
26.24000 875.000
26.25500 903.000
26.27000 909.000
26.28500 932.000
26.30000 933.000
26.31500 931.000
26.33000 934.000
26.34500 916.000
26.36000 920.000
26.37500 981.000
26.39000 1022.000
26.40500 1026.000
26.42000 1009.000
26.43500 1014.000
26.45000 981.000
26.46500 1076.000
26.48000 1041.000
26.49500 1100.000
26.51000 1107.000
26.52500 1094.000
26.54000 1074.000
26.55500 1036.000
26.57000 1104.000
26.58500 1170.000
26.60000 1149.000
26.61500 1182.000
26.63000 1103.000
26.64500 1137.000
26.66000 1195.000
26.67500 1217.000
26.69000 1192.000
26.70500 1239.000
26.72000 1268.000
26.73500 1266.000
26.75000 1288.000
26.76500 1316.000
26.78000 1340.000
26.79500 1344.000
26.81000 1349.000
26.82500 1413.000
26.84000 1444.000
26.85500 1391.000
26.87000 1438.000
26.88500 1441.000
26.90000 1488.000
26.91500 1442.000
26.93000 1517.000
26.94500 1588.000
26.96000 1610.000
26.97500 1634.000
26.99000 1635.000
27.00500 1643.000
27.02000 1666.000
27.03500 1692.000
27.05000 1695.000
27.06500 1717.000
27.08000 1752.000
27.09500 1770.000
27.11000 1821.000
27.12500 1801.000
27.14000 1819.000
27.15500 1879.000
27.17000 1821.000
27.18500 1851.000
27.20000 1907.000
27.21500 1948.000
27.23000 1953.000
27.24500 1986.000
27.26000 1999.000
27.27500 2027.000
27.29000 1989.000
27.30500 2091.000
27.32000 2080.000
27.33500 2090.000
27.35000 2133.000
27.36500 2102.000
27.38000 2113.000
27.39500 2102.000
27.41000 2080.000
27.42500 2098.000
27.44000 2160.000
27.45500 2153.000
27.47000 2109.000
27.48500 2167.000
27.50000 2121.000
27.51500 2158.000
27.53000 2152.000
27.54500 2176.000
27.56000 2173.000
27.57500 2110.000
27.59000 2080.000
27.60500 2060.000
27.62000 2092.000
27.63500 2067.000
27.65000 2111.000
27.66500 2102.000
27.68000 1985.000
27.69500 1950.000
27.71000 1957.000
27.72500 1984.000
27.74000 1933.000
27.75500 1855.000
27.77000 1796.000
27.78500 1830.000
27.80000 1771.000
27.81500 1728.000
27.83000 1731.000
27.84500 1683.000
27.86000 1648.000
27.87500 1605.000
27.89000 1614.000
27.90500 1575.000
27.92000 1526.000
27.93500 1528.000
27.95000 1439.000
27.96500 1435.000
27.98000 1379.000
27.99500 1466.000
28.01000 1339.000
28.02500 1363.000
28.04000 1334.000
28.05500 1249.000
28.07000 1312.000
28.08500 1280.000
28.10000 1233.000
28.11500 1177.000
28.13000 1173.000
28.14500 1181.000
28.16000 1131.000
28.17500 1075.000
28.19000 1052.000
28.20500 1090.000
28.22000 1033.000
28.23500 1016.000
28.25000 1032.000
28.26500 1011.000
28.28000 1000.000
28.29500 980.000
28.31000 923.000
28.32500 947.000
28.34000 989.000
28.35500 923.000
28.37000 937.000
28.38500 917.000
28.40000 901.000
28.41500 863.000
28.43000 834.000
28.44500 831.000
28.46000 859.000
28.47500 844.000
28.49000 798.000
28.50500 778.000
28.52000 803.000
28.53500 784.000
28.55000 802.000
28.56500 801.000
28.58000 775.000
28.59500 764.000
28.61000 756.000
28.62500 740.000
28.64000 709.000
28.65500 728.000
28.67000 689.000
28.68500 715.000
28.70000 721.000
28.71500 747.000
28.73000 708.000
28.74500 697.000
28.76000 695.000
28.77500 690.000
28.79000 659.000
28.80500 666.000
28.82000 671.000
28.83500 685.000
28.85000 653.000
28.86500 638.000
28.88000 665.000
28.89500 672.000
28.91000 657.000
28.92500 605.000
28.94000 604.000
28.95500 672.000
28.97000 641.000
28.98500 573.000
29.00000 625.000
29.01500 655.000
29.03000 601.000
29.04500 629.000
29.06000 613.000
29.07500 595.000
29.09000 627.000
29.10500 568.000
29.12000 585.000
29.13500 593.000
29.15000 594.000
29.16500 595.000
29.18000 614.000
29.19500 583.000
29.21000 564.000
29.22500 530.000
29.24000 579.000
29.25500 583.000
29.27000 548.000
29.28500 548.000
29.30000 552.000
29.31500 506.000
29.33000 555.000
29.34500 564.000
29.36000 553.000
29.37500 519.000
29.39000 536.000
29.40500 552.000
29.42000 529.000
29.43500 527.000
29.45000 549.000
29.46500 512.000
29.48000 508.000
29.49500 537.000
29.51000 582.000
29.52500 523.000
29.54000 529.000
29.55500 511.000
29.57000 512.000
29.58500 519.000
29.60000 487.000
29.61500 517.000
29.63000 525.000
29.64500 498.000
29.66000 525.000
29.67500 498.000
29.69000 495.000
29.70500 516.000
29.72000 473.000
29.73500 465.000
29.75000 475.000
29.76500 514.000
29.78000 516.000
29.79500 514.000
29.81000 513.000
29.82500 507.000
29.84000 523.000
29.85500 495.000
29.87000 465.000
29.88500 501.000
29.90000 480.000
29.91500 467.000
29.93000 472.000
29.94500 497.000
29.96000 535.000
29.97500 492.000
29.99000 483.000
30.00500 468.000
30.02000 506.000
30.03500 489.000
30.05000 469.000
30.06500 479.000
30.08000 478.000
30.09500 496.000
30.11000 492.000
30.12500 475.000
30.14000 448.000
30.15500 486.000
30.17000 483.000
30.18500 478.000
30.20000 490.000
30.21500 480.000
30.23000 459.000
30.24500 466.000
30.26000 497.000
30.27500 455.000
30.29000 492.000
30.30500 451.000
30.32000 461.000
30.33500 459.000
30.35000 485.000
30.36500 484.000
30.38000 446.000
30.39500 453.000
30.41000 456.000
30.42500 450.000
30.44000 451.000
30.45500 475.000
30.47000 455.000
30.48500 437.000
30.50000 418.000
30.51500 448.000
30.53000 459.000
30.54500 459.000
30.56000 449.000
30.57500 456.000
30.59000 461.000
30.60500 462.000
30.62000 447.000
30.63500 432.000
30.65000 449.000
30.66500 467.000
30.68000 461.000
30.69500 426.000
30.71000 419.000
30.72500 433.000
30.74000 440.000
30.75500 435.000
30.77000 462.000
30.78500 455.000
30.80000 438.000
30.81500 453.000
30.83000 468.000
30.84500 420.000
30.86000 426.000
30.87500 425.000
30.89000 441.000
30.90500 434.000
30.92000 419.000
30.93500 400.000
30.95000 422.000
30.96500 448.000
30.98000 450.000
30.99500 421.000
31.01000 435.000
31.02500 447.000
31.04000 440.000
31.05500 424.000
31.07000 403.000
31.08500 434.000
31.10000 421.000
31.11500 410.000
31.13000 398.000
31.14500 410.000
31.16000 407.000
31.17500 446.000
31.19000 408.000
31.20500 383.000
31.22000 411.000
31.23500 433.000
31.25000 406.000
31.26500 396.000
31.28000 402.000
31.29500 421.000
31.31000 406.000
31.32500 406.000
31.34000 394.000
31.35500 399.000
31.37000 399.000
31.38500 398.000
31.40000 411.000
31.41500 405.000
31.43000 389.000
31.44500 395.000
31.46000 413.000
31.47500 401.000
31.49000 369.000
31.50500 395.000
31.52000 419.000
31.53500 400.000
31.55000 419.000
31.56500 403.000
31.58000 395.000
31.59500 395.000
31.61000 392.000
31.62500 360.000
31.64000 384.000
31.65500 410.000
31.67000 444.000
31.68500 420.000
31.70000 431.000
31.71500 403.000
31.73000 379.000
31.74500 387.000
31.76000 363.000
31.77500 366.000
31.79000 379.000
31.80500 383.000
31.82000 389.000
31.83500 388.000
31.85000 389.000
31.86500 382.000
31.88000 393.000
31.89500 380.000
31.91000 377.000
31.92500 389.000
31.94000 370.000
31.95500 393.000
31.97000 404.000
31.98500 370.000
32.00000 383.000
32.01500 396.000
32.03000 367.000
32.04500 351.000
32.06000 355.000
32.07500 347.000
32.09000 379.000
32.10500 387.000
32.12000 340.000
32.13500 374.000
32.15000 384.000
32.16500 368.000
32.18000 382.000
32.19500 374.000
32.21000 390.000
32.22500 375.000
32.24000 390.000
32.25500 363.000
32.27000 353.000
32.28500 362.000
32.30000 349.000
32.31500 380.000
32.33000 382.000
32.34500 359.000
32.36000 362.000
32.37500 334.000
32.39000 363.000
32.40500 380.000
32.42000 366.000
32.43500 380.000
32.45000 356.000
32.46500 353.000
32.48000 363.000
32.49500 360.000
32.51000 351.000
32.52500 381.000
32.54000 353.000
32.55500 320.000
32.57000 325.000
32.58500 359.000
32.60000 368.000
32.61500 357.000
32.63000 356.000
32.64500 356.000
32.66000 338.000
32.67500 345.000
32.69000 331.000
32.70500 326.000
32.72000 352.000
32.73500 323.000
32.75000 327.000
32.76500 334.000
32.78000 338.000
32.79500 366.000
32.81000 351.000
32.82500 330.000
32.84000 347.000
32.85500 344.000
32.87000 356.000
32.88500 343.000
32.90000 328.000
32.91500 326.000
32.93000 340.000
32.94500 336.000
32.96000 325.000
32.97500 343.000
32.99000 346.000
33.00500 341.000
33.02000 363.000
33.03500 344.000
33.05000 322.000
33.06500 312.000
33.08000 325.000
33.09500 328.000
33.11000 346.000
33.12500 330.000
33.14000 336.000
33.15500 363.000
33.17000 328.000
33.18500 346.000
33.20000 326.000
33.21500 334.000
33.23000 322.000
33.24500 356.000
33.26000 352.000
33.27500 338.000
33.29000 310.000
33.30500 314.000
33.32000 340.000
33.33500 350.000
33.35000 357.000
33.36500 344.000
33.38000 343.000
33.39500 326.000
33.41000 318.000
33.42500 316.000
33.44000 322.000
33.45500 319.000
33.47000 337.000
33.48500 332.000
33.50000 317.000
33.51500 344.000
33.53000 352.000
33.54500 356.000
33.56000 321.000
33.57500 301.000
33.59000 323.000
33.60500 330.000
33.62000 318.000
33.63500 342.000
33.65000 316.000
33.66500 341.000
33.68000 319.000
33.69500 333.000
33.71000 326.000
33.72500 311.000
33.74000 319.000
33.75500 330.000
33.77000 357.000
33.78500 318.000
33.80000 331.000
33.81500 315.000
33.83000 316.000
33.84500 305.000
33.86000 316.000
33.87500 330.000
33.89000 326.000
33.90500 311.000
33.92000 303.000
33.93500 297.000
33.95000 284.000
33.96500 312.000
33.98000 342.000
33.99500 331.000
34.01000 285.000
34.02500 335.000
34.04000 317.000
34.05500 301.000
34.07000 310.000
34.08500 292.000
34.10000 300.000
34.11500 290.000
34.13000 307.000
34.14500 312.000
34.16000 324.000
34.17500 324.000
34.19000 292.000
34.20500 307.000
34.22000 330.000
34.23500 304.000
34.25000 312.000
34.26500 294.000
34.28000 310.000
34.29500 299.000
34.31000 284.000
34.32500 292.000
34.34000 308.000
34.35500 316.000
34.37000 313.000
34.38500 291.000
34.40000 322.000
34.41500 329.000
34.43000 279.000
34.44500 283.000
34.46000 298.000
34.47500 336.000
34.49000 322.000
34.50500 320.000
34.52000 296.000
34.53500 312.000
34.55000 327.000
34.56500 320.000
34.58000 286.000
34.59500 313.000
34.61000 315.000
34.62500 324.000
34.64000 297.000
34.65500 306.000
34.67000 315.000
34.68500 289.000
34.70000 309.000
34.71500 294.000
34.73000 311.000
34.74500 304.000
34.76000 306.000
34.77500 299.000
34.79000 313.000
34.80500 315.000
34.82000 312.000
34.83500 301.000
34.85000 293.000
34.86500 301.000
34.88000 305.000
34.89500 302.000
34.91000 307.000
34.92500 316.000
34.94000 337.000
34.95500 298.000
34.97000 278.000
34.98500 288.000
35.00000 285.000
35.01500 289.000
35.03000 298.000
35.04500 293.000
35.06000 285.000
35.07500 289.000
35.09000 322.000
35.10500 302.000
35.12000 289.000
35.13500 294.000
35.15000 269.000
35.16500 294.000
35.18000 285.000
35.19500 294.000
35.21000 276.000
35.22500 284.000
35.24000 288.000
35.25500 294.000
35.27000 272.000
35.28500 281.000
35.30000 299.000
35.31500 301.000
35.33000 294.000
35.34500 280.000
35.36000 292.000
35.37500 294.000
35.39000 301.000
35.40500 296.000
35.42000 261.000
35.43500 278.000
35.45000 268.000
35.46500 308.000
35.48000 282.000
35.49500 269.000
35.51000 292.000
35.52500 293.000
35.54000 310.000
35.55500 307.000
35.57000 305.000
35.58500 283.000
35.60000 299.000
35.61500 281.000
35.63000 276.000
35.64500 323.000
35.66000 299.000
35.67500 271.000
35.69000 283.000
35.70500 302.000
35.72000 298.000
35.73500 265.000
35.75000 266.000
35.76500 271.000
35.78000 279.000
35.79500 276.000
35.81000 273.000
35.82500 279.000
35.84000 289.000
35.85500 259.000
35.87000 278.000
35.88500 285.000
35.90000 273.000
35.91500 258.000
35.93000 298.000
35.94500 266.000
35.96000 263.000
35.97500 280.000
35.99000 281.000
36.00500 271.000
36.02000 294.000
36.03500 293.000
36.05000 279.000
36.06500 279.000
36.08000 245.000
36.09500 276.000
36.11000 279.000
36.12500 267.000
36.14000 260.000
36.15500 290.000
36.17000 269.000
36.18500 271.000
36.20000 270.000
36.21500 273.000
36.23000 266.000
36.24500 259.000
36.26000 260.000
36.27500 284.000
36.29000 269.000
36.30500 283.000
36.32000 265.000
36.33500 261.000
36.35000 251.000
36.36500 270.000
36.38000 290.000
36.39500 258.000
36.41000 260.000
36.42500 268.000
36.44000 256.000
36.45500 237.000
36.47000 266.000
36.48500 263.000
36.50000 262.000
36.51500 280.000
36.53000 252.000
36.54500 253.000
36.56000 260.000
36.57500 273.000
36.59000 259.000
36.60500 245.000
36.62000 269.000
36.63500 254.000
36.65000 274.000
36.66500 266.000
36.68000 277.000
36.69500 287.000
36.71000 266.000
36.72500 283.000
36.74000 280.000
36.75500 261.000
36.77000 262.000
36.78500 275.000
36.80000 249.000
36.81500 241.000
36.83000 270.000
36.84500 278.000
36.86000 275.000
36.87500 270.000
36.89000 264.000
36.90500 272.000
36.92000 265.000
36.93500 268.000
36.95000 252.000
36.96500 249.000
36.98000 245.000
36.99500 259.000
37.01000 281.000
37.02500 274.000
37.04000 276.000
37.05500 264.000
37.07000 227.000
37.08500 244.000
37.10000 265.000
37.11500 261.000
37.13000 221.000
37.14500 250.000
37.16000 258.000
37.17500 253.000
37.19000 264.000
37.20500 260.000
37.22000 263.000
37.23500 247.000
37.25000 251.000
37.26500 251.000
37.28000 254.000
37.29500 244.000
37.31000 269.000
37.32500 252.000
37.34000 258.000
37.35500 277.000
37.37000 258.000
37.38500 273.000
37.40000 237.000
37.41500 243.000
37.43000 248.000
37.44500 254.000
37.46000 264.000
37.47500 263.000
37.49000 238.000
37.50500 253.000
37.52000 274.000
37.53500 260.000
37.55000 242.000
37.56500 228.000
37.58000 238.000
37.59500 256.000
37.61000 262.000
37.62500 250.000
37.64000 249.000
37.65500 263.000
37.67000 272.000
37.68500 225.000
37.70000 227.000
37.71500 231.000
37.73000 242.000
37.74500 262.000
37.76000 266.000
37.77500 256.000
37.79000 245.000
37.80500 269.000
37.82000 262.000
37.83500 247.000
37.85000 260.000
37.86500 241.000
37.88000 229.000
37.89500 251.000
37.91000 247.000
37.92500 227.000
37.94000 244.000
37.95500 238.000
37.97000 236.000
37.98500 257.000
38.00000 231.000
38.01500 257.000
38.03000 230.000
38.04500 217.000
38.06000 232.000
38.07500 238.000
38.09000 220.000
38.10500 252.000
38.12000 271.000
38.13500 275.000
38.15000 258.000
38.16500 246.000
38.18000 251.000
38.19500 234.000
38.21000 247.000
38.22500 261.000
38.24000 242.000
38.25500 257.000
38.27000 237.000
38.28500 240.000
38.30000 244.000
38.31500 230.000
38.33000 227.000
38.34500 247.000
38.36000 237.000
38.37500 218.000
38.39000 245.000
38.40500 246.000
38.42000 253.000
38.43500 252.000
38.45000 242.000
38.46500 227.000
38.48000 206.000
38.49500 261.000
38.51000 276.000
38.52500 257.000
38.54000 254.000
38.55500 271.000
38.57000 267.000
38.58500 234.000
38.60000 258.000
38.61500 257.000
38.63000 253.000
38.64500 238.000
38.66000 241.000
38.67500 265.000
38.69000 242.000
38.70500 246.000
38.72000 268.000
38.73500 238.000
38.75000 239.000
38.76500 233.000
38.78000 234.000
38.79500 260.000
38.81000 254.000
38.82500 269.000
38.84000 251.000
38.85500 245.000
38.87000 251.000
38.88500 263.000
38.90000 235.000
38.91500 240.000
38.93000 246.000
38.94500 244.000
38.96000 262.000
38.97500 248.000
38.99000 252.000
39.00500 286.000
39.02000 267.000
39.03500 244.000
39.05000 236.000
39.06500 219.000
39.08000 225.000
39.09500 247.000
39.11000 247.000
39.12500 233.000
39.14000 248.000
39.15500 265.000
39.17000 254.000
39.18500 249.000
39.20000 243.000
39.21500 237.000
39.23000 242.000
39.24500 247.000
39.26000 237.000
39.27500 244.000
39.29000 249.000
39.30500 251.000
39.32000 261.000
39.33500 236.000
39.35000 244.000
39.36500 242.000
39.38000 240.000
39.39500 248.000
39.41000 257.000
39.42500 238.000
39.44000 237.000
39.45500 262.000
39.47000 275.000
39.48500 237.000
39.50000 228.000
39.51500 247.000
39.53000 240.000
39.54500 230.000
39.56000 251.000
39.57500 263.000
39.59000 234.000
39.60500 248.000
39.62000 242.000
39.63500 250.000
39.65000 257.000
39.66500 246.000
39.68000 247.000
39.69500 253.000
39.71000 246.000
39.72500 261.000
39.74000 258.000
39.75500 239.000
39.77000 237.000
39.78500 242.000
39.80000 242.000
39.81500 261.000
39.83000 235.000
39.84500 233.000
39.86000 256.000
39.87500 245.000
39.89000 249.000
39.90500 254.000
39.92000 271.000
39.93500 255.000
39.95000 234.000
39.96500 216.000
39.98000 248.000
39.99500 263.000
40.01000 226.000
40.02500 258.000
40.04000 240.000
40.05500 253.000
40.07000 246.000
40.08500 263.000
40.10000 215.000
40.11500 234.000
40.13000 229.000
40.14500 239.000
40.16000 231.000
40.17500 247.000
40.19000 244.000
40.20500 226.000
40.22000 234.000
40.23500 243.000
40.25000 249.000
40.26500 231.000
40.28000 255.000
40.29500 233.000
40.31000 238.000
40.32500 242.000
40.34000 253.000
40.35500 259.000
40.37000 220.000
40.38500 226.000
40.40000 249.000
40.41500 251.000
40.43000 231.000
40.44500 252.000
40.46000 226.000
40.47500 222.000
40.49000 256.000
40.50500 264.000
40.52000 235.000
40.53500 269.000
40.55000 253.000
40.56500 240.000
40.58000 229.000
40.59500 246.000
40.61000 234.000
40.62500 231.000
40.64000 221.000
40.65500 227.000
40.67000 255.000
40.68500 252.000
40.70000 247.000
40.71500 258.000
40.73000 260.000
40.74500 262.000
40.76000 252.000
40.77500 227.000
40.79000 221.000
40.80500 227.000
40.82000 222.000
40.83500 232.000
40.85000 238.000
40.86500 234.000
40.88000 248.000
40.89500 217.000
40.91000 249.000
40.92500 255.000
40.94000 268.000
40.95500 257.000
40.97000 244.000
40.98500 243.000
41.00000 252.000
41.01500 259.000
41.03000 241.000
41.04500 256.000
41.06000 250.000
41.07500 233.000
41.09000 234.000
41.10500 224.000
41.12000 219.000
41.13500 250.000
41.15000 264.000
41.16500 217.000
41.18000 240.000
41.19500 253.000
41.21000 256.000
41.22500 249.000
41.24000 250.000
41.25500 246.000
41.27000 245.000
41.28500 242.000
41.30000 263.000
41.31500 255.000
41.33000 239.000
41.34500 221.000
41.36000 249.000
41.37500 249.000
41.39000 261.000
41.40500 245.000
41.42000 244.000
41.43500 251.000
41.45000 235.000
41.46500 252.000
41.48000 246.000
41.49500 237.000
41.51000 267.000
41.52500 239.000
41.54000 241.000
41.55500 263.000
41.57000 262.000
41.58500 241.000
41.60000 255.000
41.61500 255.000
41.63000 240.000
41.64500 238.000
41.66000 260.000
41.67500 228.000
41.69000 243.000
41.70500 247.000
41.72000 277.000
41.73500 281.000
41.75000 253.000
41.76500 254.000
41.78000 246.000
41.79500 245.000
41.81000 238.000
41.82500 238.000
41.84000 234.000
41.85500 232.000
41.87000 232.000
41.88500 221.000
41.90000 245.000
41.91500 247.000
41.93000 249.000
41.94500 243.000
41.96000 244.000
41.97500 252.000
41.99000 249.000
42.00500 225.000
42.02000 239.000
42.03500 228.000
42.05000 236.000
42.06500 234.000
42.08000 237.000
42.09500 251.000
42.11000 270.000
42.12500 237.000
42.14000 242.000
42.15500 260.000
42.17000 224.000
42.18500 215.000
42.20000 249.000
42.21500 257.000
42.23000 258.000
42.24500 226.000
42.26000 221.000
42.27500 254.000
42.29000 263.000
42.30500 259.000
42.32000 240.000
42.33500 257.000
42.35000 251.000
42.36500 236.000
42.38000 237.000
42.39500 247.000
42.41000 264.000
42.42500 251.000
42.44000 234.000
42.45500 236.000
42.47000 254.000
42.48500 240.000
42.50000 241.000
42.51500 252.000
42.53000 237.000
42.54500 235.000
42.56000 230.000
42.57500 245.000
42.59000 259.000
42.60500 260.000
42.62000 236.000
42.63500 281.000
42.65000 264.000
42.66500 270.000
42.68000 246.000
42.69500 269.000
42.71000 253.000
42.72500 265.000
42.74000 263.000
42.75500 235.000
42.77000 237.000
42.78500 246.000
42.80000 243.000
42.81500 241.000
42.83000 237.000
42.84500 247.000
42.86000 271.000
42.87500 272.000
42.89000 270.000
42.90500 251.000
42.92000 263.000
42.93500 259.000
42.95000 262.000
42.96500 280.000
42.98000 265.000
42.99500 242.000
43.01000 236.000
43.02500 244.000
43.04000 222.000
43.05500 247.000
43.07000 252.000
43.08500 260.000
43.10000 251.000
43.11500 239.000
43.13000 251.000
43.14500 247.000
43.16000 253.000
43.17500 265.000
43.19000 283.000
43.20500 248.000
43.22000 254.000
43.23500 248.000
43.25000 249.000
43.26500 243.000
43.28000 256.000
43.29500 270.000
43.31000 263.000
43.32500 266.000
43.34000 263.000
43.35500 261.000
43.37000 244.000
43.38500 245.000
43.40000 252.000
43.41500 263.000
43.43000 259.000
43.44500 257.000
43.46000 260.000
43.47500 240.000
43.49000 264.000
43.50500 267.000
43.52000 276.000
43.53500 260.000
43.55000 253.000
43.56500 235.000
43.58000 249.000
43.59500 274.000
43.61000 260.000
43.62500 266.000
43.64000 263.000
43.65500 254.000
43.67000 281.000
43.68500 257.000
43.70000 273.000
43.71500 279.000
43.73000 275.000
43.74500 254.000
43.76000 262.000
43.77500 263.000
43.79000 252.000
43.80500 262.000
43.82000 247.000
43.83500 250.000
43.85000 252.000
43.86500 247.000
43.88000 277.000
43.89500 266.000
43.91000 288.000
43.92500 266.000
43.94000 247.000
43.95500 258.000
43.97000 276.000
43.98500 263.000
44.00000 267.000
44.01500 276.000
44.03000 261.000
44.04500 283.000
44.06000 290.000
44.07500 278.000
44.09000 262.000
44.10500 271.000
44.12000 297.000
44.13500 275.000
44.15000 279.000
44.16500 286.000
44.18000 263.000
44.19500 238.000
44.21000 269.000
44.22500 273.000
44.24000 245.000
44.25500 274.000
44.27000 261.000
44.28500 254.000
44.30000 257.000
44.31500 286.000
44.33000 306.000
44.34500 289.000
44.36000 262.000
44.37500 254.000
44.39000 259.000
44.40500 257.000
44.42000 281.000
44.43500 279.000
44.45000 283.000
44.46500 274.000
44.48000 272.000
44.49500 242.000
44.51000 261.000
44.52500 265.000
44.54000 279.000
44.55500 291.000
44.57000 268.000
44.58500 267.000
44.60000 265.000
44.61500 278.000
44.63000 264.000
44.64500 270.000
44.66000 273.000
44.67500 265.000
44.69000 270.000
44.70500 277.000
44.72000 256.000
44.73500 291.000
44.75000 280.000
44.76500 285.000
44.78000 250.000
44.79500 258.000
44.81000 272.000
44.82500 257.000
44.84000 259.000
44.85500 288.000
44.87000 250.000
44.88500 249.000
44.90000 262.000
44.91500 272.000
44.93000 256.000
44.94500 239.000
44.96000 257.000
44.97500 277.000
44.99000 269.000
45.00500 274.000
45.02000 254.000
45.03500 263.000
45.05000 262.000
45.06500 258.000
45.08000 277.000
45.09500 272.000
45.11000 270.000
45.12500 251.000
45.14000 248.000
45.15500 243.000
45.17000 266.000
45.18500 274.000
45.20000 257.000
45.21500 244.000
45.23000 263.000
45.24500 258.000
45.26000 246.000
45.27500 255.000
45.29000 250.000
45.30500 252.000
45.32000 259.000
45.33500 249.000
45.35000 269.000
45.36500 250.000
45.38000 245.000
45.39500 250.000
45.41000 267.000
45.42500 250.000
45.44000 243.000
45.45500 261.000
45.47000 272.000
45.48500 251.000
45.50000 293.000
45.51500 266.000
45.53000 255.000
45.54500 270.000
45.56000 268.000
45.57500 244.000
45.59000 258.000
45.60500 272.000
45.62000 251.000
45.63500 253.000
45.65000 249.000
45.66500 253.000
45.68000 280.000
45.69500 257.000
45.71000 248.000
45.72500 261.000
45.74000 254.000
45.75500 253.000
45.77000 272.000
45.78500 251.000
45.80000 263.000
45.81500 255.000
45.83000 251.000
45.84500 248.000
45.86000 292.000
45.87500 259.000
45.89000 286.000
45.90500 283.000
45.92000 251.000
45.93500 258.000
45.95000 252.000
45.96500 246.000
45.98000 256.000
45.99500 243.000
46.01000 245.000
46.02500 251.000
46.04000 272.000
46.05500 248.000
46.07000 250.000
46.08500 260.000
46.10000 262.000
46.11500 239.000
46.13000 235.000
46.14500 266.000
46.16000 246.000
46.17500 256.000
46.19000 264.000
46.20500 269.000
46.22000 264.000
46.23500 234.000
46.25000 238.000
46.26500 240.000
46.28000 232.000
46.29500 232.000
46.31000 217.000
46.32500 237.000
46.34000 250.000
46.35500 237.000
46.37000 258.000
46.38500 249.000
46.40000 265.000
46.41500 245.000
46.43000 253.000
46.44500 244.000
46.46000 257.000
46.47500 242.000
46.49000 253.000
46.50500 276.000
46.52000 247.000
46.53500 240.000
46.55000 249.000
46.56500 242.000
46.58000 261.000
46.59500 234.000
46.61000 241.000
46.62500 238.000
46.64000 261.000
46.65500 239.000
46.67000 239.000
46.68500 246.000
46.70000 228.000
46.71500 256.000
46.73000 254.000
46.74500 243.000
46.76000 248.000
46.77500 254.000
46.79000 250.000
46.80500 221.000
46.82000 237.000
46.83500 242.000
46.85000 231.000
46.86500 233.000
46.88000 227.000
46.89500 229.000
46.91000 240.000
46.92500 210.000
46.94000 219.000
46.95500 240.000
46.97000 234.000
46.98500 235.000
47.00000 215.000
47.01500 243.000
47.03000 223.000
47.04500 240.000
47.06000 235.000
47.07500 233.000
47.09000 230.000
47.10500 214.000
47.12000 234.000
47.13500 221.000
47.15000 232.000
47.16500 238.000
47.18000 230.000
47.19500 222.000
47.21000 241.000
47.22500 243.000
47.24000 217.000
47.25500 232.000
47.27000 208.000
47.28500 227.000
47.30000 233.000
47.31500 226.000
47.33000 211.000
47.34500 204.000
47.36000 212.000
47.37500 225.000
47.39000 224.000
47.40500 231.000
47.42000 229.000
47.43500 210.000
47.45000 209.000
47.46500 220.000
47.48000 219.000
47.49500 212.000
47.51000 210.000
47.52500 225.000
47.54000 233.000
47.55500 207.000
47.57000 212.000
47.58500 220.000
47.60000 226.000
47.61500 240.000
47.63000 239.000
47.64500 249.000
47.66000 242.000
47.67500 208.000
47.69000 223.000
47.70500 230.000
47.72000 227.000
47.73500 232.000
47.75000 231.000
47.76500 228.000
47.78000 224.000
47.79500 229.000
47.81000 243.000
47.82500 235.000
47.84000 226.000
47.85500 231.000
47.87000 210.000
47.88500 226.000
47.90000 248.000
47.91500 229.000
47.93000 222.000
47.94500 230.000
47.96000 221.000
47.97500 245.000
47.99000 236.000
48.00500 207.000
48.02000 218.000
48.03500 221.000
48.05000 219.000
48.06500 237.000
48.08000 222.000
48.09500 240.000
48.11000 246.000
48.12500 227.000
48.14000 231.000
48.15500 212.000
48.17000 238.000
48.18500 219.000
48.20000 214.000
48.21500 232.000
48.23000 226.000
48.24500 225.000
48.26000 238.000
48.27500 224.000
48.29000 243.000
48.30500 250.000
48.32000 216.000
48.33500 216.000
48.35000 217.000
48.36500 217.000
48.38000 216.000
48.39500 215.000
48.41000 223.000
48.42500 230.000
48.44000 207.000
48.45500 210.000
48.47000 217.000
48.48500 210.000
48.50000 235.000
48.51500 212.000
48.53000 218.000
48.54500 209.000
48.56000 204.000
48.57500 217.000
48.59000 222.000
48.60500 229.000
48.62000 214.000
48.63500 218.000
48.65000 210.000
48.66500 201.000
48.68000 238.000
48.69500 237.000
48.71000 209.000
48.72500 221.000
48.74000 237.000
48.75500 209.000
48.77000 217.000
48.78500 211.000
48.80000 197.000
48.81500 227.000
48.83000 224.000
48.84500 229.000
48.86000 216.000
48.87500 242.000
48.89000 237.000
48.90500 211.000
48.92000 213.000
48.93500 229.000
48.95000 207.000
48.96500 209.000
48.98000 221.000
48.99500 213.000
49.01000 200.000
49.02500 201.000
49.04000 219.000
49.05500 250.000
49.07000 241.000
49.08500 223.000
49.10000 210.000
49.11500 207.000
49.13000 209.000
49.14500 219.000
49.16000 224.000
49.17500 231.000
49.19000 217.000
49.20500 223.000
49.22000 214.000
49.23500 209.000
49.25000 201.000
49.26500 197.000
49.28000 218.000
49.29500 206.000
49.31000 218.000
49.32500 211.000
49.34000 215.000
49.35500 218.000
49.37000 207.000
49.38500 235.000
49.40000 226.000
49.41500 222.000
49.43000 209.000
49.44500 210.000
49.46000 209.000
49.47500 210.000
49.49000 214.000
49.50500 200.000
49.52000 208.000
49.53500 197.000
49.55000 213.000
49.56500 231.000
49.58000 216.000
49.59500 216.000
49.61000 227.000
49.62500 209.000
49.64000 202.000
49.65500 215.000
49.67000 207.000
49.68500 204.000
49.70000 184.000
49.71500 188.000
49.73000 218.000
49.74500 207.000
49.76000 203.000
49.77500 219.000
49.79000 214.000
49.80500 204.000
49.82000 234.000
49.83500 229.000
49.85000 202.000
49.86500 206.000
49.88000 203.000
49.89500 214.000
49.91000 199.000
49.92500 235.000
49.94000 220.000
49.95500 213.000
49.97000 229.000
49.98500 221.000
50.00000 229.000
50.01500 205.000
50.03000 239.000
50.04500 222.000
50.06000 208.000
50.07500 219.000
50.09000 208.000
50.10500 230.000
50.12000 208.000
50.13500 218.000
50.15000 197.000
50.16500 205.000
50.18000 232.000
50.19500 188.000
50.21000 215.000
50.22500 228.000
50.24000 224.000
50.25500 213.000
50.27000 213.000
50.28500 202.000
50.30000 197.000
50.31500 197.000
50.33000 204.000
50.34500 219.000
50.36000 220.000
50.37500 187.000
50.39000 209.000
50.40500 199.000
50.42000 202.000
50.43500 197.000
50.45000 220.000
50.46500 191.000
50.48000 194.000
50.49500 210.000
50.51000 208.000
50.52500 210.000
50.54000 224.000
50.55500 206.000
50.57000 219.000
50.58500 223.000
50.60000 208.000
50.61500 200.000
50.63000 199.000
50.64500 209.000
50.66000 198.000
50.67500 207.000
50.69000 216.000
50.70500 210.000
50.72000 191.000
50.73500 187.000
50.75000 220.000
50.76500 212.000
50.78000 197.000
50.79500 204.000
50.81000 207.000
50.82500 222.000
50.84000 196.000
50.85500 221.000
50.87000 195.000
50.88500 194.000
50.90000 201.000
50.91500 211.000
50.93000 205.000
50.94500 221.000
50.96000 215.000
50.97500 203.000
50.99000 201.000
51.00500 201.000
51.02000 209.000
51.03500 223.000
51.05000 196.000
51.06500 193.000
51.08000 189.000
51.09500 198.000
51.11000 198.000
51.12500 196.000
51.14000 212.000
51.15500 219.000
51.17000 196.000
51.18500 197.000
51.20000 193.000
51.21500 200.000
51.23000 211.000
51.24500 218.000
51.26000 200.000
51.27500 225.000
51.29000 224.000
51.30500 198.000
51.32000 224.000
51.33500 208.000
51.35000 186.000
51.36500 208.000
51.38000 219.000
51.39500 210.000
51.41000 192.000
51.42500 198.000
51.44000 203.000
51.45500 199.000
51.47000 195.000
51.48500 213.000
51.50000 206.000
51.51500 172.000
51.53000 183.000
51.54500 194.000
51.56000 193.000
51.57500 202.000
51.59000 233.000
51.60500 194.000
51.62000 225.000
51.63500 203.000
51.65000 173.000
51.66500 202.000
51.68000 212.000
51.69500 210.000
51.71000 213.000
51.72500 211.000
51.74000 187.000
51.75500 210.000
51.77000 211.000
51.78500 199.000
51.80000 221.000
51.81500 207.000
51.83000 209.000
51.84500 228.000
51.86000 221.000
51.87500 194.000
51.89000 203.000
51.90500 202.000
51.92000 208.000
51.93500 199.000
51.95000 197.000
51.96500 205.000
51.98000 198.000
51.99500 195.000
52.01000 206.000
52.02500 188.000
52.04000 195.000
52.05500 215.000
52.07000 192.000
52.08500 191.000
52.10000 191.000
52.11500 209.000
52.13000 188.000
52.14500 207.000
52.16000 199.000
52.17500 203.000
52.19000 213.000
52.20500 207.000
52.22000 198.000
52.23500 182.000
52.25000 199.000
52.26500 203.000
52.28000 193.000
52.29500 185.000
52.31000 198.000
52.32500 218.000
52.34000 221.000
52.35500 190.000
52.37000 189.000
52.38500 208.000
52.40000 210.000
52.41500 171.000
52.43000 186.000
52.44500 178.000
52.46000 166.000
52.47500 187.000
52.49000 196.000
52.50500 193.000
52.52000 176.000
52.53500 199.000
52.55000 228.000
52.56500 201.000
52.58000 186.000
52.59500 196.000
52.61000 194.000
52.62500 210.000
52.64000 206.000
52.65500 204.000
52.67000 188.000
52.68500 195.000
52.70000 211.000
52.71500 202.000
52.73000 200.000
52.74500 204.000
52.76000 206.000
52.77500 183.000
52.79000 198.000
52.80500 202.000
52.82000 178.000
52.83500 194.000
52.85000 200.000
52.86500 190.000
52.88000 189.000
52.89500 184.000
52.91000 196.000
52.92500 191.000
52.94000 211.000
52.95500 202.000
52.97000 204.000
52.98500 194.000
53.00000 197.000
53.01500 183.000
53.03000 207.000
53.04500 209.000
53.06000 187.000
53.07500 200.000
53.09000 184.000
53.10500 212.000
53.12000 200.000
53.13500 182.000
53.15000 181.000
53.16500 199.000
53.18000 167.000
53.19500 192.000
53.21000 211.000
53.22500 206.000
53.24000 213.000
53.25500 209.000
53.27000 185.000
53.28500 178.000
53.30000 171.000
53.31500 195.000
53.33000 192.000
53.34500 192.000
53.36000 194.000
53.37500 192.000
53.39000 197.000
53.40500 198.000
53.42000 203.000
53.43500 218.000
53.45000 196.000
53.46500 214.000
53.48000 217.000
53.49500 170.000
53.51000 177.000
53.52500 186.000
53.54000 202.000
53.55500 207.000
53.57000 203.000
53.58500 216.000
53.60000 206.000
53.61500 195.000
53.63000 205.000
53.64500 208.000
53.66000 200.000
53.67500 197.000
53.69000 194.000
53.70500 216.000
53.72000 220.000
53.73500 194.000
53.75000 191.000
53.76500 186.000
53.78000 193.000
53.79500 180.000
53.81000 195.000
53.82500 173.000
53.84000 178.000
53.85500 183.000
53.87000 183.000
53.88500 192.000
53.90000 210.000
53.91500 191.000
53.93000 176.000
53.94500 211.000
53.96000 197.000
53.97500 194.000
53.99000 205.000
54.00500 180.000
54.02000 206.000
54.03500 207.000
54.05000 192.000
54.06500 183.000
54.08000 202.000
54.09500 206.000
54.11000 187.000
54.12500 177.000
54.14000 171.000
54.15500 176.000
54.17000 193.000
54.18500 189.000
54.20000 188.000
54.21500 199.000
54.23000 171.000
54.24500 187.000
54.26000 183.000
54.27500 195.000
54.29000 184.000
54.30500 184.000
54.32000 200.000
54.33500 182.000
54.35000 172.000
54.36500 185.000
54.38000 203.000
54.39500 195.000
54.41000 198.000
54.42500 180.000
54.44000 178.000
54.45500 202.000
54.47000 197.000
54.48500 211.000
54.50000 185.000
54.51500 179.000
54.53000 193.000
54.54500 207.000
54.56000 173.000
54.57500 177.000
54.59000 183.000
54.60500 193.000
54.62000 199.000
54.63500 190.000
54.65000 200.000
54.66500 181.000
54.68000 192.000
54.69500 190.000
54.71000 222.000
54.72500 195.000
54.74000 220.000
54.75500 198.000
54.77000 190.000
54.78500 212.000
54.80000 204.000
54.81500 197.000
54.83000 202.000
54.84500 189.000
54.86000 193.000
54.87500 201.000
54.89000 227.000
54.90500 204.000
54.92000 201.000
54.93500 196.000
54.95000 195.000
54.96500 196.000
54.98000 184.000
54.99500 206.000
55.01000 219.000
55.02500 207.000
55.04000 197.000
55.05500 206.000
55.07000 209.000
55.08500 210.000
55.10000 195.000
55.11500 193.000
55.13000 190.000
55.14500 203.000
55.16000 205.000
55.17500 170.000
55.19000 192.000
55.20500 201.000
55.22000 195.000
55.23500 209.000
55.25000 202.000
55.26500 205.000
55.28000 201.000
55.29500 185.000
55.31000 181.000
55.32500 199.000
55.34000 202.000
55.35500 197.000
55.37000 181.000
55.38500 194.000
55.40000 199.000
55.41500 192.000
55.43000 199.000
55.44500 200.000
55.46000 201.000
55.47500 213.000
55.49000 200.000
55.50500 191.000
55.52000 218.000
55.53500 195.000
55.55000 206.000
55.56500 215.000
55.58000 205.000
55.59500 197.000
55.61000 193.000
55.62500 192.000
55.64000 206.000
55.65500 197.000
55.67000 209.000
55.68500 203.000
55.70000 202.000
55.71500 223.000
55.73000 195.000
55.74500 204.000
55.76000 198.000
55.77500 207.000
55.79000 193.000
55.80500 180.000
55.82000 206.000
55.83500 217.000
55.85000 193.000
55.86500 197.000
55.88000 199.000
55.89500 190.000
55.91000 186.000
55.92500 199.000
55.94000 211.000
55.95500 201.000
55.97000 233.000
55.98500 193.000
56.00000 167.000
56.01500 172.000
56.03000 196.000
56.04500 206.000
56.06000 207.000
56.07500 230.000
56.09000 221.000
56.10500 209.000
56.12000 219.000
56.13500 221.000
56.15000 212.000
56.16500 231.000
56.18000 211.000
56.19500 220.000
56.21000 225.000
56.22500 229.000
56.24000 239.000
56.25500 213.000
56.27000 198.000
56.28500 204.000
56.30000 215.000
56.31500 186.000
56.33000 199.000
56.34500 218.000
56.36000 234.000
56.37500 228.000
56.39000 215.000
56.40500 214.000
56.42000 216.000
56.43500 215.000
56.45000 215.000
56.46500 209.000
56.48000 218.000
56.49500 224.000
56.51000 202.000
56.52500 209.000
56.54000 219.000
56.55500 213.000
56.57000 206.000
56.58500 216.000
56.60000 209.000
56.61500 211.000
56.63000 213.000
56.64500 215.000
56.66000 209.000
56.67500 218.000
56.69000 208.000
56.70500 203.000
56.72000 218.000
56.73500 211.000
56.75000 217.000
56.76500 203.000
56.78000 209.000
56.79500 206.000
56.81000 199.000
56.82500 195.000
56.84000 217.000
56.85500 206.000
56.87000 200.000
56.88500 186.000
56.90000 207.000
56.91500 215.000
56.93000 195.000
56.94500 206.000
56.96000 205.000
56.97500 211.000
56.99000 230.000
57.00500 225.000
57.02000 222.000
57.03500 235.000
57.05000 204.000
57.06500 197.000
57.08000 209.000
57.09500 209.000
57.11000 198.000
57.12500 214.000
57.14000 222.000
57.15500 212.000
57.17000 206.000
57.18500 202.000
57.20000 197.000
57.21500 217.000
57.23000 227.000
57.24500 202.000
57.26000 210.000
57.27500 194.000
57.29000 186.000
57.30500 198.000
57.32000 189.000
57.33500 203.000
57.35000 216.000
57.36500 213.000
57.38000 179.000
57.39500 189.000
57.41000 184.000
57.42500 196.000
57.44000 202.000
57.45500 190.000
57.47000 198.000
57.48500 184.000
57.50000 187.000
57.51500 198.000
57.53000 199.000
57.54500 180.000
57.56000 187.000
57.57500 198.000
57.59000 193.000
57.60500 195.000
57.62000 189.000
57.63500 194.000
57.65000 205.000
57.66500 190.000
57.68000 193.000
57.69500 179.000
57.71000 188.000
57.72500 196.000
57.74000 195.000
57.75500 181.000
57.77000 200.000
57.78500 188.000
57.80000 182.000
57.81500 184.000
57.83000 171.000
57.84500 171.000
57.86000 178.000
57.87500 186.000
57.89000 194.000
57.90500 192.000
57.92000 188.000
57.93500 179.000
57.95000 198.000
57.96500 178.000
57.98000 184.000
57.99500 191.000
58.01000 180.000
58.02500 189.000
58.04000 202.000
58.05500 194.000
58.07000 172.000
58.08500 190.000
58.10000 178.000
58.11500 181.000
58.13000 195.000
58.14500 185.000
58.16000 179.000
58.17500 191.000
58.19000 185.000
58.20500 177.000
58.22000 180.000
58.23500 193.000
58.25000 189.000
58.26500 179.000
58.28000 187.000
58.29500 177.000
58.31000 169.000
58.32500 156.000
58.34000 161.000
58.35500 182.000
58.37000 181.000
58.38500 185.000
58.40000 163.000
58.41500 176.000
58.43000 181.000
58.44500 182.000
58.46000 177.000
58.47500 191.000
58.49000 175.000
58.50500 168.000
58.52000 182.000
58.53500 164.000
58.55000 166.000
58.56500 154.000
58.58000 149.000
58.59500 165.000
58.61000 183.000
58.62500 195.000
58.64000 177.000
58.65500 152.000
58.67000 154.000
58.68500 173.000
58.70000 165.000
58.71500 164.000
58.73000 175.000
58.74500 162.000
58.76000 164.000
58.77500 150.000
58.79000 156.000
58.80500 154.000
58.82000 168.000
58.83500 153.000
58.85000 176.000
58.86500 164.000
58.88000 158.000
58.89500 167.000
58.91000 148.000
58.92500 185.000
58.94000 173.000
58.95500 161.000
58.97000 170.000
58.98500 179.000
59.00000 184.000
59.01500 177.000
59.03000 181.000
59.04500 172.000
59.06000 159.000
59.07500 165.000
59.09000 182.000
59.10500 161.000
59.12000 178.000
59.13500 171.000
59.15000 167.000
59.16500 174.000
59.18000 154.000
59.19500 169.000
59.21000 163.000
59.22500 151.000
59.24000 168.000
59.25500 175.000
59.27000 168.000
59.28500 178.000
59.30000 178.000
59.31500 150.000
59.33000 161.000
59.34500 171.000
59.36000 161.000
59.37500 153.000
59.39000 177.000
59.40500 167.000
59.42000 169.000
59.43500 178.000
59.45000 170.000
59.46500 163.000
59.48000 157.000
59.49500 148.000
59.51000 162.000
59.52500 171.000
59.54000 168.000
59.55500 171.000
59.57000 175.000
59.58500 182.000
59.60000 165.000
59.61500 173.000
59.63000 162.000
59.64500 161.000
59.66000 157.000
59.67500 160.000
59.69000 164.000
59.70500 158.000
59.72000 155.000
59.73500 156.000
59.75000 152.000
59.76500 167.000
59.78000 160.000
59.79500 147.000
59.81000 158.000
59.82500 157.000
59.84000 164.000
59.85500 171.000
59.87000 150.000
59.88500 151.000
59.90000 165.000
59.91500 151.000
59.93000 162.000
59.94500 155.000
59.96000 166.000
59.97500 160.000
59.99000 173.000
60.00500 155.000
60.02000 150.000
60.03500 177.000
60.05000 133.000
60.06500 147.000
60.08000 163.000
60.09500 171.000
60.11000 158.000
60.12500 160.000
60.14000 178.000
60.15500 158.000
60.17000 162.000
60.18500 163.000
60.20000 167.000
60.21500 171.000
60.23000 154.000
60.24500 161.000
60.26000 148.000
60.27500 163.000
60.29000 172.000
60.30500 147.000
60.32000 146.000
60.33500 145.000
60.35000 141.000
60.36500 153.000
60.38000 164.000
60.39500 170.000
60.41000 161.000
60.42500 155.000
60.44000 147.000
60.45500 152.000
60.47000 155.000
60.48500 159.000
60.50000 144.000
60.51500 169.000
60.53000 161.000
60.54500 145.000
60.56000 155.000
60.57500 167.000
60.59000 158.000
60.60500 149.000
60.62000 161.000
60.63500 154.000
60.65000 158.000
60.66500 158.000
60.68000 154.000
60.69500 154.000
60.71000 147.000
60.72500 130.000
60.74000 150.000
60.75500 156.000
60.77000 151.000
60.78500 152.000
60.80000 137.000
60.81500 161.000
60.83000 158.000
60.84500 137.000
60.86000 161.000
60.87500 167.000
60.89000 175.000
60.90500 144.000
60.92000 163.000
60.93500 156.000
60.95000 133.000
60.96500 153.000
60.98000 143.000
60.99500 148.000
61.01000 165.000
61.02500 163.000
61.04000 145.000
61.05500 160.000
61.07000 148.000
61.08500 169.000
61.10000 154.000
61.11500 146.000
61.13000 144.000
61.14500 134.000
61.16000 173.000
61.17500 181.000
61.19000 168.000
61.20500 140.000
61.22000 136.000
61.23500 143.000
61.25000 155.000
61.26500 143.000
61.28000 145.000
61.29500 176.000
61.31000 163.000
61.32500 153.000
61.34000 148.000
61.35500 156.000
61.37000 152.000
61.38500 141.000
61.40000 150.000
61.41500 143.000
61.43000 151.000
61.44500 141.000
61.46000 149.000
61.47500 154.000
61.49000 151.000
61.50500 153.000
61.52000 156.000
61.53500 143.000
61.55000 152.000
61.56500 152.000
61.58000 153.000
61.59500 153.000
61.61000 143.000
61.62500 152.000
61.64000 155.000
61.65500 154.000
61.67000 153.000
61.68500 144.000
61.70000 157.000
61.71500 132.000
61.73000 150.000
61.74500 162.000
61.76000 163.000
61.77500 147.000
61.79000 142.000
61.80500 138.000
61.82000 153.000
61.83500 133.000
61.85000 151.000
61.86500 157.000
61.88000 155.000
61.89500 162.000
61.91000 146.000
61.92500 155.000
61.94000 166.000
61.95500 162.000
61.97000 150.000
61.98500 138.000
