2.00000 4.000
2.01500 4.000
2.03000 5.000
2.04500 6.000
2.06000 4.000
2.07500 4.000
2.09000 1.000
2.10500 1.000
2.12000 3.000
2.13500 4.000
2.15000 3.000
2.16500 3.000
2.18000 3.000
2.19500 2.000
2.21000 1.000
2.22500 2.000
2.24000 3.000
2.25500 3.000
2.27000 2.000
2.28500 2.000
2.30000 0.000
2.31500 1.000
2.33000 2.000
2.34500 1.000
2.36000 2.000
2.37500 4.000
2.39000 0.000
2.40500 0.000
2.42000 2.000
2.43500 2.000
2.45000 2.000
2.46500 2.000
2.48000 1.000
2.49500 0.000
2.51000 2.000
2.52500 1.000
2.54000 1.000
2.55500 1.000
2.57000 1.000
2.58500 2.000
2.60000 1.000
2.61500 1.000
2.63000 2.000
2.64500 1.000
2.66000 1.000
2.67500 1.000
2.69000 1.000
2.70500 4.000
2.72000 3.000
2.73500 2.000
2.75000 1.000
2.76500 1.000
2.78000 2.000
2.79500 1.000
2.81000 1.000
2.82500 1.000
2.84000 4.000
2.85500 7.000
2.87000 8.000
2.88500 10.000
2.90000 9.000
2.91500 9.000
2.93000 9.000
2.94500 21.000
2.96000 21.000
2.97500 20.000
2.99000 27.000
3.00500 43.000
3.02000 84.000
3.03500 130.000
3.05000 182.000
3.06500 217.000
3.08000 289.000
3.09500 314.000
3.11000 342.000
3.12500 389.000
3.14000 384.000
3.15500 396.000
3.17000 377.000
3.18500 388.000
3.20000 400.000
3.21500 383.000
3.23000 390.000
3.24500 384.000
3.26000 385.000
3.27500 398.000
3.29000 382.000
3.30500 386.000
3.32000 357.000
3.33500 351.000
3.35000 390.000
3.36500 358.000
3.38000 368.000
3.39500 345.000
3.41000 342.000
3.42500 347.000
3.44000 361.000
3.45500 385.000
3.47000 360.000
3.48500 339.000
3.50000 354.000
3.51500 350.000
3.53000 361.000
3.54500 314.000
3.56000 326.000
3.57500 362.000
3.59000 351.000
3.60500 316.000
3.62000 324.000
3.63500 333.000
3.65000 332.000
3.66500 343.000
3.68000 330.000
3.69500 323.000
3.71000 318.000
3.72500 334.000
3.74000 302.000
3.75500 328.000
3.77000 319.000
3.78500 302.000
3.80000 326.000
3.81500 324.000
3.83000 292.000
3.84500 319.000
3.86000 329.000
3.87500 322.000
3.89000 316.000
3.90500 337.000
3.92000 320.000
3.93500 349.000
3.95000 336.000
3.96500 326.000
3.98000 340.000
3.99500 326.000
4.01000 307.000
4.02500 302.000
4.04000 292.000
4.05500 296.000
4.07000 297.000
4.08500 294.000
4.10000 291.000
4.11500 288.000
4.13000 287.000
4.14500 298.000
4.16000 322.000
4.17500 318.000
4.19000 314.000
4.20500 293.000
4.22000 297.000
4.23500 314.000
4.25000 328.000
4.26500 295.000
4.28000 301.000
4.29500 308.000
4.31000 310.000
4.32500 282.000
4.34000 282.000
4.35500 296.000
4.37000 304.000
4.38500 289.000
4.40000 290.000
4.41500 293.000
4.43000 315.000
4.44500 298.000
4.46000 286.000
4.47500 286.000
4.49000 270.000
4.50500 298.000
4.52000 300.000
4.53500 287.000
4.55000 285.000
4.56500 270.000
4.58000 271.000
4.59500 298.000
4.61000 285.000
4.62500 299.000
4.64000 265.000
4.65500 286.000
4.67000 294.000
4.68500 285.000
4.70000 310.000
4.71500 309.000
4.73000 287.000
4.74500 285.000
4.76000 283.000
4.77500 298.000
4.79000 265.000
4.80500 289.000
4.82000 289.000
4.83500 279.000
4.85000 283.000
4.86500 282.000
4.88000 303.000
4.89500 285.000
4.91000 274.000
4.92500 301.000
4.94000 321.000
4.95500 309.000
4.97000 304.000
4.98500 278.000
5.00000 276.000
5.01500 286.000
5.03000 296.000
5.04500 310.000
5.06000 288.000
5.07500 310.000
5.09000 317.000
5.10500 292.000
5.12000 289.000
5.13500 287.000
5.15000 289.000
5.16500 306.000
5.18000 291.000
5.19500 273.000
5.21000 292.000
5.22500 319.000
5.24000 299.000
5.25500 272.000
5.27000 292.000
5.28500 307.000
5.30000 308.000
5.31500 299.000
5.33000 270.000
5.34500 305.000
5.36000 303.000
5.37500 309.000
5.39000 302.000
5.40500 302.000
5.42000 312.000
5.43500 296.000
5.45000 280.000
5.46500 292.000
5.48000 314.000
5.49500 284.000
5.51000 301.000
5.52500 314.000
5.54000 312.000
5.55500 282.000
5.57000 301.000
5.58500 285.000
5.60000 311.000
5.61500 295.000
5.63000 291.000
5.64500 292.000
5.66000 302.000
5.67500 310.000
5.69000 284.000
5.70500 293.000
5.72000 297.000
5.73500 278.000
5.75000 294.000
5.76500 305.000
5.78000 304.000
5.79500 311.000
5.81000 312.000
5.82500 286.000
5.84000 292.000
5.85500 313.000
5.87000 309.000
5.88500 311.000
5.90000 323.000
5.91500 310.000
5.93000 316.000
5.94500 290.000
5.96000 296.000
5.97500 310.000
5.99000 287.000
6.00500 286.000
6.02000 299.000
6.03500 289.000
6.05000 292.000
6.06500 254.000
6.08000 287.000
6.09500 275.000
6.11000 292.000
6.12500 265.000
6.14000 301.000
6.15500 290.000
6.17000 289.000
6.18500 281.000
6.20000 300.000
6.21500 318.000
6.23000 300.000
6.24500 291.000
6.26000 294.000
6.27500 309.000
6.29000 301.000
6.30500 302.000
6.32000 315.000
6.33500 292.000
6.35000 317.000
6.36500 290.000
6.38000 262.000
6.39500 295.000
6.41000 303.000
6.42500 293.000
6.44000 287.000
6.45500 305.000
6.47000 334.000
6.48500 309.000
6.50000 303.000
6.51500 324.000
6.53000 313.000
6.54500 289.000
6.56000 314.000
6.57500 294.000
6.59000 285.000
6.60500 293.000
6.62000 296.000
6.63500 303.000
6.65000 289.000
6.66500 306.000
6.68000 317.000
6.69500 302.000
6.71000 283.000
6.72500 286.000
6.74000 295.000
6.75500 307.000
6.77000 308.000
6.78500 331.000
6.80000 310.000
6.81500 300.000
6.83000 306.000
6.84500 319.000
6.86000 311.000
6.87500 294.000
6.89000 293.000
6.90500 288.000
6.92000 282.000
6.93500 303.000
6.95000 295.000
6.96500 293.000
6.98000 297.000
6.99500 318.000
7.01000 313.000
7.02500 310.000
7.04000 284.000
7.05500 290.000
7.07000 310.000
7.08500 313.000
7.10000 289.000
7.11500 310.000
7.13000 307.000
7.14500 296.000
7.16000 294.000
7.17500 313.000
7.19000 324.000
7.20500 309.000
7.22000 300.000
7.23500 320.000
7.25000 327.000
7.26500 338.000
7.28000 291.000
7.29500 288.000
7.31000 308.000
7.32500 281.000
7.34000 282.000
7.35500 310.000
7.37000 302.000
7.38500 302.000
7.40000 291.000
7.41500 293.000
7.43000 307.000
7.44500 315.000
7.46000 301.000
7.47500 310.000
7.49000 307.000
7.50500 308.000
7.52000 327.000
7.53500 305.000
7.55000 288.000
7.56500 302.000
7.58000 319.000
7.59500 296.000
7.61000 303.000
7.62500 312.000
7.64000 279.000
7.65500 311.000
7.67000 331.000
7.68500 325.000
7.70000 323.000
7.71500 338.000
7.73000 361.000
7.74500 313.000
7.76000 324.000
7.77500 284.000
7.79000 296.000
7.80500 309.000
7.82000 330.000
7.83500 329.000
7.85000 317.000
7.86500 310.000
7.88000 331.000
7.89500 323.000
7.91000 308.000
7.92500 315.000
7.94000 311.000
7.95500 322.000
7.97000 330.000
7.98500 325.000
8.00000 323.000
8.01500 313.000
8.03000 308.000
8.04500 331.000
8.06000 311.000
8.07500 310.000
8.09000 289.000
8.10500 314.000
8.12000 338.000
8.13500 310.000
8.15000 302.000
8.16500 335.000
8.18000 347.000
8.19500 329.000
8.21000 338.000
8.22500 372.000
8.24000 351.000
8.25500 326.000
8.27000 334.000
8.28500 365.000
8.30000 358.000
8.31500 351.000
8.33000 332.000
8.34500 362.000
8.36000 323.000
8.37500 334.000
8.39000 344.000
8.40500 351.000
8.42000 357.000
8.43500 339.000
8.45000 349.000
8.46500 326.000
8.48000 344.000
8.49500 374.000
8.51000 386.000
8.52500 397.000
8.54000 389.000
8.55500 358.000
8.57000 380.000
8.58500 385.000
8.60000 371.000
8.61500 358.000
8.63000 372.000
8.64500 354.000
8.66000 367.000
8.67500 343.000
8.69000 357.000
8.70500 362.000
8.72000 363.000
8.73500 366.000
8.75000 323.000
8.76500 331.000
8.78000 326.000
8.79500 316.000
8.81000 340.000
8.82500 353.000
8.84000 318.000
8.85500 330.000
8.87000 368.000
8.88500 319.000
8.90000 350.000
8.91500 333.000
8.93000 307.000
8.94500 332.000
8.96000 320.000
8.97500 315.000
8.99000 335.000
9.00500 310.000
9.02000 317.000
9.03500 310.000
9.05000 302.000
9.06500 286.000
9.08000 291.000
9.09500 291.000
9.11000 305.000
9.12500 287.000
9.14000 294.000
9.15500 308.000
9.17000 322.000
9.18500 300.000
9.20000 322.000
9.21500 319.000
9.23000 307.000
9.24500 295.000
9.26000 288.000
9.27500 307.000
9.29000 311.000
9.30500 311.000
9.32000 327.000
9.33500 309.000
9.35000 319.000
9.36500 318.000
9.38000 316.000
9.39500 323.000
9.41000 296.000
9.42500 288.000
9.44000 320.000
9.45500 324.000
9.47000 309.000
9.48500 304.000
9.50000 318.000
9.51500 306.000
9.53000 307.000
9.54500 314.000
9.56000 313.000
9.57500 326.000
9.59000 313.000
9.60500 333.000
9.62000 324.000
9.63500 341.000
9.65000 330.000
9.66500 319.000
9.68000 323.000
9.69500 323.000
9.71000 327.000
9.72500 342.000
9.74000 332.000
9.75500 311.000
9.77000 311.000
9.78500 308.000
9.80000 298.000
9.81500 345.000
9.83000 341.000
9.84500 353.000
9.86000 322.000
9.87500 304.000
9.89000 347.000
9.90500 356.000
9.92000 326.000
9.93500 377.000
9.95000 359.000
9.96500 351.000
9.98000 360.000
9.99500 355.000
10.01000 355.000
10.02500 345.000
10.04000 368.000
10.05500 367.000
10.07000 368.000
10.08500 356.000
10.10000 354.000
10.11500 338.000
10.13000 342.000
10.14500 322.000
10.16000 323.000
10.17500 318.000
10.19000 324.000
10.20500 313.000
10.22000 314.000
10.23500 318.000
10.25000 328.000
10.26500 321.000
10.28000 314.000
10.29500 309.000
10.31000 307.000
10.32500 325.000
10.34000 289.000
10.35500 297.000
10.37000 306.000
10.38500 319.000
10.40000 323.000
10.41500 301.000
10.43000 317.000
10.44500 316.000
10.46000 303.000
10.47500 319.000
10.49000 346.000
10.50500 303.000
10.52000 292.000
10.53500 318.000
10.55000 319.000
10.56500 331.000
10.58000 333.000
10.59500 312.000
10.61000 322.000
10.62500 319.000
10.64000 310.000
10.65500 343.000
10.67000 325.000
10.68500 314.000
10.70000 339.000
10.71500 327.000
10.73000 302.000
10.74500 309.000
10.76000 314.000
10.77500 335.000
10.79000 333.000
10.80500 311.000
10.82000 347.000
10.83500 329.000
10.85000 338.000
10.86500 353.000
10.88000 341.000
10.89500 348.000
10.91000 320.000
10.92500 304.000
10.94000 307.000
10.95500 296.000
10.97000 343.000
10.98500 353.000
11.00000 332.000
11.01500 353.000
11.03000 349.000
11.04500 345.000
11.06000 340.000
11.07500 346.000
11.09000 351.000
11.10500 350.000
11.12000 358.000
11.13500 377.000
11.15000 347.000
11.16500 367.000
11.18000 357.000
11.19500 389.000
11.21000 382.000
11.22500 376.000
11.24000 414.000
11.25500 380.000
11.27000 383.000
11.28500 406.000
11.30000 414.000
11.31500 384.000
11.33000 382.000
11.34500 423.000
11.36000 393.000
11.37500 428.000
11.39000 435.000
11.40500 481.000
11.42000 436.000
11.43500 444.000
11.45000 425.000
11.46500 471.000
11.48000 491.000
11.49500 474.000
11.51000 492.000
11.52500 500.000
11.54000 506.000
11.55500 538.000
11.57000 534.000
11.58500 496.000
11.60000 488.000
11.61500 516.000
11.63000 508.000
11.64500 489.000
11.66000 497.000
11.67500 503.000
11.69000 523.000
11.70500 489.000
11.72000 497.000
11.73500 509.000
11.75000 511.000
11.76500 505.000
11.78000 476.000
11.79500 495.000
11.81000 485.000
11.82500 467.000
11.84000 451.000
11.85500 464.000
11.87000 458.000
11.88500 441.000
11.90000 428.000
11.91500 404.000
11.93000 424.000
11.94500 381.000
11.96000 378.000
11.97500 384.000
11.99000 402.000
12.00500 357.000
12.02000 336.000
12.03500 324.000
12.05000 332.000
12.06500 328.000
12.08000 315.000
12.09500 299.000
12.11000 276.000
12.12500 304.000
12.14000 301.000
12.15500 288.000
12.17000 295.000
12.18500 287.000
12.20000 278.000
12.21500 285.000
12.23000 294.000
12.24500 290.000
12.26000 266.000
12.27500 270.000
12.29000 291.000
12.30500 284.000
12.32000 291.000
12.33500 295.000
12.35000 276.000
12.36500 258.000
12.38000 252.000
12.39500 254.000
12.41000 253.000
12.42500 275.000
12.44000 267.000
12.45500 261.000
12.47000 246.000
12.48500 256.000
12.50000 289.000
12.51500 264.000
12.53000 250.000
12.54500 230.000
12.56000 249.000
12.57500 269.000
12.59000 286.000
12.60500 256.000
12.62000 250.000
12.63500 264.000
12.65000 269.000
12.66500 278.000
12.68000 283.000
12.69500 275.000
12.71000 287.000
12.72500 319.000
12.74000 281.000
12.75500 276.000
12.77000 274.000
12.78500 264.000
12.80000 283.000
12.81500 285.000
12.83000 281.000
12.84500 285.000
12.86000 279.000
12.87500 291.000
12.89000 271.000
12.90500 273.000
12.92000 289.000
12.93500 287.000
12.95000 294.000
12.96500 279.000
12.98000 310.000
12.99500 306.000
13.01000 300.000
13.02500 282.000
13.04000 290.000
13.05500 296.000
13.07000 292.000
13.08500 319.000
13.10000 292.000
13.11500 294.000
13.13000 300.000
13.14500 267.000
13.16000 269.000
13.17500 266.000
13.19000 254.000
13.20500 272.000
13.22000 271.000
13.23500 264.000
13.25000 254.000
13.26500 272.000
13.28000 270.000
13.29500 254.000
13.31000 286.000
13.32500 275.000
13.34000 274.000
13.35500 250.000
13.37000 234.000
13.38500 250.000
13.40000 281.000
13.41500 271.000
13.43000 260.000
13.44500 252.000
13.46000 261.000
13.47500 246.000
13.49000 240.000
13.50500 256.000
13.52000 273.000
13.53500 262.000
13.55000 253.000
13.56500 272.000
13.58000 247.000
13.59500 244.000
13.61000 237.000
13.62500 245.000
13.64000 271.000
13.65500 258.000
13.67000 265.000
13.68500 265.000
13.70000 272.000
13.71500 255.000
13.73000 272.000
13.74500 256.000
13.76000 245.000
13.77500 269.000
13.79000 255.000
13.80500 259.000
13.82000 238.000
13.83500 234.000
13.85000 232.000
13.86500 234.000
13.88000 261.000
13.89500 255.000
13.91000 232.000
13.92500 254.000
13.94000 234.000
13.95500 245.000
13.97000 246.000
13.98500 230.000
14.00000 235.000
14.01500 229.000
14.03000 238.000
14.04500 237.000
14.06000 263.000
14.07500 248.000
14.09000 248.000
14.10500 251.000
14.12000 253.000
14.13500 245.000
14.15000 243.000
14.16500 246.000
14.18000 248.000
14.19500 243.000
14.21000 260.000
14.22500 255.000
14.24000 241.000
14.25500 245.000
14.27000 263.000
14.28500 268.000
14.30000 248.000
14.31500 277.000
14.33000 249.000
14.34500 241.000
14.36000 243.000
14.37500 257.000
14.39000 250.000
14.40500 245.000
14.42000 225.000
14.43500 254.000
14.45000 258.000
14.46500 261.000
14.48000 256.000
14.49500 271.000
14.51000 276.000
14.52500 253.000
14.54000 237.000
14.55500 250.000
14.57000 248.000
14.58500 243.000
14.60000 234.000
14.61500 238.000
14.63000 267.000
14.64500 265.000
14.66000 253.000
14.67500 260.000
14.69000 234.000
14.70500 241.000
14.72000 255.000
14.73500 253.000
14.75000 271.000
14.76500 242.000
14.78000 231.000
14.79500 249.000
14.81000 266.000
14.82500 248.000
14.84000 236.000
14.85500 233.000
14.87000 243.000
14.88500 251.000
14.90000 238.000
14.91500 249.000
14.93000 239.000
14.94500 249.000
14.96000 240.000
14.97500 246.000
14.99000 260.000
15.00500 255.000
15.02000 232.000
15.03500 252.000
15.05000 236.000
15.06500 255.000
15.08000 243.000
15.09500 249.000
15.11000 245.000
15.12500 240.000
15.14000 233.000
15.15500 256.000
15.17000 242.000
15.18500 272.000
15.20000 265.000
15.21500 215.000
15.23000 255.000
15.24500 250.000
15.26000 258.000
15.27500 251.000
15.29000 239.000
15.30500 237.000
15.32000 238.000
15.33500 260.000
15.35000 262.000
15.36500 246.000
15.38000 231.000
15.39500 234.000
15.41000 232.000
15.42500 242.000
15.44000 245.000
15.45500 235.000
15.47000 251.000
15.48500 246.000
15.50000 234.000
15.51500 226.000
15.53000 254.000
15.54500 218.000
15.56000 240.000
15.57500 233.000
15.59000 257.000
15.60500 244.000
15.62000 240.000
15.63500 256.000
15.65000 227.000
15.66500 255.000
15.68000 268.000
15.69500 252.000
15.71000 249.000
15.72500 263.000
15.74000 267.000
15.75500 240.000
15.77000 252.000
15.78500 258.000
15.80000 257.000
15.81500 261.000
15.83000 246.000
15.84500 247.000
15.86000 238.000
15.87500 243.000
15.89000 237.000
15.90500 227.000
15.92000 245.000
15.93500 264.000
15.95000 255.000
15.96500 263.000
15.98000 235.000
15.99500 244.000
16.01000 264.000
16.02500 272.000
16.04000 285.000
16.05500 251.000
16.07000 241.000
16.08500 235.000
16.10000 259.000
16.11500 256.000
16.13000 250.000
16.14500 250.000
16.16000 234.000
16.17500 259.000
16.19000 252.000
16.20500 266.000
16.22000 274.000
16.23500 256.000
16.25000 274.000
16.26500 265.000
16.28000 265.000
16.29500 254.000
16.31000 269.000
16.32500 256.000
16.34000 255.000
16.35500 247.000
16.37000 261.000
16.38500 272.000
16.40000 252.000
16.41500 244.000
16.43000 262.000
16.44500 265.000
16.46000 258.000
16.47500 249.000
16.49000 247.000
16.50500 232.000
16.52000 249.000
16.53500 234.000
16.55000 244.000
16.56500 241.000
16.58000 225.000
16.59500 242.000
16.61000 231.000
16.62500 233.000
16.64000 244.000
16.65500 253.000
16.67000 274.000
16.68500 257.000
16.70000 275.000
16.71500 264.000
16.73000 217.000
16.74500 243.000
16.76000 268.000
16.77500 235.000
16.79000 244.000
16.80500 241.000
16.82000 229.000
16.83500 229.000
16.85000 247.000
16.86500 249.000
16.88000 252.000
16.89500 218.000
16.91000 233.000
16.92500 259.000
16.94000 230.000
16.95500 248.000
16.97000 227.000
16.98500 250.000
17.00000 248.000
17.01500 255.000
17.03000 263.000
17.04500 254.000
17.06000 235.000
17.07500 233.000
17.09000 229.000
17.10500 242.000
17.12000 232.000
17.13500 230.000
17.15000 242.000
17.16500 242.000
17.18000 230.000
17.19500 258.000
17.21000 254.000
17.22500 252.000
17.24000 242.000
17.25500 247.000
17.27000 254.000
17.28500 242.000
17.30000 235.000
17.31500 246.000
17.33000 240.000
17.34500 229.000
17.36000 258.000
17.37500 237.000
17.39000 249.000
17.40500 245.000
17.42000 239.000
17.43500 238.000
17.45000 235.000
17.46500 252.000
17.48000 246.000
17.49500 252.000
17.51000 237.000
17.52500 243.000
17.54000 232.000
17.55500 231.000
17.57000 242.000
17.58500 246.000
17.60000 248.000
17.61500 228.000
17.63000 254.000
17.64500 255.000
17.66000 228.000
17.67500 248.000
17.69000 255.000
17.70500 230.000
17.72000 261.000
17.73500 253.000
17.75000 238.000
17.76500 252.000
17.78000 234.000
17.79500 219.000
17.81000 232.000
17.82500 240.000
17.84000 252.000
17.85500 271.000
17.87000 249.000
17.88500 256.000
17.90000 262.000
17.91500 254.000
17.93000 239.000
17.94500 248.000
17.96000 236.000
17.97500 259.000
17.99000 279.000
18.00500 243.000
18.02000 227.000
18.03500 241.000
18.05000 253.000
18.06500 239.000
18.08000 226.000
18.09500 223.000
18.11000 236.000
18.12500 248.000
18.14000 241.000
18.15500 248.000
18.17000 235.000
18.18500 254.000
18.20000 246.000
18.21500 245.000
18.23000 233.000
18.24500 230.000
18.26000 248.000
18.27500 257.000
18.29000 241.000
18.30500 242.000
18.32000 237.000
18.33500 247.000
18.35000 240.000
18.36500 262.000
18.38000 256.000
18.39500 271.000
18.41000 262.000
18.42500 261.000
18.44000 252.000
18.45500 269.000
18.47000 261.000
18.48500 256.000
18.50000 249.000
18.51500 232.000
18.53000 246.000
18.54500 242.000
18.56000 266.000
18.57500 243.000
18.59000 258.000
18.60500 245.000
18.62000 275.000
18.63500 256.000
18.65000 262.000
18.66500 268.000
18.68000 264.000
18.69500 259.000
18.71000 256.000
18.72500 259.000
18.74000 264.000
18.75500 251.000
18.77000 238.000
18.78500 244.000
18.80000 239.000
18.81500 267.000
18.83000 285.000
18.84500 271.000
18.86000 251.000
18.87500 237.000
18.89000 254.000
18.90500 260.000
18.92000 244.000
18.93500 262.000
18.95000 254.000
18.96500 252.000
18.98000 255.000
18.99500 252.000
19.01000 237.000
19.02500 253.000
19.04000 263.000
19.05500 254.000
19.07000 231.000
19.08500 263.000
19.10000 276.000
19.11500 278.000
19.13000 263.000
19.14500 253.000
19.16000 267.000
19.17500 240.000
19.19000 266.000
19.20500 283.000
19.22000 308.000
19.23500 288.000
19.25000 260.000
19.26500 248.000
19.28000 257.000
19.29500 249.000
19.31000 246.000
19.32500 279.000
19.34000 262.000
19.35500 271.000
19.37000 256.000
19.38500 264.000
19.40000 251.000
19.41500 258.000
19.43000 272.000
19.44500 267.000
19.46000 267.000
19.47500 293.000
19.49000 288.000
19.50500 283.000
19.52000 260.000
19.53500 280.000
19.55000 255.000
19.56500 290.000
19.58000 271.000
19.59500 285.000
19.61000 293.000
19.62500 270.000
19.64000 261.000
19.65500 278.000
19.67000 290.000
19.68500 264.000
19.70000 278.000
19.71500 274.000
19.73000 268.000
19.74500 274.000
19.76000 246.000
19.77500 271.000
19.79000 274.000
19.80500 281.000
19.82000 291.000
19.83500 255.000
19.85000 262.000
19.86500 250.000
19.88000 241.000
19.89500 249.000
19.91000 241.000
19.92500 266.000
19.94000 279.000
19.95500 267.000
19.97000 255.000
19.98500 266.000
20.00000 281.000
20.01500 267.000
20.03000 242.000
20.04500 272.000
20.06000 250.000
20.07500 267.000
20.09000 258.000
20.10500 276.000
20.12000 269.000
20.13500 269.000
20.15000 275.000
20.16500 282.000
20.18000 245.000
20.19500 268.000
20.21000 251.000
20.22500 245.000
20.24000 238.000
20.25500 273.000
20.27000 281.000
20.28500 291.000
20.30000 259.000
20.31500 241.000
20.33000 247.000
20.34500 255.000
20.36000 252.000
20.37500 249.000
20.39000 249.000
20.40500 268.000
20.42000 260.000
20.43500 285.000
20.45000 233.000
20.46500 263.000
20.48000 273.000
20.49500 276.000
20.51000 277.000
20.52500 268.000
20.54000 270.000
20.55500 257.000
20.57000 263.000
20.58500 257.000
20.60000 252.000
20.61500 267.000
20.63000 253.000
20.64500 301.000
20.66000 287.000
20.67500 270.000
20.69000 267.000
20.70500 255.000
20.72000 257.000
20.73500 249.000
20.75000 269.000
20.76500 252.000
20.78000 258.000
20.79500 244.000
20.81000 248.000
20.82500 241.000
20.84000 260.000
20.85500 275.000
20.87000 268.000
20.88500 269.000
20.90000 268.000
20.91500 234.000
20.93000 249.000
20.94500 253.000
20.96000 284.000
20.97500 284.000
20.99000 293.000
21.00500 297.000
21.02000 269.000
21.03500 273.000
21.05000 270.000
21.06500 271.000
21.08000 261.000
21.09500 249.000
21.11000 267.000
21.12500 280.000
21.14000 275.000
21.15500 278.000
21.17000 256.000
21.18500 267.000
21.20000 278.000
21.21500 269.000
21.23000 264.000
21.24500 268.000
21.26000 270.000
21.27500 265.000
21.29000 294.000
21.30500 264.000
21.32000 256.000
21.33500 272.000
21.35000 257.000
21.36500 259.000
21.38000 288.000
21.39500 267.000
21.41000 271.000
21.42500 283.000
21.44000 267.000
21.45500 277.000
21.47000 280.000
21.48500 276.000
21.50000 293.000
21.51500 282.000
21.53000 279.000
21.54500 290.000
21.56000 276.000
21.57500 278.000
21.59000 269.000
21.60500 265.000
21.62000 266.000
21.63500 263.000
21.65000 265.000
21.66500 261.000
21.68000 279.000
21.69500 290.000
21.71000 266.000
21.72500 295.000
21.74000 300.000
21.75500 279.000
21.77000 268.000
21.78500 268.000
21.80000 268.000
21.81500 268.000
21.83000 278.000
21.84500 293.000
21.86000 285.000
21.87500 264.000
21.89000 254.000
21.90500 272.000
21.92000 266.000
21.93500 273.000
21.95000 261.000
21.96500 290.000
21.98000 286.000
21.99500 258.000
22.01000 272.000
22.02500 283.000
22.04000 287.000
22.05500 314.000
22.07000 292.000
22.08500 293.000
22.10000 281.000
22.11500 276.000
22.13000 300.000
22.14500 297.000
22.16000 265.000
22.17500 284.000
22.19000 280.000
22.20500 308.000
22.22000 274.000
22.23500 273.000
22.25000 287.000
22.26500 286.000
22.28000 267.000
22.29500 265.000
22.31000 284.000
22.32500 283.000
22.34000 264.000
22.35500 267.000
22.37000 285.000
22.38500 318.000
22.40000 295.000
22.41500 300.000
22.43000 301.000
22.44500 285.000
22.46000 263.000
22.47500 265.000
22.49000 295.000
22.50500 284.000
22.52000 297.000
22.53500 279.000
22.55000 284.000
22.56500 298.000
22.58000 289.000
22.59500 287.000
22.61000 275.000
22.62500 282.000
22.64000 261.000
22.65500 278.000
22.67000 254.000
22.68500 302.000
22.70000 256.000
22.71500 283.000
22.73000 279.000
22.74500 281.000
22.76000 283.000
22.77500 277.000
22.79000 302.000
22.80500 287.000
22.82000 303.000
22.83500 318.000
22.85000 310.000
22.86500 285.000
22.88000 286.000
22.89500 271.000
22.91000 306.000
22.92500 325.000
22.94000 305.000
22.95500 289.000
22.97000 282.000
22.98500 310.000
23.00000 291.000
23.01500 314.000
23.03000 290.000
23.04500 285.000
23.06000 266.000
23.07500 306.000
23.09000 303.000
23.10500 285.000
23.12000 320.000
23.13500 279.000
23.15000 319.000
23.16500 299.000
23.18000 310.000
23.19500 305.000
23.21000 309.000
23.22500 328.000
23.24000 320.000
23.25500 323.000
23.27000 314.000
23.28500 301.000
23.30000 312.000
23.31500 330.000
23.33000 313.000
23.34500 335.000
23.36000 338.000
23.37500 302.000
23.39000 309.000
23.40500 303.000
23.42000 326.000
23.43500 312.000
23.45000 298.000
23.46500 316.000
23.48000 313.000
23.49500 337.000
23.51000 326.000
23.52500 300.000
23.54000 316.000
23.55500 306.000
23.57000 301.000
23.58500 342.000
23.60000 301.000
23.61500 318.000
23.63000 311.000
23.64500 318.000
23.66000 303.000
23.67500 335.000
23.69000 317.000
23.70500 307.000
23.72000 299.000
23.73500 322.000
23.75000 331.000
23.76500 339.000
23.78000 320.000
23.79500 324.000
23.81000 323.000
23.82500 306.000
23.84000 304.000
23.85500 316.000
23.87000 336.000
23.88500 336.000
23.90000 322.000
23.91500 327.000
23.93000 338.000
23.94500 297.000
23.96000 324.000
23.97500 340.000
23.99000 299.000
24.00500 332.000
24.02000 314.000
24.03500 315.000
24.05000 329.000
24.06500 305.000
24.08000 301.000
24.09500 345.000
24.11000 320.000
24.12500 324.000
24.14000 310.000
24.15500 322.000
24.17000 334.000
24.18500 317.000
24.20000 342.000
24.21500 350.000
24.23000 313.000
24.24500 317.000
24.26000 348.000
24.27500 351.000
24.29000 338.000
24.30500 336.000
24.32000 337.000
24.33500 352.000
24.35000 355.000
24.36500 337.000
24.38000 341.000
24.39500 356.000
24.41000 351.000
24.42500 348.000
24.44000 359.000
24.45500 363.000
24.47000 351.000
24.48500 340.000
24.50000 355.000
24.51500 345.000
24.53000 338.000
24.54500 333.000
24.56000 355.000
24.57500 355.000
24.59000 355.000
24.60500 325.000
24.62000 344.000
24.63500 348.000
24.65000 351.000
24.66500 384.000
24.68000 396.000
24.69500 384.000
24.71000 373.000
24.72500 400.000
24.74000 371.000
24.75500 390.000
24.77000 380.000
24.78500 382.000
24.80000 391.000
24.81500 382.000
24.83000 390.000
24.84500 420.000
24.86000 399.000
24.87500 454.000
24.89000 421.000
24.90500 429.000
24.92000 437.000
24.93500 398.000
24.95000 437.000
24.96500 441.000
24.98000 458.000
24.99500 482.000
25.01000 460.000
25.02500 469.000
25.04000 475.000
25.05500 481.000
25.07000 505.000
25.08500 507.000
25.10000 478.000
25.11500 514.000
25.13000 499.000
25.14500 515.000
25.16000 485.000
25.17500 512.000
25.19000 523.000
25.20500 528.000
25.22000 498.000
25.23500 504.000
25.25000 501.000
25.26500 496.000
25.28000 527.000
25.29500 528.000
25.31000 501.000
25.32500 496.000
25.34000 514.000
25.35500 546.000
25.37000 520.000
25.38500 558.000
25.40000 515.000
25.41500 523.000
25.43000 524.000
25.44500 549.000
25.46000 565.000
25.47500 566.000
25.49000 555.000
25.50500 579.000
25.52000 577.000
25.53500 577.000
25.55000 577.000
25.56500 549.000
25.58000 597.000
25.59500 566.000
25.61000 547.000
25.62500 592.000
25.64000 589.000
25.65500 581.000
25.67000 571.000
25.68500 545.000
25.70000 553.000
25.71500 540.000
25.73000 576.000
25.74500 568.000
25.76000 548.000
25.77500 531.000
25.79000 570.000
25.80500 581.000
25.82000 543.000
25.83500 536.000
25.85000 540.000
25.86500 571.000
25.88000 538.000
25.89500 526.000
25.91000 570.000
25.92500 562.000
25.94000 575.000
25.95500 540.000
25.97000 578.000
25.98500 531.000
26.00000 528.000
26.01500 534.000
26.03000 509.000
26.04500 585.000
26.06000 568.000
26.07500 591.000
26.09000 546.000
26.10500 531.000
26.12000 568.000
26.13500 568.000
26.15000 586.000
26.16500 570.000
26.18000 555.000
26.19500 572.000
26.21000 604.000
26.22500 620.000
26.24000 599.000
26.25500 602.000
26.27000 606.000
26.28500 564.000
26.30000 574.000
26.31500 568.000
26.33000 581.000
26.34500 567.000
26.36000 566.000
26.37500 569.000
26.39000 588.000
26.40500 579.000
26.42000 590.000
26.43500 579.000
26.45000 581.000
26.46500 634.000
26.48000 604.000
26.49500 582.000
26.51000 591.000
26.52500 597.000
26.54000 604.000
26.55500 601.000
26.57000 610.000
26.58500 590.000
26.60000 589.000
26.61500 618.000
26.63000 566.000
26.64500 561.000
26.66000 592.000
26.67500 577.000
26.69000 581.000
26.70500 597.000
26.72000 586.000
26.73500 599.000
26.75000 594.000
26.76500 602.000
26.78000 565.000
26.79500 569.000
26.81000 600.000
26.82500 647.000
26.84000 590.000
26.85500 590.000
26.87000 633.000
26.88500 616.000
26.90000 612.000
26.91500 604.000
26.93000 597.000
26.94500 571.000
26.96000 610.000
26.97500 637.000
26.99000 641.000
27.00500 622.000
27.02000 607.000
27.03500 615.000
27.05000 660.000
27.06500 660.000
27.08000 712.000
27.09500 718.000
27.11000 681.000
27.12500 686.000
27.14000 668.000
27.15500 746.000
27.17000 698.000
27.18500 662.000
27.20000 650.000
27.21500 672.000
27.23000 671.000
27.24500 666.000
27.26000 636.000
27.27500 649.000
27.29000 653.000
27.30500 675.000
27.32000 646.000
27.33500 630.000
27.35000 622.000
27.36500 588.000
27.38000 601.000
27.39500 608.000
27.41000 571.000
27.42500 588.000
27.44000 540.000
27.45500 559.000
27.47000 568.000
27.48500 547.000
27.50000 524.000
27.51500 551.000
27.53000 495.000
27.54500 543.000
27.56000 545.000
27.57500 511.000
27.59000 510.000
27.60500 472.000
27.62000 455.000
27.63500 472.000
27.65000 460.000
27.66500 443.000
27.68000 449.000
27.69500 416.000
27.71000 436.000
27.72500 441.000
27.74000 400.000
27.75500 396.000
27.77000 419.000
27.78500 394.000
27.80000 419.000
27.81500 390.000
27.83000 366.000
27.84500 356.000
27.86000 367.000
27.87500 398.000
27.89000 374.000
27.90500 381.000
27.92000 391.000
27.93500 358.000
27.95000 368.000
27.96500 343.000
27.98000 326.000
27.99500 342.000
28.01000 341.000
28.02500 354.000
28.04000 340.000
28.05500 343.000
28.07000 338.000
28.08500 320.000
28.10000 303.000
28.11500 295.000
28.13000 294.000
28.14500 302.000
28.16000 308.000
28.17500 325.000
28.19000 318.000
28.20500 332.000
28.22000 313.000
28.23500 322.000
28.25000 286.000
28.26500 326.000
28.28000 313.000
28.29500 310.000
28.31000 290.000
28.32500 320.000
28.34000 289.000
28.35500 296.000
28.37000 274.000
28.38500 301.000
28.40000 300.000
28.41500 303.000
28.43000 309.000
28.44500 288.000
28.46000 272.000
28.47500 276.000
28.49000 273.000
28.50500 266.000
28.52000 291.000
28.53500 267.000
28.55000 275.000
28.56500 284.000
28.58000 293.000
28.59500 277.000
28.61000 265.000
28.62500 255.000
28.64000 247.000
28.65500 250.000
28.67000 236.000
28.68500 246.000
28.70000 271.000
28.71500 255.000
28.73000 252.000
28.74500 222.000
28.76000 254.000
28.77500 252.000
28.79000 251.000
28.80500 266.000
28.82000 266.000
28.83500 246.000
28.85000 270.000
28.86500 265.000
28.88000 243.000
28.89500 236.000
28.91000 253.000
28.92500 247.000
28.94000 235.000
28.95500 234.000
28.97000 254.000
28.98500 248.000
29.00000 260.000
29.01500 265.000
29.03000 247.000
29.04500 241.000
29.06000 245.000
29.07500 238.000
29.09000 237.000
29.10500 249.000
29.12000 234.000
29.13500 211.000
29.15000 233.000
29.16500 248.000
29.18000 270.000
29.19500 241.000
29.21000 251.000
29.22500 251.000
29.24000 271.000
29.25500 252.000
29.27000 235.000
29.28500 267.000
29.30000 256.000
29.31500 253.000
29.33000 253.000
29.34500 235.000
29.36000 235.000
29.37500 233.000
29.39000 251.000
29.40500 245.000
29.42000 230.000
29.43500 237.000
29.45000 236.000
29.46500 261.000
29.48000 234.000
29.49500 229.000
29.51000 231.000
29.52500 228.000
29.54000 248.000
29.55500 241.000
29.57000 249.000
29.58500 258.000
29.60000 237.000
29.61500 236.000
29.63000 233.000
29.64500 234.000
29.66000 248.000
29.67500 230.000
29.69000 217.000
29.70500 215.000
29.72000 229.000
29.73500 258.000
29.75000 236.000
29.76500 225.000
29.78000 228.000
29.79500 223.000
29.81000 220.000
29.82500 262.000
29.84000 251.000
29.85500 225.000
29.87000 228.000
29.88500 237.000
29.90000 219.000
29.91500 212.000
29.93000 226.000
29.94500 237.000
29.96000 245.000
29.97500 232.000
29.99000 226.000
30.00500 222.000
30.02000 226.000
30.03500 237.000
30.05000 233.000
30.06500 240.000
30.08000 225.000
30.09500 232.000
30.11000 223.000
30.12500 243.000
30.14000 267.000
30.15500 252.000
30.17000 240.000
30.18500 263.000
30.20000 233.000
30.21500 245.000
30.23000 253.000
30.24500 268.000
30.26000 252.000
30.27500 268.000
30.29000 269.000
30.30500 272.000
30.32000 285.000
30.33500 289.000
30.35000 282.000
30.36500 252.000
30.38000 256.000
30.39500 262.000
30.41000 268.000
30.42500 250.000
30.44000 253.000
30.45500 246.000
30.47000 236.000
30.48500 254.000
30.50000 271.000
30.51500 263.000
30.53000 240.000
30.54500 228.000
30.56000 238.000
30.57500 253.000
30.59000 243.000
30.60500 241.000
30.62000 242.000
30.63500 243.000
30.65000 229.000
30.66500 219.000
30.68000 230.000
30.69500 211.000
30.71000 230.000
30.72500 230.000
30.74000 238.000
30.75500 237.000
30.77000 220.000
30.78500 257.000
30.80000 230.000
30.81500 240.000
30.83000 235.000
30.84500 222.000
30.86000 212.000
30.87500 220.000
30.89000 227.000
30.90500 231.000
30.92000 228.000
30.93500 221.000
30.95000 230.000
30.96500 208.000
30.98000 202.000
30.99500 219.000
31.01000 236.000
31.02500 239.000
31.04000 209.000
31.05500 199.000
31.07000 226.000
31.08500 214.000
31.10000 216.000
31.11500 221.000
31.13000 236.000
31.14500 238.000
31.16000 228.000
31.17500 212.000
31.19000 207.000
31.20500 208.000
31.22000 227.000
31.23500 255.000
31.25000 240.000
31.26500 209.000
31.28000 208.000
31.29500 200.000
31.31000 195.000
31.32500 188.000
31.34000 200.000
31.35500 205.000
31.37000 193.000
31.38500 194.000
31.40000 206.000
31.41500 195.000
31.43000 210.000
31.44500 187.000
31.46000 186.000
31.47500 190.000
31.49000 205.000
31.50500 217.000
31.52000 207.000
31.53500 187.000
31.55000 176.000
31.56500 188.000
31.58000 208.000
31.59500 212.000
31.61000 189.000
31.62500 196.000
31.64000 214.000
31.65500 182.000
31.67000 190.000
31.68500 217.000
31.70000 211.000
31.71500 202.000
31.73000 193.000
31.74500 190.000
31.76000 196.000
31.77500 205.000
31.79000 198.000
31.80500 195.000
31.82000 198.000
31.83500 195.000
31.85000 196.000
31.86500 174.000
31.88000 174.000
31.89500 196.000
31.91000 193.000
31.92500 184.000
31.94000 184.000
31.95500 187.000
31.97000 192.000
31.98500 208.000
32.00000 191.000
32.01500 188.000
32.03000 182.000
32.04500 194.000
32.06000 194.000
32.07500 197.000
32.09000 196.000
32.10500 196.000
32.12000 194.000
32.13500 190.000
32.15000 192.000
32.16500 194.000
32.18000 186.000
32.19500 174.000
32.21000 184.000
32.22500 196.000
32.24000 193.000
32.25500 185.000
32.27000 192.000
32.28500 174.000
32.30000 177.000
32.31500 189.000
32.33000 180.000
32.34500 190.000
32.36000 173.000
32.37500 187.000
32.39000 178.000
32.40500 184.000
32.42000 191.000
32.43500 172.000
32.45000 196.000
32.46500 187.000
32.48000 183.000
32.49500 201.000
32.51000 196.000
32.52500 197.000
32.54000 180.000
32.55500 193.000
32.57000 178.000
32.58500 192.000
32.60000 193.000
32.61500 182.000
32.63000 184.000
32.64500 183.000
32.66000 194.000
32.67500 187.000
32.69000 175.000
32.70500 170.000
32.72000 186.000
32.73500 189.000
32.75000 173.000
32.76500 191.000
32.78000 195.000
32.79500 167.000
32.81000 161.000
32.82500 178.000
32.84000 190.000
32.85500 176.000
32.87000 171.000
32.88500 192.000
32.90000 186.000
32.91500 190.000
32.93000 174.000
32.94500 169.000
32.96000 174.000
32.97500 198.000
32.99000 195.000
33.00500 180.000
33.02000 143.000
33.03500 182.000
33.05000 183.000
33.06500 169.000
33.08000 154.000
33.09500 160.000
33.11000 186.000
33.12500 191.000
33.14000 162.000
33.15500 189.000
33.17000 189.000
33.18500 163.000
33.20000 168.000
33.21500 170.000
33.23000 179.000
33.24500 159.000
33.26000 192.000
33.27500 171.000
33.29000 169.000
33.30500 175.000
33.32000 166.000
33.33500 166.000
33.35000 173.000
33.36500 174.000
33.38000 150.000
33.39500 159.000
33.41000 171.000
33.42500 167.000
33.44000 172.000
33.45500 167.000
33.47000 181.000
33.48500 170.000
33.50000 153.000
33.51500 167.000
33.53000 149.000
33.54500 175.000
33.56000 163.000
33.57500 159.000
33.59000 171.000
33.60500 187.000
33.62000 175.000
33.63500 176.000
33.65000 174.000
33.66500 172.000
33.68000 169.000
33.69500 170.000
33.71000 161.000
33.72500 165.000
33.74000 165.000
33.75500 158.000
33.77000 172.000
33.78500 164.000
33.80000 162.000
33.81500 178.000
33.83000 179.000
33.84500 178.000
33.86000 170.000
33.87500 177.000
33.89000 171.000
33.90500 194.000
33.92000 159.000
33.93500 147.000
33.95000 148.000
33.96500 178.000
33.98000 174.000
33.99500 186.000
34.01000 182.000
34.02500 158.000
34.04000 175.000
34.05500 188.000
34.07000 167.000
34.08500 167.000
34.10000 166.000
34.11500 166.000
34.13000 175.000
34.14500 167.000
34.16000 172.000
34.17500 170.000
34.19000 162.000
34.20500 161.000
34.22000 166.000
34.23500 162.000
34.25000 160.000
34.26500 147.000
34.28000 165.000
34.29500 165.000
34.31000 165.000
34.32500 157.000
34.34000 180.000
34.35500 168.000
34.37000 158.000
34.38500 156.000
34.40000 167.000
34.41500 161.000
34.43000 161.000
34.44500 165.000
34.46000 165.000
34.47500 161.000
34.49000 165.000
34.50500 166.000
34.52000 165.000
34.53500 155.000
34.55000 154.000
34.56500 172.000
34.58000 167.000
34.59500 163.000
34.61000 129.000
34.62500 164.000
34.64000 151.000
34.65500 150.000
34.67000 156.000
34.68500 145.000
34.70000 145.000
34.71500 169.000
34.73000 155.000
34.74500 147.000
34.76000 163.000
34.77500 162.000
34.79000 146.000
34.80500 141.000
34.82000 164.000
34.83500 147.000
34.85000 154.000
34.86500 151.000
34.88000 162.000
34.89500 150.000
34.91000 148.000
34.92500 152.000
34.94000 146.000
34.95500 148.000
34.97000 144.000
34.98500 139.000
35.00000 137.000
35.01500 152.000
35.03000 134.000
35.04500 161.000
35.06000 176.000
35.07500 155.000
35.09000 153.000
35.10500 158.000
35.12000 158.000
35.13500 159.000
35.15000 155.000
35.16500 152.000
35.18000 129.000
35.19500 135.000
35.21000 142.000
35.22500 155.000
35.24000 139.000
35.25500 135.000
35.27000 144.000
35.28500 139.000
35.30000 150.000
35.31500 146.000
35.33000 152.000
35.34500 147.000
35.36000 154.000
35.37500 155.000
35.39000 157.000
35.40500 164.000
35.42000 142.000
35.43500 157.000
35.45000 145.000
35.46500 149.000
35.48000 137.000
35.49500 153.000
35.51000 160.000
35.52500 166.000
35.54000 144.000
35.55500 152.000
35.57000 155.000
35.58500 154.000
35.60000 139.000
35.61500 151.000
35.63000 134.000
35.64500 133.000
35.66000 138.000
35.67500 160.000
35.69000 157.000
35.70500 135.000
35.72000 143.000
35.73500 127.000
35.75000 136.000
35.76500 141.000
35.78000 129.000
35.79500 157.000
35.81000 152.000
35.82500 140.000
35.84000 145.000
35.85500 126.000
35.87000 138.000
35.88500 137.000
35.90000 136.000
35.91500 126.000
35.93000 133.000
35.94500 151.000
35.96000 137.000
35.97500 140.000
35.99000 150.000
36.00500 151.000
36.02000 125.000
36.03500 139.000
36.05000 129.000
36.06500 132.000
36.08000 137.000
36.09500 151.000
36.11000 144.000
36.12500 145.000
36.14000 130.000
36.15500 118.000
36.17000 146.000
36.18500 149.000
36.20000 160.000
36.21500 152.000
36.23000 142.000
36.24500 137.000
36.26000 134.000
36.27500 125.000
36.29000 142.000
36.30500 126.000
36.32000 124.000
36.33500 158.000
36.35000 150.000
36.36500 130.000
36.38000 144.000
36.39500 136.000
36.41000 136.000
36.42500 134.000
36.44000 131.000
36.45500 124.000
36.47000 117.000
36.48500 140.000
36.50000 139.000
36.51500 136.000
36.53000 132.000
36.54500 150.000
36.56000 156.000
36.57500 145.000
36.59000 134.000
36.60500 128.000
36.62000 137.000
36.63500 140.000
36.65000 143.000
36.66500 141.000
36.68000 133.000
36.69500 147.000
36.71000 124.000
36.72500 126.000
36.74000 146.000
36.75500 127.000
36.77000 127.000
36.78500 147.000
36.80000 139.000
36.81500 134.000
36.83000 122.000
36.84500 126.000
36.86000 153.000
36.87500 133.000
36.89000 139.000
36.90500 139.000
36.92000 131.000
36.93500 121.000
36.95000 128.000
36.96500 136.000
36.98000 133.000
36.99500 125.000
37.01000 132.000
37.02500 133.000
37.04000 127.000
37.05500 136.000
37.07000 161.000
37.08500 143.000
37.10000 136.000
37.11500 143.000
37.13000 145.000
37.14500 130.000
37.16000 132.000
37.17500 129.000
37.19000 140.000
37.20500 144.000
37.22000 135.000
37.23500 117.000
37.25000 121.000
37.26500 130.000
37.28000 133.000
37.29500 127.000
37.31000 137.000
37.32500 143.000
37.34000 136.000
37.35500 144.000
37.37000 130.000
37.38500 130.000
37.40000 133.000
37.41500 138.000
37.43000 131.000
37.44500 138.000
37.46000 137.000
37.47500 139.000
37.49000 146.000
37.50500 126.000
37.52000 113.000
37.53500 115.000
37.55000 124.000
37.56500 115.000
37.58000 121.000
37.59500 140.000
37.61000 135.000
37.62500 131.000
37.64000 128.000
37.65500 131.000
37.67000 126.000
37.68500 133.000
37.70000 138.000
37.71500 137.000
37.73000 113.000
37.74500 128.000
37.76000 132.000
37.77500 121.000
37.79000 130.000
37.80500 120.000
37.82000 129.000
37.83500 130.000
37.85000 126.000
37.86500 119.000
37.88000 105.000
37.89500 109.000
37.91000 123.000
37.92500 128.000
37.94000 141.000
37.95500 136.000
37.97000 125.000
37.98500 120.000
38.00000 130.000
38.01500 138.000
38.03000 122.000
38.04500 128.000
38.06000 114.000
38.07500 121.000
38.09000 138.000
38.10500 140.000
38.12000 131.000
38.13500 138.000
38.15000 123.000
38.16500 136.000
38.18000 127.000
38.19500 121.000
38.21000 143.000
38.22500 127.000
38.24000 118.000
38.25500 107.000
38.27000 122.000
38.28500 134.000
38.30000 150.000
38.31500 138.000
38.33000 127.000
38.34500 127.000
38.36000 115.000
38.37500 132.000
38.39000 132.000
38.40500 107.000
38.42000 129.000
38.43500 127.000
38.45000 129.000
38.46500 147.000
38.48000 137.000
38.49500 123.000
38.51000 131.000
38.52500 144.000
38.54000 140.000
38.55500 134.000
38.57000 132.000
38.58500 133.000
38.60000 127.000
38.61500 126.000
38.63000 129.000
38.64500 129.000
38.66000 124.000
38.67500 119.000
38.69000 136.000
38.70500 133.000
38.72000 133.000
38.73500 125.000
38.75000 140.000
38.76500 143.000
38.78000 134.000
38.79500 143.000
38.81000 126.000
38.82500 136.000
38.84000 135.000
38.85500 141.000
38.87000 115.000
38.88500 127.000
38.90000 117.000
38.91500 142.000
38.93000 131.000
38.94500 130.000
38.96000 130.000
38.97500 137.000
38.99000 132.000
39.00500 134.000
39.02000 143.000
39.03500 144.000
39.05000 135.000
39.06500 132.000
39.08000 125.000
39.09500 120.000
39.11000 137.000
39.12500 131.000
39.14000 117.000
39.15500 129.000
39.17000 130.000
39.18500 130.000
39.20000 111.000
39.21500 129.000
39.23000 136.000
39.24500 138.000
39.26000 148.000
39.27500 148.000
39.29000 130.000
39.30500 136.000
39.32000 138.000
39.33500 131.000
39.35000 122.000
39.36500 125.000
39.38000 132.000
39.39500 122.000
39.41000 135.000
39.42500 129.000
39.44000 126.000
39.45500 122.000
39.47000 126.000
39.48500 139.000
39.50000 131.000
39.51500 141.000
39.53000 129.000
39.54500 141.000
39.56000 127.000
39.57500 142.000
39.59000 138.000
39.60500 125.000
39.62000 127.000
39.63500 120.000
39.65000 137.000
39.66500 130.000
39.68000 118.000
39.69500 121.000
39.71000 117.000
39.72500 127.000
39.74000 135.000
39.75500 134.000
39.77000 143.000
39.78500 117.000
39.80000 119.000
39.81500 129.000
39.83000 132.000
39.84500 131.000
39.86000 133.000
39.87500 145.000
39.89000 120.000
39.90500 135.000
39.92000 131.000
39.93500 138.000
39.95000 152.000
39.96500 118.000
39.98000 128.000
39.99500 140.000
40.01000 118.000
40.02500 129.000
40.04000 144.000
40.05500 145.000
40.07000 138.000
40.08500 134.000
40.10000 138.000
40.11500 135.000
40.13000 128.000
40.14500 126.000
40.16000 131.000
40.17500 129.000
40.19000 138.000
40.20500 140.000
40.22000 136.000
40.23500 146.000
40.25000 140.000
40.26500 125.000
40.28000 138.000
40.29500 137.000
40.31000 150.000
40.32500 130.000
40.34000 121.000
40.35500 134.000
40.37000 131.000
40.38500 126.000
40.40000 151.000
40.41500 136.000
40.43000 139.000
40.44500 137.000
40.46000 125.000
40.47500 132.000
40.49000 131.000
40.50500 132.000
40.52000 139.000
40.53500 133.000
40.55000 129.000
40.56500 143.000
40.58000 149.000
40.59500 138.000
40.61000 136.000
40.62500 142.000
40.64000 136.000
40.65500 146.000
40.67000 151.000
40.68500 136.000
40.70000 109.000
40.71500 130.000
40.73000 145.000
40.74500 146.000
40.76000 137.000
40.77500 143.000
40.79000 127.000
40.80500 127.000
40.82000 135.000
40.83500 123.000
40.85000 134.000
40.86500 135.000
40.88000 127.000
40.89500 134.000
40.91000 146.000
40.92500 139.000
40.94000 136.000
40.95500 137.000
40.97000 135.000
40.98500 125.000
41.00000 133.000
41.01500 143.000
41.03000 135.000
41.04500 159.000
41.06000 127.000
41.07500 145.000
41.09000 150.000
41.10500 150.000
41.12000 142.000
41.13500 130.000
41.15000 143.000
41.16500 152.000
41.18000 155.000
41.19500 151.000
41.21000 164.000
41.22500 135.000
41.24000 130.000
41.25500 138.000
41.27000 142.000
41.28500 138.000
41.30000 126.000
41.31500 124.000
41.33000 129.000
41.34500 130.000
41.36000 128.000
41.37500 142.000
41.39000 138.000
41.40500 123.000
41.42000 139.000
41.43500 141.000
41.45000 143.000
41.46500 130.000
41.48000 134.000
41.49500 135.000
41.51000 125.000
41.52500 150.000
41.54000 135.000
41.55500 139.000
41.57000 133.000
41.58500 126.000
41.60000 130.000
41.61500 124.000
41.63000 129.000
41.64500 119.000
41.66000 127.000
41.67500 159.000
41.69000 135.000
41.70500 114.000
41.72000 127.000
41.73500 124.000
41.75000 129.000
41.76500 127.000
41.78000 126.000
41.79500 125.000
41.81000 127.000
41.82500 117.000
41.84000 129.000
41.85500 138.000
41.87000 127.000
41.88500 118.000
41.90000 129.000
41.91500 132.000
41.93000 128.000
41.94500 114.000
41.96000 124.000
41.97500 112.000
41.99000 131.000
42.00500 127.000
42.02000 128.000
42.03500 140.000
42.05000 132.000
42.06500 138.000
42.08000 144.000
42.09500 125.000
42.11000 130.000
42.12500 130.000
42.14000 144.000
42.15500 130.000
42.17000 123.000
42.18500 130.000
42.20000 121.000
42.21500 127.000
42.23000 156.000
42.24500 139.000
42.26000 116.000
42.27500 117.000
42.29000 140.000
42.30500 125.000
42.32000 134.000
42.33500 134.000
42.35000 149.000
42.36500 143.000
42.38000 134.000
42.39500 135.000
42.41000 135.000
42.42500 128.000
42.44000 139.000
42.45500 143.000
42.47000 139.000
42.48500 145.000
42.50000 123.000
42.51500 118.000
42.53000 121.000
42.54500 116.000
42.56000 122.000
42.57500 135.000
42.59000 125.000
42.60500 124.000
42.62000 132.000
42.63500 143.000
42.65000 119.000
42.66500 128.000
42.68000 131.000
42.69500 121.000
42.71000 139.000
42.72500 140.000
42.74000 123.000
42.75500 130.000
42.77000 136.000
42.78500 130.000
42.80000 130.000
42.81500 143.000
42.83000 125.000
42.84500 117.000
42.86000 110.000
42.87500 124.000
42.89000 121.000
42.90500 119.000
42.92000 128.000
42.93500 140.000
42.95000 126.000
42.96500 126.000
42.98000 131.000
42.99500 127.000
43.01000 127.000
43.02500 136.000
43.04000 123.000
43.05500 118.000
43.07000 116.000
43.08500 124.000
43.10000 134.000
43.11500 124.000
43.13000 117.000
43.14500 110.000
43.16000 127.000
43.17500 122.000
43.19000 125.000
43.20500 137.000
43.22000 135.000
43.23500 112.000
43.25000 110.000
43.26500 112.000
43.28000 122.000
43.29500 121.000
43.31000 117.000
43.32500 138.000
43.34000 133.000
43.35500 120.000
43.37000 124.000
43.38500 142.000
43.40000 135.000
43.41500 114.000
43.43000 113.000
43.44500 122.000
43.46000 118.000
43.47500 130.000
43.49000 141.000
43.50500 149.000
43.52000 125.000
43.53500 131.000
43.55000 125.000
43.56500 113.000
43.58000 131.000
43.59500 125.000
43.61000 111.000
43.62500 112.000
43.64000 142.000
43.65500 124.000
43.67000 125.000
43.68500 126.000
43.70000 132.000
43.71500 120.000
43.73000 121.000
43.74500 127.000
43.76000 134.000
43.77500 120.000
43.79000 145.000
43.80500 136.000
43.82000 120.000
43.83500 131.000
43.85000 130.000
43.86500 114.000
43.88000 127.000
43.89500 117.000
43.91000 126.000
43.92500 141.000
43.94000 123.000
43.95500 129.000
43.97000 127.000
43.98500 120.000
44.00000 118.000
44.01500 114.000
44.03000 139.000
44.04500 120.000
44.06000 116.000
44.07500 124.000
44.09000 126.000
44.10500 119.000
44.12000 112.000
44.13500 115.000
44.15000 120.000
44.16500 122.000
44.18000 108.000
44.19500 125.000
44.21000 134.000
44.22500 134.000
44.24000 146.000
44.25500 148.000
44.27000 117.000
44.28500 125.000
44.30000 121.000
44.31500 128.000
44.33000 133.000
44.34500 126.000
44.36000 132.000
44.37500 130.000
44.39000 131.000
44.40500 121.000
44.42000 121.000
44.43500 117.000
44.45000 124.000
44.46500 119.000
44.48000 133.000
44.49500 117.000
44.51000 117.000
44.52500 121.000
44.54000 124.000
44.55500 122.000
44.57000 137.000
44.58500 130.000
44.60000 133.000
44.61500 137.000
44.63000 129.000
44.64500 123.000
44.66000 132.000
44.67500 147.000
44.69000 140.000
44.70500 128.000
44.72000 131.000
44.73500 131.000
44.75000 126.000
44.76500 130.000
44.78000 128.000
44.79500 106.000
44.81000 116.000
44.82500 119.000
44.84000 132.000
44.85500 128.000
44.87000 120.000
44.88500 121.000
44.90000 119.000
44.91500 132.000
44.93000 146.000
44.94500 125.000
44.96000 116.000
44.97500 127.000
44.99000 135.000
45.00500 126.000
45.02000 117.000
45.03500 127.000
45.05000 127.000
45.06500 122.000
45.08000 133.000
45.09500 120.000
45.11000 123.000
45.12500 112.000
45.14000 119.000
45.15500 122.000
45.17000 135.000
45.18500 131.000
45.20000 122.000
45.21500 108.000
45.23000 114.000
45.24500 117.000
45.26000 116.000
45.27500 129.000
45.29000 138.000
45.30500 134.000
45.32000 124.000
45.33500 136.000
45.35000 126.000
45.36500 117.000
45.38000 121.000
45.39500 123.000
45.41000 134.000
45.42500 138.000
45.44000 135.000
45.45500 129.000
45.47000 128.000
45.48500 125.000
45.50000 132.000
45.51500 131.000
45.53000 110.000
45.54500 118.000
45.56000 124.000
45.57500 135.000
45.59000 126.000
45.60500 129.000
45.62000 119.000
45.63500 110.000
45.65000 131.000
45.66500 121.000
45.68000 132.000
45.69500 120.000
45.71000 125.000
45.72500 144.000
45.74000 119.000
45.75500 124.000
45.77000 133.000
45.78500 120.000
45.80000 118.000
45.81500 133.000
45.83000 124.000
45.84500 124.000
45.86000 122.000
45.87500 108.000
45.89000 116.000
45.90500 122.000
45.92000 124.000
45.93500 125.000
45.95000 135.000
45.96500 126.000
45.98000 122.000
45.99500 123.000
46.01000 115.000
46.02500 130.000
46.04000 114.000
46.05500 117.000
46.07000 119.000
46.08500 118.000
46.10000 113.000
46.11500 114.000
46.13000 98.000
46.14500 138.000
46.16000 150.000
46.17500 135.000
46.19000 136.000
46.20500 119.000
46.22000 115.000
46.23500 126.000
46.25000 125.000
46.26500 123.000
46.28000 124.000
46.29500 122.000
46.31000 118.000
46.32500 116.000
46.34000 123.000
46.35500 122.000
46.37000 114.000
46.38500 115.000
46.40000 123.000
46.41500 117.000
46.43000 105.000
46.44500 100.000
46.46000 113.000
46.47500 128.000
46.49000 120.000
46.50500 117.000
46.52000 129.000
46.53500 110.000
46.55000 112.000
46.56500 104.000
46.58000 123.000
46.59500 111.000
46.61000 121.000
46.62500 113.000
46.64000 113.000
46.65500 114.000
46.67000 115.000
46.68500 118.000
46.70000 103.000
46.71500 115.000
46.73000 108.000
46.74500 119.000
46.76000 127.000
46.77500 132.000
46.79000 121.000
46.80500 138.000
46.82000 123.000
46.83500 117.000
46.85000 113.000
46.86500 121.000
46.88000 119.000
46.89500 102.000
46.91000 113.000
46.92500 112.000
46.94000 123.000
46.95500 111.000
46.97000 114.000
46.98500 109.000
47.00000 109.000
47.01500 114.000
47.03000 114.000
47.04500 112.000
47.06000 122.000
47.07500 130.000
47.09000 117.000
47.10500 103.000
47.12000 132.000
47.13500 112.000
47.15000 105.000
47.16500 115.000
47.18000 116.000
47.19500 121.000
47.21000 113.000
47.22500 102.000
47.24000 113.000
47.25500 103.000
47.27000 117.000
47.28500 105.000
47.30000 116.000
47.31500 124.000
47.33000 129.000
47.34500 111.000
47.36000 110.000
47.37500 108.000
47.39000 119.000
47.40500 105.000
47.42000 109.000
47.43500 103.000
47.45000 97.000
47.46500 103.000
47.48000 103.000
47.49500 96.000
47.51000 117.000
47.52500 117.000
47.54000 108.000
47.55500 114.000
47.57000 108.000
47.58500 110.000
47.60000 105.000
47.61500 126.000
47.63000 119.000
47.64500 99.000
47.66000 137.000
47.67500 118.000
47.69000 111.000
47.70500 109.000
47.72000 113.000
47.73500 115.000
47.75000 123.000
47.76500 115.000
47.78000 111.000
47.79500 110.000
47.81000 111.000
47.82500 119.000
47.84000 119.000
47.85500 118.000
47.87000 116.000
47.88500 111.000
47.90000 107.000
47.91500 110.000
47.93000 112.000
47.94500 95.000
47.96000 117.000
47.97500 107.000
47.99000 108.000
48.00500 105.000
48.02000 105.000
48.03500 128.000
48.05000 101.000
48.06500 101.000
48.08000 103.000
48.09500 108.000
48.11000 109.000
48.12500 103.000
48.14000 98.000
48.15500 115.000
48.17000 120.000
48.18500 105.000
48.20000 119.000
48.21500 113.000
48.23000 107.000
48.24500 121.000
48.26000 108.000
48.27500 107.000
48.29000 125.000
48.30500 102.000
48.32000 116.000
48.33500 102.000
48.35000 84.000
48.36500 107.000
48.38000 111.000
48.39500 108.000
48.41000 111.000
48.42500 104.000
48.44000 110.000
48.45500 103.000
48.47000 97.000
48.48500 103.000
48.50000 103.000
48.51500 101.000
48.53000 106.000
48.54500 99.000
48.56000 95.000
48.57500 103.000
48.59000 109.000
48.60500 99.000
48.62000 99.000
48.63500 97.000
48.65000 118.000
48.66500 124.000
48.68000 101.000
48.69500 106.000
48.71000 103.000
48.72500 106.000
48.74000 105.000
48.75500 97.000
48.77000 110.000
48.78500 98.000
48.80000 111.000
48.81500 117.000
48.83000 106.000
48.84500 88.000
48.86000 99.000
48.87500 107.000
48.89000 95.000
48.90500 108.000
48.92000 118.000
48.93500 112.000
48.95000 110.000
48.96500 115.000
48.98000 111.000
48.99500 110.000
49.01000 106.000
49.02500 98.000
49.04000 101.000
49.05500 112.000
49.07000 101.000
49.08500 102.000
49.10000 96.000
49.11500 111.000
49.13000 108.000
49.14500 109.000
49.16000 118.000
49.17500 100.000
49.19000 103.000
49.20500 107.000
49.22000 104.000
49.23500 105.000
49.25000 100.000
49.26500 104.000
49.28000 108.000
49.29500 99.000
49.31000 98.000
49.32500 116.000
49.34000 110.000
49.35500 98.000
49.37000 109.000
49.38500 112.000
49.40000 97.000
49.41500 106.000
49.43000 106.000
49.44500 106.000
49.46000 104.000
49.47500 100.000
49.49000 105.000
49.50500 95.000
49.52000 96.000
49.53500 97.000
49.55000 94.000
49.56500 92.000
49.58000 96.000
49.59500 102.000
49.61000 104.000
49.62500 104.000
49.64000 103.000
49.65500 102.000
49.67000 93.000
49.68500 105.000
49.70000 106.000
49.71500 109.000
49.73000 90.000
49.74500 108.000
49.76000 111.000
49.77500 116.000
49.79000 106.000
49.80500 119.000
49.82000 105.000
49.83500 94.000
49.85000 105.000
49.86500 96.000
49.88000 97.000
49.89500 93.000
49.91000 93.000
49.92500 93.000
49.94000 94.000
49.95500 102.000
49.97000 98.000
49.98500 105.000
50.00000 101.000
50.01500 91.000
50.03000 104.000
50.04500 101.000
50.06000 114.000
50.07500 101.000
50.09000 108.000
50.10500 101.000
50.12000 88.000
50.13500 94.000
50.15000 99.000
50.16500 99.000
50.18000 109.000
50.19500 97.000
50.21000 104.000
50.22500 98.000
50.24000 90.000
50.25500 99.000
50.27000 94.000
50.28500 105.000
50.30000 119.000
50.31500 103.000
50.33000 98.000
50.34500 95.000
50.36000 100.000
50.37500 107.000
50.39000 96.000
50.40500 93.000
50.42000 97.000
50.43500 102.000
50.45000 93.000
50.46500 105.000
50.48000 109.000
50.49500 96.000
50.51000 96.000
50.52500 104.000
50.54000 100.000
50.55500 93.000
50.57000 93.000
50.58500 98.000
50.60000 91.000
50.61500 87.000
50.63000 96.000
50.64500 100.000
50.66000 85.000
50.67500 95.000
50.69000 89.000
50.70500 110.000
50.72000 104.000
50.73500 85.000
50.75000 88.000
50.76500 100.000
50.78000 105.000
50.79500 93.000
50.81000 89.000
50.82500 100.000
50.84000 107.000
50.85500 111.000
50.87000 102.000
50.88500 101.000
50.90000 89.000
50.91500 90.000
50.93000 101.000
50.94500 97.000
50.96000 85.000
50.97500 97.000
50.99000 98.000
51.00500 99.000
51.02000 99.000
51.03500 94.000
51.05000 110.000
51.06500 92.000
51.08000 88.000
51.09500 92.000
51.11000 99.000
51.12500 114.000
51.14000 110.000
51.15500 108.000
51.17000 97.000
51.18500 100.000
51.20000 97.000
51.21500 92.000
51.23000 101.000
51.24500 106.000
51.26000 95.000
51.27500 113.000
51.29000 107.000
51.30500 111.000
51.32000 100.000
51.33500 105.000
51.35000 103.000
51.36500 103.000
51.38000 98.000
51.39500 106.000
51.41000 106.000
51.42500 102.000
51.44000 105.000
51.45500 105.000
51.47000 105.000
51.48500 107.000
51.50000 107.000
51.51500 102.000
51.53000 109.000
51.54500 104.000
51.56000 94.000
51.57500 98.000
51.59000 98.000
51.60500 108.000
51.62000 110.000
51.63500 107.000
51.65000 90.000
51.66500 99.000
51.68000 97.000
51.69500 101.000
51.71000 105.000
51.72500 89.000
51.74000 93.000
51.75500 105.000
51.77000 106.000
51.78500 110.000
51.80000 87.000
51.81500 83.000
51.83000 108.000
51.84500 93.000
51.86000 93.000
51.87500 97.000
51.89000 87.000
51.90500 106.000
51.92000 95.000
51.93500 101.000
51.95000 94.000
51.96500 83.000
51.98000 98.000
51.99500 95.000
52.01000 82.000
52.02500 91.000
52.04000 86.000
52.05500 86.000
52.07000 98.000
52.08500 91.000
52.10000 104.000
52.11500 102.000
52.13000 106.000
52.14500 101.000
52.16000 95.000
52.17500 87.000
52.19000 93.000
52.20500 110.000
52.22000 117.000
52.23500 115.000
52.25000 114.000
52.26500 86.000
52.28000 103.000
52.29500 103.000
52.31000 97.000
52.32500 106.000
52.34000 100.000
52.35500 95.000
52.37000 97.000
52.38500 98.000
52.40000 88.000
52.41500 87.000
52.43000 98.000
52.44500 84.000
52.46000 86.000
52.47500 99.000
52.49000 89.000
52.50500 100.000
52.52000 97.000
52.53500 92.000
52.55000 111.000
52.56500 89.000
52.58000 88.000
52.59500 112.000
52.61000 107.000
52.62500 91.000
52.64000 98.000
52.65500 111.000
52.67000 95.000
52.68500 104.000
52.70000 93.000
52.71500 100.000
52.73000 100.000
52.74500 100.000
52.76000 98.000
52.77500 103.000
52.79000 102.000
52.80500 115.000
52.82000 95.000
52.83500 96.000
52.85000 101.000
52.86500 96.000
52.88000 111.000
52.89500 104.000
52.91000 109.000
52.92500 93.000
52.94000 106.000
52.95500 102.000
52.97000 99.000
52.98500 83.000
53.00000 91.000
53.01500 103.000
53.03000 98.000
53.04500 96.000
53.06000 94.000
53.07500 97.000
53.09000 104.000
53.10500 109.000
53.12000 95.000
53.13500 106.000
53.15000 103.000
53.16500 102.000
53.18000 106.000
53.19500 98.000
53.21000 92.000
53.22500 96.000
53.24000 109.000
53.25500 101.000
53.27000 111.000
53.28500 100.000
53.30000 106.000
53.31500 92.000
53.33000 102.000
53.34500 90.000
53.36000 109.000
53.37500 115.000
53.39000 117.000
53.40500 99.000
53.42000 90.000
53.43500 99.000
53.45000 82.000
53.46500 94.000
53.48000 97.000
53.49500 118.000
53.51000 105.000
53.52500 112.000
53.54000 124.000
53.55500 89.000
53.57000 90.000
53.58500 99.000
53.60000 119.000
53.61500 80.000
53.63000 85.000
53.64500 91.000
53.66000 108.000
53.67500 114.000
53.69000 116.000
53.70500 116.000
53.72000 100.000
53.73500 88.000
53.75000 102.000
53.76500 110.000
53.78000 104.000
53.79500 93.000
53.81000 93.000
53.82500 103.000
53.84000 108.000
53.85500 95.000
53.87000 117.000
53.88500 107.000
53.90000 94.000
53.91500 88.000
53.93000 96.000
53.94500 97.000
53.96000 116.000
53.97500 98.000
53.99000 98.000
54.00500 94.000
54.02000 101.000
54.03500 94.000
54.05000 96.000
54.06500 98.000
54.08000 97.000
54.09500 101.000
54.11000 101.000
54.12500 98.000
54.14000 76.000
54.15500 87.000
54.17000 93.000
54.18500 83.000
54.20000 89.000
54.21500 91.000
54.23000 93.000
54.24500 94.000
54.26000 97.000
54.27500 104.000
54.29000 102.000
54.30500 95.000
54.32000 89.000
54.33500 100.000
54.35000 102.000
54.36500 95.000
54.38000 93.000
54.39500 97.000
54.41000 107.000
54.42500 103.000
54.44000 104.000
54.45500 98.000
54.47000 97.000
54.48500 76.000
54.50000 83.000
54.51500 104.000
54.53000 117.000
54.54500 104.000
54.56000 103.000
54.57500 105.000
54.59000 99.000
54.60500 90.000
54.62000 95.000
54.63500 100.000
54.65000 94.000
54.66500 106.000
54.68000 94.000
54.69500 97.000
54.71000 104.000
54.72500 83.000
54.74000 84.000
54.75500 85.000
54.77000 88.000
54.78500 92.000
54.80000 96.000
54.81500 101.000
54.83000 97.000
54.84500 89.000
54.86000 96.000
54.87500 107.000
54.89000 110.000
54.90500 103.000
54.92000 87.000
54.93500 107.000
54.95000 96.000
54.96500 110.000
54.98000 85.000
54.99500 103.000
55.01000 101.000
55.02500 104.000
55.04000 96.000
55.05500 104.000
55.07000 103.000
55.08500 114.000
55.10000 110.000
55.11500 97.000
55.13000 100.000
55.14500 96.000
55.16000 97.000
55.17500 97.000
55.19000 108.000
55.20500 108.000
55.22000 90.000
55.23500 85.000
55.25000 91.000
55.26500 83.000
55.28000 77.000
55.29500 84.000
55.31000 94.000
55.32500 85.000
55.34000 89.000
55.35500 80.000
55.37000 97.000
55.38500 84.000
55.40000 88.000
55.41500 96.000
55.43000 87.000
55.44500 94.000
55.46000 100.000
55.47500 85.000
55.49000 74.000
55.50500 75.000
55.52000 78.000
55.53500 95.000
55.55000 96.000
55.56500 86.000
55.58000 101.000
55.59500 99.000
55.61000 95.000
55.62500 92.000
55.64000 89.000
55.65500 93.000
55.67000 101.000
55.68500 93.000
55.70000 98.000
55.71500 85.000
55.73000 99.000
55.74500 84.000
55.76000 93.000
55.77500 106.000
55.79000 92.000
55.80500 93.000
55.82000 84.000
55.83500 89.000
55.85000 99.000
55.86500 84.000
55.88000 99.000
55.89500 88.000
55.91000 89.000
55.92500 94.000
55.94000 89.000
55.95500 84.000
55.97000 87.000
55.98500 83.000
56.00000 89.000
56.01500 96.000
56.03000 101.000
56.04500 84.000
56.06000 96.000
56.07500 98.000
56.09000 100.000
56.10500 107.000
56.12000 98.000
56.13500 82.000
56.15000 90.000
56.16500 97.000
56.18000 90.000
56.19500 105.000
56.21000 93.000
56.22500 101.000
56.24000 100.000
56.25500 94.000
56.27000 86.000
56.28500 90.000
56.30000 93.000
56.31500 83.000
56.33000 87.000
56.34500 88.000
56.36000 88.000
56.37500 89.000
56.39000 81.000
56.40500 96.000
56.42000 101.000
56.43500 93.000
56.45000 84.000
56.46500 79.000
56.48000 101.000
56.49500 104.000
56.51000 82.000
56.52500 92.000
56.54000 90.000
56.55500 92.000
56.57000 90.000
56.58500 90.000
56.60000 93.000
56.61500 82.000
56.63000 83.000
56.64500 100.000
56.66000 84.000
56.67500 80.000
56.69000 85.000
56.70500 95.000
56.72000 88.000
56.73500 79.000
56.75000 87.000
56.76500 83.000
56.78000 89.000
56.79500 81.000
56.81000 82.000
56.82500 73.000
56.84000 96.000
56.85500 97.000
56.87000 89.000
56.88500 84.000
56.90000 83.000
56.91500 91.000
56.93000 92.000
56.94500 89.000
56.96000 87.000
56.97500 94.000
56.99000 82.000
57.00500 86.000
57.02000 95.000
57.03500 89.000
57.05000 83.000
57.06500 78.000
57.08000 88.000
57.09500 84.000
57.11000 90.000
57.12500 94.000
57.14000 96.000
57.15500 83.000
57.17000 74.000
57.18500 96.000
57.20000 85.000
57.21500 85.000
57.23000 91.000
57.24500 97.000
57.26000 93.000
57.27500 92.000
57.29000 90.000
57.30500 84.000
57.32000 84.000
57.33500 97.000
57.35000 82.000
57.36500 73.000
57.38000 87.000
57.39500 89.000
57.41000 85.000
57.42500 83.000
57.44000 90.000
57.45500 92.000
57.47000 95.000
57.48500 99.000
57.50000 96.000
57.51500 91.000
57.53000 96.000
57.54500 77.000
57.56000 69.000
57.57500 71.000
57.59000 82.000
57.60500 81.000
57.62000 81.000
57.63500 89.000
57.65000 88.000
57.66500 76.000
57.68000 83.000
57.69500 85.000
57.71000 83.000
57.72500 81.000
57.74000 100.000
57.75500 83.000
57.77000 85.000
57.78500 78.000
57.80000 87.000
57.81500 96.000
57.83000 81.000
57.84500 90.000
57.86000 81.000
57.87500 89.000
57.89000 81.000
57.90500 82.000
57.92000 87.000
57.93500 96.000
57.95000 91.000
57.96500 81.000
57.98000 77.000
57.99500 88.000
58.01000 101.000
58.02500 86.000
58.04000 81.000
58.05500 79.000
58.07000 94.000
58.08500 90.000
58.10000 97.000
58.11500 96.000
58.13000 93.000
58.14500 90.000
58.16000 81.000
58.17500 93.000
58.19000 84.000
58.20500 88.000
58.22000 83.000
58.23500 93.000
58.25000 91.000
58.26500 102.000
58.28000 82.000
58.29500 88.000
58.31000 95.000
58.32500 95.000
58.34000 97.000
58.35500 90.000
58.37000 75.000
58.38500 83.000
58.40000 87.000
58.41500 77.000
58.43000 76.000
58.44500 93.000
58.46000 91.000
58.47500 82.000
58.49000 86.000
58.50500 81.000
58.52000 81.000
58.53500 101.000
58.55000 91.000
58.56500 83.000
58.58000 79.000
58.59500 70.000
58.61000 79.000
58.62500 90.000
58.64000 91.000
58.65500 75.000
58.67000 77.000
58.68500 80.000
58.70000 87.000
58.71500 83.000
58.73000 80.000
58.74500 89.000
58.76000 87.000
58.77500 80.000
58.79000 68.000
58.80500 81.000
58.82000 78.000
58.83500 87.000
58.85000 81.000
58.86500 83.000
58.88000 73.000
58.89500 93.000
58.91000 84.000
58.92500 76.000
58.94000 89.000
58.95500 92.000
58.97000 83.000
58.98500 77.000
59.00000 82.000
59.01500 83.000
59.03000 82.000
59.04500 72.000
59.06000 90.000
59.07500 92.000
59.09000 88.000
59.10500 85.000
59.12000 83.000
59.13500 70.000
59.15000 79.000
59.16500 85.000
59.18000 88.000
59.19500 85.000
59.21000 92.000
59.22500 73.000
59.24000 76.000
59.25500 87.000
59.27000 90.000
59.28500 87.000
59.30000 95.000
59.31500 91.000
59.33000 84.000
59.34500 76.000
59.36000 86.000
59.37500 79.000
59.39000 81.000
59.40500 83.000
59.42000 89.000
59.43500 73.000
59.45000 83.000
59.46500 82.000
59.48000 82.000
59.49500 85.000
59.51000 84.000
59.52500 74.000
59.54000 95.000
59.55500 87.000
59.57000 79.000
59.58500 84.000
59.60000 85.000
59.61500 80.000
59.63000 76.000
59.64500 82.000
59.66000 74.000
59.67500 87.000
59.69000 82.000
59.70500 80.000
59.72000 80.000
59.73500 76.000
59.75000 83.000
59.76500 78.000
59.78000 83.000
59.79500 75.000
59.81000 83.000
59.82500 84.000
59.84000 85.000
59.85500 87.000
59.87000 69.000
59.88500 64.000
59.90000 63.000
59.91500 76.000
59.93000 80.000
59.94500 101.000
59.96000 79.000
59.97500 81.000
59.99000 90.000
60.00500 87.000
60.02000 93.000
60.03500 80.000
60.05000 88.000
60.06500 87.000
60.08000 101.000
60.09500 78.000
60.11000 79.000
60.12500 72.000
60.14000 80.000
60.15500 66.000
60.17000 75.000
60.18500 80.000
60.20000 65.000
60.21500 68.000
60.23000 86.000
60.24500 92.000
60.26000 92.000
60.27500 79.000
60.29000 79.000
60.30500 82.000
60.32000 75.000
60.33500 69.000
60.35000 72.000
60.36500 78.000
60.38000 86.000
60.39500 81.000
60.41000 63.000
60.42500 77.000
60.44000 70.000
60.45500 75.000
60.47000 92.000
60.48500 77.000
60.50000 80.000
60.51500 89.000
60.53000 90.000
60.54500 73.000
60.56000 69.000
60.57500 76.000
60.59000 68.000
60.60500 74.000
60.62000 67.000
60.63500 71.000
60.65000 81.000
60.66500 84.000
60.68000 67.000
60.69500 69.000
60.71000 78.000
60.72500 84.000
60.74000 75.000
60.75500 83.000
60.77000 80.000
60.78500 75.000
60.80000 83.000
60.81500 86.000
60.83000 81.000
60.84500 82.000
60.86000 68.000
60.87500 76.000
60.89000 87.000
60.90500 83.000
60.92000 81.000
60.93500 69.000
60.95000 67.000
60.96500 71.000
60.98000 85.000
60.99500 82.000
61.01000 92.000
61.02500 88.000
61.04000 72.000
61.05500 77.000
61.07000 86.000
61.08500 89.000
61.10000 89.000
61.11500 65.000
61.13000 75.000
61.14500 79.000
61.16000 74.000
61.17500 74.000
61.19000 73.000
61.20500 81.000
61.22000 88.000
61.23500 68.000
61.25000 69.000
61.26500 72.000
61.28000 75.000
61.29500 78.000
61.31000 79.000
61.32500 73.000
61.34000 69.000
61.35500 84.000
61.37000 74.000
61.38500 82.000
61.40000 68.000
61.41500 79.000
61.43000 88.000
61.44500 78.000
61.46000 69.000
61.47500 78.000
61.49000 63.000
61.50500 72.000
61.52000 78.000
61.53500 83.000
61.55000 77.000
61.56500 74.000
61.58000 77.000
61.59500 66.000
61.61000 70.000
61.62500 73.000
61.64000 80.000
61.65500 81.000
61.67000 73.000
61.68500 81.000
61.70000 70.000
61.71500 68.000
61.73000 68.000
61.74500 82.000
61.76000 86.000
61.77500 77.000
61.79000 78.000
61.80500 76.000
61.82000 71.000
61.83500 83.000
61.85000 77.000
61.86500 72.000
61.88000 63.000
61.89500 70.000
61.91000 77.000
61.92500 68.000
61.94000 74.000
61.95500 77.000
61.97000 82.000
61.98500 85.000
