2.00000 3.000
2.01500 3.000
2.03000 1.000
2.04500 3.000
2.06000 3.000
2.07500 4.000
2.09000 5.000
2.10500 6.000
2.12000 4.000
2.13500 2.000
2.15000 3.000
2.16500 3.000
2.18000 3.000
2.19500 5.000
2.21000 5.000
2.22500 3.000
2.24000 3.000
2.25500 5.000
2.27000 2.000
2.28500 4.000
2.30000 6.000
2.31500 4.000
2.33000 6.000
2.34500 4.000
2.36000 4.000
2.37500 3.000
2.39000 2.000
2.40500 4.000
2.42000 6.000
2.43500 4.000
2.45000 3.000
2.46500 5.000
2.48000 4.000
2.49500 3.000
2.51000 3.000
2.52500 3.000
2.54000 1.000
2.55500 2.000
2.57000 3.000
2.58500 3.000
2.60000 6.000
2.61500 3.000
2.63000 6.000
2.64500 2.000
2.66000 3.000
2.67500 3.000
2.69000 4.000
2.70500 1.000
2.72000 1.000
2.73500 3.000
2.75000 4.000
2.76500 2.000
2.78000 3.000
2.79500 3.000
2.81000 1.000
2.82500 2.000
2.84000 3.000
2.85500 5.000
2.87000 2.000
2.88500 3.000
2.90000 4.000
2.91500 2.000
2.93000 2.000
2.94500 3.000
2.96000 3.000
2.97500 1.000
2.99000 3.000
3.00500 2.000
3.02000 2.000
3.03500 0.000
3.05000 1.000
3.06500 0.000
3.08000 3.000
3.09500 4.000
3.11000 4.000
3.12500 6.000
3.14000 6.000
3.15500 15.000
3.17000 19.000
3.18500 12.000
3.20000 21.000
3.21500 38.000
3.23000 52.000
3.24500 65.000
3.26000 99.000
3.27500 116.000
3.29000 158.000
3.30500 177.000
3.32000 197.000
3.33500 234.000
3.35000 265.000
3.36500 247.000
3.38000 232.000
3.39500 267.000
3.41000 257.000
3.42500 249.000
3.44000 242.000
3.45500 261.000
3.47000 254.000
3.48500 248.000
3.50000 257.000
3.51500 233.000
3.53000 262.000
3.54500 241.000
3.56000 243.000
3.57500 242.000
3.59000 238.000
3.60500 254.000
3.62000 248.000
3.63500 258.000
3.65000 231.000
3.66500 218.000
3.68000 260.000
3.69500 258.000
3.71000 226.000
3.72500 250.000
3.74000 235.000
3.75500 232.000
3.77000 220.000
3.78500 208.000
3.80000 219.000
3.81500 210.000
3.83000 218.000
3.84500 206.000
3.86000 237.000
3.87500 230.000
3.89000 228.000
3.90500 246.000
3.92000 241.000
3.93500 237.000
3.95000 245.000
3.96500 207.000
3.98000 207.000
3.99500 228.000
4.01000 214.000
4.02500 224.000
4.04000 239.000
4.05500 250.000
4.07000 265.000
4.08500 248.000
4.10000 208.000
4.11500 228.000
4.13000 213.000
4.14500 207.000
4.16000 237.000
4.17500 228.000
4.19000 229.000
4.20500 224.000
4.22000 239.000
4.23500 237.000
4.25000 227.000
4.26500 237.000
4.28000 235.000
4.29500 234.000
4.31000 214.000
4.32500 216.000
4.34000 216.000
4.35500 221.000
4.37000 230.000
4.38500 236.000
4.40000 224.000
4.41500 222.000
4.43000 223.000
4.44500 207.000
4.46000 204.000
4.47500 208.000
4.49000 227.000
4.50500 220.000
4.52000 220.000
4.53500 225.000
4.55000 209.000
4.56500 210.000
4.58000 215.000
4.59500 198.000
4.61000 225.000
4.62500 219.000
4.64000 205.000
4.65500 220.000
4.67000 240.000
4.68500 233.000
4.70000 227.000
4.71500 218.000
4.73000 237.000
4.74500 247.000
4.76000 203.000
4.77500 215.000
4.79000 208.000
4.80500 203.000
4.82000 213.000
4.83500 222.000
4.85000 214.000
4.86500 248.000
4.88000 229.000
4.89500 217.000
4.91000 211.000
4.92500 221.000
4.94000 223.000
4.95500 221.000
4.97000 218.000
4.98500 227.000
5.00000 220.000
5.01500 223.000
5.03000 207.000
5.04500 216.000
5.06000 225.000
5.07500 232.000
5.09000 241.000
5.10500 228.000
5.12000 229.000
5.13500 224.000
5.15000 241.000
5.16500 243.000
5.18000 241.000
5.19500 241.000
5.21000 236.000
5.22500 250.000
5.24000 226.000
5.25500 256.000
5.27000 228.000
5.28500 214.000
5.30000 228.000
5.31500 212.000
5.33000 215.000
5.34500 206.000
5.36000 221.000
5.37500 230.000
5.39000 209.000
5.40500 226.000
5.42000 229.000
5.43500 248.000
5.45000 234.000
5.46500 262.000
5.48000 260.000
5.49500 248.000
5.51000 261.000
5.52500 237.000
5.54000 246.000
5.55500 243.000
5.57000 254.000
5.58500 252.000
5.60000 252.000
5.61500 274.000
5.63000 228.000
5.64500 225.000
5.66000 246.000
5.67500 260.000
5.69000 252.000
5.70500 269.000
5.72000 264.000
5.73500 287.000
5.75000 286.000
5.76500 285.000
5.78000 252.000
5.79500 260.000
5.81000 288.000
5.82500 284.000
5.84000 299.000
5.85500 295.000
5.87000 300.000
5.88500 329.000
5.90000 327.000
5.91500 306.000
5.93000 297.000
5.94500 304.000
5.96000 332.000
5.97500 346.000
5.99000 369.000
6.00500 419.000
6.02000 408.000
6.03500 397.000
6.05000 394.000
6.06500 424.000
6.08000 417.000
6.09500 441.000
6.11000 495.000
6.12500 513.000
6.14000 547.000
6.15500 529.000
6.17000 567.000
6.18500 611.000
6.20000 697.000
6.21500 757.000
6.23000 767.000
6.24500 704.000
6.26000 554.000
6.27500 455.000
6.29000 412.000
6.30500 373.000
6.32000 343.000
6.33500 330.000
6.35000 344.000
6.36500 329.000
6.38000 299.000
6.39500 289.000
6.41000 270.000
6.42500 284.000
6.44000 285.000
6.45500 283.000
6.47000 299.000
6.48500 264.000
6.50000 261.000
6.51500 248.000
6.53000 262.000
6.54500 253.000
6.56000 232.000
6.57500 239.000
6.59000 235.000
6.60500 251.000
6.62000 250.000
6.63500 268.000
6.65000 272.000
6.66500 252.000
6.68000 261.000
6.69500 256.000
6.71000 260.000
6.72500 251.000
6.74000 234.000
6.75500 245.000
6.77000 246.000
6.78500 239.000
6.80000 234.000
6.81500 247.000
6.83000 278.000
6.84500 254.000
6.86000 244.000
6.87500 240.000
6.89000 270.000
6.90500 258.000
6.92000 277.000
6.93500 253.000
6.95000 241.000
6.96500 257.000
6.98000 274.000
6.99500 247.000
7.01000 255.000
7.02500 251.000
7.04000 249.000
7.05500 257.000
7.07000 261.000
7.08500 241.000
7.10000 260.000
7.11500 251.000
7.13000 271.000
7.14500 271.000
7.16000 258.000
7.17500 268.000
7.19000 261.000
7.20500 270.000
7.22000 258.000
7.23500 235.000
7.25000 244.000
7.26500 257.000
7.28000 251.000
7.29500 228.000
7.31000 242.000
7.32500 257.000
7.34000 250.000
7.35500 264.000
7.37000 272.000
7.38500 254.000
7.40000 259.000
7.41500 272.000
7.43000 285.000
7.44500 255.000
7.46000 258.000
7.47500 273.000
7.49000 268.000
7.50500 261.000
7.52000 252.000
7.53500 256.000
7.55000 249.000
7.56500 261.000
7.58000 253.000
7.59500 259.000
7.61000 267.000
7.62500 261.000
7.64000 230.000
7.65500 247.000
7.67000 286.000
7.68500 284.000
7.70000 249.000
7.71500 260.000
7.73000 271.000
7.74500 267.000
7.76000 238.000
7.77500 267.000
7.79000 256.000
7.80500 247.000
7.82000 257.000
7.83500 272.000
7.85000 264.000
7.86500 252.000
7.88000 261.000
7.89500 243.000
7.91000 275.000
7.92500 258.000
7.94000 245.000
7.95500 267.000
7.97000 254.000
7.98500 247.000
8.00000 260.000
8.01500 259.000
8.03000 256.000
8.04500 267.000
8.06000 251.000
8.07500 251.000
8.09000 264.000
8.10500 282.000
8.12000 279.000
8.13500 286.000
8.15000 287.000
8.16500 263.000
8.18000 250.000
8.19500 269.000
8.21000 249.000
8.22500 277.000
8.24000 278.000
8.25500 254.000
8.27000 264.000
8.28500 274.000
8.30000 275.000
8.31500 263.000
8.33000 286.000
8.34500 277.000
8.36000 279.000
8.37500 281.000
8.39000 284.000
8.40500 283.000
8.42000 273.000
8.43500 297.000
8.45000 262.000
8.46500 270.000
8.48000 299.000
8.49500 299.000
8.51000 291.000
8.52500 302.000
8.54000 291.000
8.55500 310.000
8.57000 322.000
8.58500 324.000
8.60000 325.000
8.61500 330.000
8.63000 308.000
8.64500 312.000
8.66000 313.000
8.67500 308.000
8.69000 303.000
8.70500 363.000
8.72000 348.000
8.73500 318.000
8.75000 336.000
8.76500 331.000
8.78000 340.000
8.79500 294.000
8.81000 301.000
8.82500 315.000
8.84000 336.000
8.85500 317.000
8.87000 301.000
8.88500 318.000
8.90000 326.000
8.91500 310.000
8.93000 323.000
8.94500 294.000
8.96000 324.000
8.97500 317.000
8.99000 274.000
9.00500 291.000
9.02000 320.000
9.03500 297.000
9.05000 300.000
9.06500 294.000
9.08000 281.000
9.09500 260.000
9.11000 280.000
9.12500 297.000
9.14000 281.000
9.15500 275.000
9.17000 271.000
9.18500 270.000
9.20000 282.000
9.21500 278.000
9.23000 281.000
9.24500 297.000
9.26000 289.000
9.27500 291.000
9.29000 270.000
9.30500 293.000
9.32000 287.000
9.33500 287.000
9.35000 291.000
9.36500 285.000
9.38000 277.000
9.39500 265.000
9.41000 272.000
9.42500 276.000
9.44000 278.000
9.45500 285.000
9.47000 275.000
9.48500 288.000
9.50000 268.000
9.51500 270.000
9.53000 280.000
9.54500 285.000
9.56000 296.000
9.57500 290.000
9.59000 299.000
9.60500 298.000
9.62000 305.000
9.63500 310.000
9.65000 313.000
9.66500 296.000
9.68000 304.000
9.69500 305.000
9.71000 312.000
9.72500 299.000
9.74000 307.000
9.75500 308.000
9.77000 320.000
9.78500 305.000
9.80000 314.000
9.81500 313.000
9.83000 316.000
9.84500 333.000
9.86000 320.000
9.87500 312.000
9.89000 352.000
9.90500 333.000
9.92000 317.000
9.93500 361.000
9.95000 346.000
9.96500 360.000
9.98000 354.000
9.99500 385.000
10.01000 386.000
10.02500 405.000
10.04000 383.000
10.05500 381.000
10.07000 429.000
10.08500 426.000
10.10000 398.000
10.11500 436.000
10.13000 456.000
10.14500 452.000
10.16000 450.000
10.17500 457.000
10.19000 467.000
10.20500 474.000
10.22000 508.000
10.23500 516.000
10.25000 509.000
10.26500 570.000
10.28000 604.000
10.29500 598.000
10.31000 591.000
10.32500 665.000
10.34000 678.000
10.35500 769.000
10.37000 765.000
10.38500 868.000
10.40000 958.000
10.41500 1012.000
10.43000 1141.000
10.44500 1186.000
10.46000 1063.000
10.47500 860.000
10.49000 655.000
10.50500 595.000
10.52000 567.000
10.53500 594.000
10.55000 628.000
10.56500 644.000
10.58000 661.000
10.59500 696.000
10.61000 722.000
10.62500 707.000
10.64000 621.000
10.65500 591.000
10.67000 571.000
10.68500 552.000
10.70000 525.000
10.71500 515.000
10.73000 505.000
10.74500 530.000
10.76000 531.000
10.77500 535.000
10.79000 523.000
10.80500 568.000
10.82000 595.000
10.83500 588.000
10.85000 639.000
10.86500 663.000
10.88000 727.000
10.89500 751.000
10.91000 784.000
10.92500 838.000
10.94000 919.000
10.95500 940.000
10.97000 980.000
10.98500 1042.000
11.00000 1095.000
11.01500 1093.000
11.03000 996.000
11.04500 951.000
11.06000 798.000
11.07500 690.000
11.09000 614.000
11.10500 547.000
11.12000 495.000
11.13500 475.000
11.15000 427.000
11.16500 431.000
11.18000 420.000
11.19500 411.000
11.21000 386.000
11.22500 391.000
11.24000 384.000
11.25500 363.000
11.27000 375.000
11.28500 352.000
11.30000 334.000
11.31500 332.000
11.33000 309.000
11.34500 332.000
11.36000 360.000
11.37500 322.000
11.39000 328.000
11.40500 356.000
11.42000 342.000
11.43500 317.000
11.45000 294.000
11.46500 318.000
11.48000 324.000
11.49500 321.000
11.51000 291.000
11.52500 323.000
11.54000 301.000
11.55500 300.000
11.57000 322.000
11.58500 294.000
11.60000 313.000
11.61500 292.000
11.63000 295.000
11.64500 300.000
11.66000 287.000
11.67500 285.000
11.69000 305.000
11.70500 303.000
11.72000 314.000
11.73500 319.000
11.75000 306.000
11.76500 302.000
11.78000 299.000
11.79500 297.000
11.81000 276.000
11.82500 318.000
11.84000 300.000
11.85500 293.000
11.87000 299.000
11.88500 284.000
11.90000 312.000
11.91500 314.000
11.93000 310.000
11.94500 276.000
11.96000 308.000
11.97500 293.000
11.99000 306.000
12.00500 290.000
12.02000 285.000
12.03500 293.000
12.05000 303.000
12.06500 284.000
12.08000 263.000
12.09500 280.000
12.11000 297.000
12.12500 305.000
12.14000 277.000
12.15500 303.000
12.17000 275.000
12.18500 285.000
12.20000 296.000
12.21500 301.000
12.23000 298.000
12.24500 302.000
12.26000 314.000
12.27500 309.000
12.29000 290.000
12.30500 312.000
12.32000 317.000
12.33500 307.000
12.35000 289.000
12.36500 281.000
12.38000 287.000
12.39500 306.000
12.41000 324.000
12.42500 324.000
12.44000 335.000
12.45500 385.000
12.47000 390.000
12.48500 378.000
12.50000 408.000
12.51500 419.000
12.53000 432.000
12.54500 496.000
12.56000 534.000
12.57500 475.000
12.59000 402.000
12.60500 342.000
12.62000 296.000
12.63500 296.000
12.65000 298.000
12.66500 293.000
12.68000 295.000
12.69500 282.000
12.71000 301.000
12.72500 326.000
12.74000 291.000
12.75500 306.000
12.77000 299.000
12.78500 307.000
12.80000 294.000
12.81500 276.000
12.83000 288.000
12.84500 300.000
12.86000 305.000
12.87500 281.000
12.89000 307.000
12.90500 278.000
12.92000 278.000
12.93500 281.000
12.95000 281.000
12.96500 306.000
12.98000 293.000
12.99500 286.000
13.01000 301.000
13.02500 280.000
13.04000 301.000
13.05500 269.000
13.07000 269.000
13.08500 274.000
13.10000 273.000
13.11500 278.000
13.13000 283.000
13.14500 297.000
13.16000 279.000
13.17500 285.000
13.19000 273.000
13.20500 282.000
13.22000 311.000
13.23500 292.000
13.25000 287.000
13.26500 293.000
13.28000 280.000
13.29500 283.000
13.31000 277.000
13.32500 311.000
13.34000 296.000
13.35500 301.000
13.37000 272.000
13.38500 254.000
13.40000 281.000
13.41500 284.000
13.43000 282.000
13.44500 288.000
13.46000 283.000
13.47500 264.000
13.49000 269.000
13.50500 280.000
13.52000 280.000
13.53500 278.000
13.55000 265.000
13.56500 290.000
13.58000 286.000
13.59500 307.000
13.61000 281.000
13.62500 265.000
13.64000 275.000
13.65500 301.000
13.67000 279.000
13.68500 293.000
13.70000 312.000
13.71500 294.000
13.73000 289.000
13.74500 293.000
13.76000 289.000
13.77500 296.000
13.79000 257.000
13.80500 276.000
13.82000 291.000
13.83500 290.000
13.85000 258.000
13.86500 295.000
13.88000 287.000
13.89500 272.000
13.91000 296.000
13.92500 287.000
13.94000 282.000
13.95500 280.000
13.97000 293.000
13.98500 298.000
14.00000 291.000
14.01500 282.000
14.03000 284.000
14.04500 277.000
14.06000 280.000
14.07500 295.000
14.09000 329.000
14.10500 317.000
14.12000 261.000
14.13500 291.000
14.15000 292.000
14.16500 282.000
14.18000 285.000
14.19500 283.000
14.21000 289.000
14.22500 287.000
14.24000 270.000
14.25500 286.000
14.27000 296.000
14.28500 286.000
14.30000 301.000
14.31500 303.000
14.33000 286.000
14.34500 282.000
14.36000 302.000
14.37500 279.000
14.39000 297.000
14.40500 291.000
14.42000 279.000
14.43500 292.000
14.45000 280.000
14.46500 271.000
14.48000 307.000
14.49500 268.000
14.51000 282.000
14.52500 283.000
14.54000 273.000
14.55500 292.000
14.57000 286.000
14.58500 307.000
14.60000 299.000
14.61500 302.000
14.63000 284.000
14.64500 291.000
14.66000 293.000
14.67500 284.000
14.69000 301.000
14.70500 283.000
14.72000 281.000
14.73500 277.000
14.75000 289.000
14.76500 296.000
14.78000 290.000
14.79500 260.000
14.81000 305.000
14.82500 309.000
14.84000 306.000
14.85500 304.000
14.87000 301.000
14.88500 308.000
14.90000 299.000
14.91500 288.000
14.93000 281.000
14.94500 304.000
14.96000 344.000
14.97500 332.000
14.99000 324.000
15.00500 325.000
15.02000 380.000
15.03500 382.000
15.05000 384.000
15.06500 369.000
15.08000 339.000
15.09500 300.000
15.11000 286.000
15.12500 327.000
15.14000 297.000
15.15500 299.000
15.17000 293.000
15.18500 307.000
15.20000 293.000
15.21500 300.000
15.23000 284.000
15.24500 292.000
15.26000 279.000
15.27500 298.000
15.29000 283.000
15.30500 256.000
15.32000 262.000
15.33500 276.000
15.35000 300.000
15.36500 305.000
15.38000 301.000
15.39500 265.000
15.41000 268.000
15.42500 300.000
15.44000 281.000
15.45500 317.000
15.47000 265.000
15.48500 283.000
15.50000 301.000
15.51500 301.000
15.53000 288.000
15.54500 311.000
15.56000 293.000
15.57500 289.000
15.59000 311.000
15.60500 310.000
15.62000 306.000
15.63500 308.000
15.65000 291.000
15.66500 289.000
15.68000 291.000
15.69500 282.000
15.71000 306.000
15.72500 280.000
15.74000 285.000
15.75500 278.000
15.77000 257.000
15.78500 267.000
15.80000 304.000
15.81500 301.000
15.83000 292.000
15.84500 272.000
15.86000 262.000
15.87500 284.000
15.89000 304.000
15.90500 291.000
15.92000 290.000
15.93500 290.000
15.95000 281.000
15.96500 312.000
15.98000 264.000
15.99500 286.000
16.01000 305.000
16.02500 316.000
16.04000 308.000
16.05500 309.000
16.07000 277.000
16.08500 305.000
16.10000 318.000
16.11500 306.000
16.13000 305.000
16.14500 299.000
16.16000 286.000
16.17500 263.000
16.19000 281.000
16.20500 289.000
16.22000 309.000
16.23500 307.000
16.25000 290.000
16.26500 284.000
16.28000 292.000
16.29500 274.000
16.31000 267.000
16.32500 258.000
16.34000 270.000
16.35500 266.000
16.37000 261.000
16.38500 304.000
16.40000 304.000
16.41500 292.000
16.43000 274.000
16.44500 293.000
16.46000 303.000
16.47500 293.000
16.49000 270.000
16.50500 286.000
16.52000 283.000
16.53500 276.000
16.55000 278.000
16.56500 293.000
16.58000 286.000
16.59500 305.000
16.61000 311.000
16.62500 305.000
16.64000 280.000
16.65500 292.000
16.67000 294.000
16.68500 293.000
16.70000 297.000
16.71500 306.000
16.73000 300.000
16.74500 316.000
16.76000 315.000
16.77500 306.000
16.79000 319.000
16.80500 330.000
16.82000 321.000
16.83500 308.000
16.85000 314.000
16.86500 290.000
16.88000 293.000
16.89500 314.000
16.91000 295.000
16.92500 295.000
16.94000 296.000
16.95500 282.000
16.97000 302.000
16.98500 309.000
17.00000 312.000
17.01500 312.000
17.03000 284.000
17.04500 311.000
17.06000 312.000
17.07500 318.000
17.09000 312.000
17.10500 318.000
17.12000 322.000
17.13500 350.000
17.15000 315.000
17.16500 310.000
17.18000 320.000
17.19500 319.000
17.21000 357.000
17.22500 372.000
17.24000 344.000
17.25500 327.000
17.27000 335.000
17.28500 356.000
17.30000 369.000
17.31500 374.000
17.33000 345.000
17.34500 354.000
17.36000 365.000
17.37500 377.000
17.39000 372.000
17.40500 365.000
17.42000 340.000
17.43500 361.000
17.45000 370.000
17.46500 377.000
17.48000 404.000
17.49500 394.000
17.51000 387.000
17.52500 381.000
17.54000 414.000
17.55500 418.000
17.57000 407.000
17.58500 399.000
17.60000 412.000
17.61500 401.000
17.63000 361.000
17.64500 379.000
17.66000 400.000
17.67500 366.000
17.69000 357.000
17.70500 338.000
17.72000 377.000
17.73500 361.000
17.75000 357.000
17.76500 358.000
17.78000 338.000
17.79500 329.000
17.81000 344.000
17.82500 344.000
17.84000 337.000
17.85500 357.000
17.87000 371.000
17.88500 387.000
17.90000 354.000
17.91500 390.000
17.93000 380.000
17.94500 367.000
17.96000 385.000
17.97500 363.000
17.99000 321.000
18.00500 300.000
18.02000 321.000
18.03500 323.000
18.05000 309.000
18.06500 291.000
18.08000 298.000
18.09500 304.000
18.11000 283.000
18.12500 299.000
18.14000 302.000
18.15500 314.000
18.17000 318.000
18.18500 315.000
18.20000 315.000
18.21500 347.000
18.23000 276.000
18.24500 289.000
18.26000 300.000
18.27500 317.000
18.29000 321.000
18.30500 304.000
18.32000 328.000
18.33500 314.000
18.35000 327.000
18.36500 319.000
18.38000 336.000
18.39500 329.000
18.41000 309.000
18.42500 301.000
18.44000 307.000
18.45500 332.000
18.47000 336.000
18.48500 353.000
18.50000 347.000
18.51500 353.000
18.53000 362.000
18.54500 363.000
18.56000 366.000
18.57500 375.000
18.59000 379.000
18.60500 383.000
18.62000 408.000
18.63500 378.000
18.65000 406.000
18.66500 443.000
18.68000 494.000
18.69500 533.000
18.71000 592.000
18.72500 626.000
18.74000 698.000
18.75500 719.000
18.77000 657.000
18.78500 552.000
18.80000 503.000
18.81500 481.000
18.83000 455.000
18.84500 453.000
18.86000 436.000
18.87500 442.000
18.89000 421.000
18.90500 411.000
18.92000 421.000
18.93500 434.000
18.95000 427.000
18.96500 409.000
18.98000 428.000
18.99500 432.000
19.01000 410.000
19.02500 404.000
19.04000 432.000
19.05500 399.000
19.07000 410.000
19.08500 441.000
19.10000 471.000
19.11500 460.000
19.13000 465.000
19.14500 476.000
19.16000 473.000
19.17500 480.000
19.19000 514.000
19.20500 581.000
19.22000 638.000
19.23500 724.000
19.25000 823.000
19.26500 854.000
19.28000 764.000
19.29500 584.000
19.31000 469.000
19.32500 418.000
19.34000 375.000
19.35500 346.000
19.37000 369.000
19.38500 395.000
19.40000 341.000
19.41500 341.000
19.43000 351.000
19.44500 334.000
19.46000 314.000
19.47500 326.000
19.49000 297.000
19.50500 287.000
19.52000 333.000
19.53500 322.000
19.55000 316.000
19.56500 336.000
19.58000 332.000
19.59500 327.000
19.61000 314.000
19.62500 311.000
19.64000 301.000
19.65500 278.000
19.67000 299.000
19.68500 311.000
19.70000 324.000
19.71500 308.000
19.73000 317.000
19.74500 315.000
19.76000 311.000
19.77500 314.000
19.79000 304.000
19.80500 307.000
19.82000 320.000
19.83500 336.000
19.85000 328.000
19.86500 327.000
19.88000 301.000
19.89500 303.000
19.91000 300.000
19.92500 314.000
19.94000 316.000
19.95500 308.000
19.97000 309.000
19.98500 303.000
20.00000 294.000
20.01500 311.000
20.03000 301.000
20.04500 310.000
20.06000 312.000
20.07500 307.000
20.09000 338.000
20.10500 349.000
20.12000 304.000
20.13500 319.000
20.15000 309.000
20.16500 304.000
20.18000 298.000
20.19500 326.000
20.21000 306.000
20.22500 301.000
20.24000 298.000
20.25500 274.000
20.27000 315.000
20.28500 334.000
20.30000 308.000
20.31500 306.000
20.33000 314.000
20.34500 315.000
20.36000 337.000
20.37500 325.000
20.39000 323.000
20.40500 319.000
20.42000 312.000
20.43500 317.000
20.45000 300.000
20.46500 301.000
20.48000 313.000
20.49500 332.000
20.51000 298.000
20.52500 307.000
20.54000 322.000
20.55500 317.000
20.57000 297.000
20.58500 293.000
20.60000 305.000
20.61500 347.000
20.63000 305.000
20.64500 300.000
20.66000 315.000
20.67500 305.000
20.69000 327.000
20.70500 325.000
20.72000 337.000
20.73500 325.000
20.75000 323.000
20.76500 316.000
20.78000 309.000
20.79500 320.000
20.81000 299.000
20.82500 334.000
20.84000 343.000
20.85500 353.000
20.87000 351.000
20.88500 356.000
20.90000 338.000
20.91500 378.000
20.93000 359.000
20.94500 378.000
20.96000 389.000
20.97500 418.000
20.99000 388.000
21.00500 387.000
21.02000 365.000
21.03500 389.000
21.05000 387.000
21.06500 400.000
21.08000 385.000
21.09500 371.000
21.11000 380.000
21.12500 386.000
21.14000 358.000
21.15500 404.000
21.17000 382.000
21.18500 355.000
21.20000 358.000
21.21500 355.000
21.23000 337.000
21.24500 340.000
21.26000 354.000
21.27500 346.000
21.29000 321.000
21.30500 345.000
21.32000 337.000
21.33500 334.000
21.35000 321.000
21.36500 333.000
21.38000 332.000
21.39500 316.000
21.41000 318.000
21.42500 335.000
21.44000 328.000
21.45500 304.000
21.47000 304.000
21.48500 344.000
21.50000 349.000
21.51500 368.000
21.53000 348.000
21.54500 332.000
21.56000 338.000
21.57500 321.000
21.59000 334.000
21.60500 308.000
21.62000 315.000
21.63500 315.000
21.65000 307.000
21.66500 345.000
21.68000 317.000
21.69500 297.000
21.71000 323.000
21.72500 323.000
21.74000 290.000
21.75500 307.000
21.77000 335.000
21.78500 324.000
21.80000 316.000
21.81500 310.000
21.83000 316.000
21.84500 290.000
21.86000 313.000
21.87500 314.000
21.89000 327.000
21.90500 316.000
21.92000 330.000
21.93500 338.000
21.95000 305.000
21.96500 307.000
21.98000 323.000
21.99500 308.000
22.01000 293.000
22.02500 312.000
22.04000 312.000
22.05500 315.000
22.07000 288.000
22.08500 304.000
22.10000 306.000
22.11500 300.000
22.13000 312.000
22.14500 321.000
22.16000 322.000
22.17500 323.000
22.19000 299.000
22.20500 309.000
22.22000 331.000
22.23500 326.000
22.25000 332.000
22.26500 326.000
22.28000 309.000
22.29500 308.000
22.31000 319.000
22.32500 299.000
22.34000 283.000
22.35500 302.000
22.37000 329.000
22.38500 318.000
22.40000 336.000
22.41500 330.000
22.43000 312.000
22.44500 328.000
22.46000 347.000
22.47500 324.000
22.49000 314.000
22.50500 302.000
22.52000 295.000
22.53500 293.000
22.55000 303.000
22.56500 319.000
22.58000 310.000
22.59500 315.000
22.61000 318.000
22.62500 303.000
22.64000 309.000
22.65500 356.000
22.67000 335.000
22.68500 310.000
22.70000 336.000
22.71500 359.000
22.73000 315.000
22.74500 327.000
22.76000 341.000
22.77500 327.000
22.79000 340.000
22.80500 358.000
22.82000 338.000
22.83500 340.000
22.85000 339.000
22.86500 330.000
22.88000 319.000
22.89500 347.000
22.91000 323.000
22.92500 327.000
22.94000 324.000
22.95500 331.000
22.97000 310.000
22.98500 337.000
23.00000 325.000
23.01500 333.000
23.03000 308.000
23.04500 320.000
23.06000 359.000
23.07500 311.000
23.09000 317.000
23.10500 301.000
23.12000 283.000
23.13500 289.000
23.15000 326.000
23.16500 316.000
23.18000 345.000
23.19500 320.000
23.21000 343.000
23.22500 307.000
23.24000 306.000
23.25500 349.000
23.27000 324.000
23.28500 308.000
23.30000 306.000
23.31500 330.000
23.33000 315.000
23.34500 303.000
23.36000 323.000
23.37500 340.000
23.39000 326.000
23.40500 330.000
23.42000 322.000
23.43500 358.000
23.45000 316.000
23.46500 321.000
23.48000 330.000
23.49500 344.000
23.51000 349.000
23.52500 357.000
23.54000 336.000
23.55500 348.000
23.57000 350.000
23.58500 330.000
23.60000 329.000
23.61500 333.000
23.63000 328.000
23.64500 317.000
23.66000 330.000
23.67500 290.000
23.69000 333.000
23.70500 322.000
23.72000 313.000
23.73500 309.000
23.75000 311.000
23.76500 319.000
23.78000 333.000
23.79500 331.000
23.81000 315.000
23.82500 317.000
23.84000 339.000
23.85500 341.000
23.87000 321.000
23.88500 325.000
23.90000 332.000
23.91500 333.000
23.93000 329.000
23.94500 338.000
23.96000 321.000
23.97500 333.000
23.99000 335.000
24.00500 337.000
24.02000 331.000
24.03500 317.000
24.05000 321.000
24.06500 352.000
24.08000 314.000
24.09500 288.000
24.11000 314.000
24.12500 328.000
24.14000 342.000
24.15500 318.000
24.17000 325.000
24.18500 341.000
24.20000 317.000
24.21500 310.000
24.23000 334.000
24.24500 353.000
24.26000 320.000
24.27500 317.000
24.29000 347.000
24.30500 354.000
24.32000 405.000
24.33500 387.000
24.35000 426.000
24.36500 436.000
24.38000 434.000
24.39500 407.000
24.41000 399.000
24.42500 420.000
24.44000 453.000
24.45500 474.000
24.47000 521.000
24.48500 540.000
24.50000 622.000
24.51500 700.000
24.53000 668.000
24.54500 593.000
24.56000 528.000
24.57500 451.000
24.59000 457.000
24.60500 408.000
24.62000 446.000
24.63500 407.000
24.65000 378.000
24.66500 381.000
24.68000 393.000
24.69500 390.000
24.71000 392.000
24.72500 383.000
24.74000 392.000
24.75500 374.000
24.77000 405.000
24.78500 385.000
24.80000 389.000
24.81500 405.000
24.83000 395.000
24.84500 421.000
24.86000 428.000
24.87500 407.000
24.89000 401.000
24.90500 412.000
24.92000 430.000
24.93500 409.000
24.95000 426.000
24.96500 442.000
24.98000 444.000
24.99500 453.000
25.01000 460.000
25.02500 469.000
25.04000 482.000
25.05500 512.000
25.07000 540.000
25.08500 572.000
25.10000 585.000
25.11500 550.000
25.13000 513.000
25.14500 480.000
25.16000 478.000
25.17500 492.000
25.19000 488.000
25.20500 481.000
25.22000 513.000
25.23500 510.000
25.25000 523.000
25.26500 498.000
25.28000 525.000
25.29500 567.000
25.31000 509.000
25.32500 488.000
25.34000 507.000
25.35500 538.000
25.37000 522.000
25.38500 575.000
25.40000 558.000
25.41500 611.000
25.43000 646.000
25.44500 635.000
25.46000 651.000
25.47500 692.000
25.49000 691.000
25.50500 698.000
25.52000 741.000
25.53500 830.000
25.55000 779.000
25.56500 757.000
25.58000 741.000
25.59500 742.000
25.61000 685.000
25.62500 680.000
25.64000 668.000
25.65500 692.000
25.67000 650.000
25.68500 689.000
25.70000 686.000
25.71500 670.000
25.73000 629.000
25.74500 603.000
25.76000 652.000
25.77500 665.000
25.79000 700.000
25.80500 744.000
25.82000 701.000
25.83500 715.000
25.85000 619.000
25.86500 555.000
25.88000 506.000
25.89500 520.000
25.91000 529.000
25.92500 474.000
25.94000 475.000
25.95500 490.000
25.97000 491.000
25.98500 477.000
26.00000 488.000
26.01500 520.000
26.03000 533.000
26.04500 541.000
26.06000 587.000
26.07500 579.000
26.09000 588.000
26.10500 617.000
26.12000 565.000
26.13500 537.000
26.15000 498.000
26.16500 513.000
26.18000 485.000
26.19500 472.000
26.21000 459.000
26.22500 491.000
26.24000 461.000
26.25500 472.000
26.27000 454.000
26.28500 469.000
26.30000 459.000
26.31500 459.000
26.33000 423.000
26.34500 434.000
26.36000 447.000
26.37500 458.000
26.39000 485.000
26.40500 458.000
26.42000 518.000
26.43500 517.000
26.45000 574.000
26.46500 609.000
26.48000 658.000
26.49500 693.000
26.51000 768.000
26.52500 740.000
26.54000 795.000
26.55500 865.000
26.57000 957.000
26.58500 1034.000
26.60000 1090.000
26.61500 1045.000
26.63000 930.000
26.64500 762.000
26.66000 668.000
26.67500 615.000
26.69000 512.000
26.70500 552.000
26.72000 525.000
26.73500 501.000
26.75000 456.000
26.76500 449.000
26.78000 454.000
26.79500 457.000
26.81000 445.000
26.82500 436.000
26.84000 434.000
26.85500 428.000
26.87000 413.000
26.88500 436.000
26.90000 433.000
26.91500 426.000
26.93000 451.000
26.94500 422.000
26.96000 443.000
26.97500 448.000
26.99000 426.000
27.00500 436.000
27.02000 441.000
27.03500 436.000
27.05000 421.000
27.06500 410.000
27.08000 435.000
27.09500 418.000
27.11000 417.000
27.12500 462.000
27.14000 436.000
27.15500 437.000
27.17000 437.000
27.18500 429.000
27.20000 435.000
27.21500 458.000
27.23000 451.000
27.24500 432.000
27.26000 441.000
27.27500 446.000
27.29000 455.000
27.30500 454.000
27.32000 454.000
27.33500 468.000
27.35000 479.000
27.36500 481.000
27.38000 484.000
27.39500 510.000
27.41000 526.000
27.42500 523.000
27.44000 559.000
27.45500 575.000
27.47000 607.000
27.48500 613.000
27.50000 659.000
27.51500 770.000
27.53000 844.000
27.54500 916.000
27.56000 990.000
27.57500 1130.000
27.59000 1230.000
27.60500 1235.000
27.62000 1119.000
27.63500 1023.000
27.65000 990.000
27.66500 920.000
27.68000 880.000
27.69500 832.000
27.71000 925.000
27.72500 948.000
27.74000 965.000
27.75500 958.000
27.77000 926.000
27.78500 925.000
27.80000 939.000
27.81500 963.000
27.83000 956.000
27.84500 963.000
27.86000 1018.000
27.87500 1030.000
27.89000 1065.000
27.90500 1095.000
27.92000 1145.000
27.93500 1192.000
27.95000 1185.000
27.96500 1265.000
27.98000 1342.000
27.99500 1390.000
28.01000 1473.000
28.02500 1534.000
28.04000 1564.000
28.05500 1663.000
28.07000 1806.000
28.08500 1937.000
28.10000 1985.000
28.11500 1994.000
28.13000 1869.000
28.14500 1688.000
28.16000 1551.000
28.17500 1330.000
28.19000 1178.000
28.20500 1101.000
28.22000 1022.000
28.23500 983.000
28.25000 929.000
28.26500 820.000
28.28000 829.000
28.29500 780.000
28.31000 779.000
28.32500 783.000
28.34000 751.000
28.35500 692.000
28.37000 696.000
28.38500 667.000
28.40000 651.000
28.41500 577.000
28.43000 540.000
28.44500 515.000
28.46000 539.000
28.47500 505.000
28.49000 475.000
28.50500 504.000
28.52000 466.000
28.53500 465.000
28.55000 471.000
28.56500 466.000
28.58000 449.000
28.59500 449.000
28.61000 411.000
28.62500 442.000
28.64000 468.000
28.65500 451.000
28.67000 456.000
28.68500 372.000
28.70000 374.000
28.71500 380.000
28.73000 400.000
28.74500 412.000
28.76000 387.000
28.77500 368.000
28.79000 383.000
28.80500 360.000
28.82000 382.000
28.83500 399.000
28.85000 371.000
28.86500 356.000
28.88000 375.000
28.89500 339.000
28.91000 340.000
28.92500 326.000
28.94000 352.000
28.95500 333.000
28.97000 354.000
28.98500 359.000
29.00000 332.000
29.01500 331.000
29.03000 339.000
29.04500 335.000
29.06000 351.000
29.07500 353.000
29.09000 331.000
29.10500 343.000
29.12000 328.000
29.13500 333.000
29.15000 347.000
29.16500 365.000
29.18000 339.000
29.19500 320.000
29.21000 322.000
29.22500 327.000
29.24000 342.000
29.25500 324.000
29.27000 343.000
29.28500 353.000
29.30000 377.000
29.31500 365.000
29.33000 344.000
29.34500 376.000
29.36000 389.000
29.37500 413.000
29.39000 460.000
29.40500 465.000
29.42000 416.000
29.43500 412.000
29.45000 377.000
29.46500 336.000
29.48000 355.000
29.49500 345.000
29.51000 341.000
29.52500 383.000
29.54000 390.000
29.55500 392.000
29.57000 387.000
29.58500 353.000
29.60000 385.000
29.61500 386.000
29.63000 352.000
29.64500 404.000
29.66000 399.000
29.67500 388.000
29.69000 350.000
29.70500 368.000
29.72000 340.000
29.73500 324.000
29.75000 321.000
29.76500 331.000
29.78000 342.000
29.79500 336.000
29.81000 364.000
29.82500 357.000
29.84000 323.000
29.85500 363.000
29.87000 380.000
29.88500 390.000
29.90000 387.000
29.91500 328.000
29.93000 345.000
29.94500 327.000
29.96000 312.000
29.97500 308.000
29.99000 305.000
30.00500 336.000
30.02000 339.000
30.03500 330.000
30.05000 337.000
30.06500 326.000
30.08000 335.000
30.09500 343.000
30.11000 355.000
30.12500 366.000
30.14000 331.000
30.15500 359.000
30.17000 366.000
30.18500 360.000
30.20000 338.000
30.21500 346.000
30.23000 329.000
30.24500 351.000
30.26000 343.000
30.27500 351.000
30.29000 369.000
30.30500 343.000
30.32000 371.000
30.33500 393.000
30.35000 383.000
30.36500 483.000
30.38000 505.000
30.39500 601.000
30.41000 665.000
30.42500 719.000
30.44000 750.000
30.45500 767.000
30.47000 677.000
30.48500 613.000
30.50000 550.000
30.51500 513.000
30.53000 450.000
30.54500 403.000
30.56000 344.000
30.57500 340.000
30.59000 348.000
30.60500 316.000
30.62000 301.000
30.63500 328.000
30.65000 293.000
30.66500 295.000
30.68000 296.000
30.69500 282.000
30.71000 302.000
30.72500 299.000
30.74000 278.000
30.75500 288.000
30.77000 301.000
30.78500 275.000
30.80000 276.000
30.81500 291.000
30.83000 272.000
30.84500 267.000
30.86000 282.000
30.87500 299.000
30.89000 313.000
30.90500 302.000
30.92000 301.000
30.93500 301.000
30.95000 302.000
30.96500 288.000
30.98000 329.000
30.99500 317.000
31.01000 294.000
31.02500 279.000
31.04000 283.000
31.05500 279.000
31.07000 288.000
31.08500 267.000
31.10000 277.000
31.11500 265.000
31.13000 298.000
31.14500 265.000
31.16000 260.000
31.17500 255.000
31.19000 265.000
31.20500 277.000
31.22000 265.000
31.23500 274.000
31.25000 257.000
31.26500 257.000
31.28000 263.000
31.29500 249.000
31.31000 258.000
31.32500 270.000
31.34000 270.000
31.35500 266.000
31.37000 264.000
31.38500 284.000
31.40000 268.000
31.41500 252.000
31.43000 273.000
31.44500 244.000
31.46000 279.000
31.47500 303.000
31.49000 294.000
31.50500 283.000
31.52000 292.000
31.53500 295.000
31.55000 287.000
31.56500 276.000
31.58000 298.000
31.59500 302.000
31.61000 333.000
31.62500 334.000
31.64000 348.000
31.65500 311.000
31.67000 295.000
31.68500 281.000
31.70000 285.000
31.71500 294.000
31.73000 287.000
31.74500 277.000
31.76000 269.000
31.77500 261.000
31.79000 260.000
31.80500 243.000
31.82000 278.000
31.83500 254.000
31.85000 246.000
31.86500 247.000
31.88000 258.000
31.89500 264.000
31.91000 276.000
31.92500 265.000
31.94000 260.000
31.95500 277.000
31.97000 289.000
31.98500 297.000
32.00000 308.000
32.01500 333.000
32.03000 306.000
32.04500 314.000
32.06000 287.000
32.07500 272.000
32.09000 289.000
32.10500 257.000
32.12000 261.000
32.13500 262.000
32.15000 239.000
32.16500 233.000
32.18000 243.000
32.19500 277.000
32.21000 284.000
32.22500 260.000
32.24000 261.000
32.25500 253.000
32.27000 250.000
32.28500 252.000
32.30000 255.000
32.31500 259.000
32.33000 243.000
32.34500 249.000
32.36000 249.000
32.37500 231.000
32.39000 242.000
32.40500 264.000
32.42000 258.000
32.43500 247.000
32.45000 260.000
32.46500 261.000
32.48000 241.000
32.49500 249.000
32.51000 262.000
32.52500 238.000
32.54000 248.000
32.55500 263.000
32.57000 292.000
32.58500 269.000
32.60000 279.000
32.61500 280.000
32.63000 292.000
32.64500 328.000
32.66000 322.000
32.67500 308.000
32.69000 286.000
32.70500 283.000
32.72000 269.000
32.73500 231.000
32.75000 243.000
32.76500 250.000
32.78000 261.000
32.79500 255.000
32.81000 249.000
32.82500 248.000
32.84000 237.000
32.85500 247.000
32.87000 229.000
32.88500 232.000
32.90000 217.000
32.91500 230.000
32.93000 258.000
32.94500 251.000
32.96000 241.000
32.97500 247.000
32.99000 234.000
33.00500 239.000
33.02000 267.000
33.03500 267.000
33.05000 251.000
33.06500 262.000
33.08000 275.000
33.09500 243.000
33.11000 271.000
33.12500 264.000
33.14000 268.000
33.15500 253.000
33.17000 237.000
33.18500 236.000
33.20000 230.000
33.21500 237.000
33.23000 234.000
33.24500 230.000
33.26000 250.000
33.27500 238.000
33.29000 260.000
33.30500 261.000
33.32000 270.000
33.33500 250.000
33.35000 251.000
33.36500 266.000
33.38000 274.000
33.39500 275.000
33.41000 277.000
33.42500 263.000
33.44000 278.000
33.45500 268.000
33.47000 229.000
33.48500 266.000
33.50000 247.000
33.51500 239.000
33.53000 250.000
33.54500 256.000
33.56000 259.000
33.57500 243.000
33.59000 261.000
33.60500 240.000
33.62000 274.000
33.63500 262.000
33.65000 277.000
33.66500 292.000
33.68000 310.000
33.69500 305.000
33.71000 341.000
33.72500 374.000
33.74000 348.000
33.75500 358.000
33.77000 315.000
33.78500 282.000
33.80000 249.000
33.81500 275.000
33.83000 281.000
33.84500 264.000
33.86000 267.000
33.87500 271.000
33.89000 288.000
33.90500 280.000
33.92000 309.000
33.93500 317.000
33.95000 320.000
33.96500 328.000
33.98000 328.000
33.99500 310.000
34.01000 305.000
34.02500 284.000
34.04000 272.000
34.05500 274.000
34.07000 280.000
34.08500 269.000
34.10000 256.000
34.11500 232.000
34.13000 255.000
34.14500 254.000
34.16000 249.000
34.17500 267.000
34.19000 251.000
34.20500 226.000
34.22000 263.000
34.23500 260.000
34.25000 251.000
34.26500 240.000
34.28000 222.000
34.29500 219.000
34.31000 242.000
34.32500 239.000
34.34000 258.000
34.35500 250.000
34.37000 242.000
34.38500 236.000
34.40000 256.000
34.41500 254.000
34.43000 253.000
34.44500 235.000
34.46000 234.000
34.47500 234.000
34.49000 252.000
34.50500 217.000
34.52000 215.000
34.53500 211.000
34.55000 218.000
34.56500 214.000
34.58000 218.000
34.59500 227.000
34.61000 226.000
34.62500 211.000
34.64000 204.000
34.65500 213.000
34.67000 222.000
34.68500 218.000
34.70000 201.000
34.71500 193.000
34.73000 221.000
34.74500 211.000
34.76000 189.000
34.77500 197.000
34.79000 210.000
34.80500 215.000
34.82000 214.000
34.83500 203.000
34.85000 199.000
34.86500 202.000
34.88000 228.000
34.89500 205.000
34.91000 205.000
34.92500 228.000
34.94000 210.000
34.95500 204.000
34.97000 207.000
34.98500 221.000
35.00000 219.000
35.01500 230.000
35.03000 207.000
35.04500 218.000
35.06000 205.000
35.07500 219.000
35.09000 201.000
35.10500 203.000
35.12000 203.000
35.13500 210.000
35.15000 195.000
35.16500 199.000
35.18000 216.000
35.19500 236.000
35.21000 201.000
35.22500 195.000
35.24000 209.000
35.25500 223.000
35.27000 220.000
35.28500 224.000
35.30000 217.000
35.31500 216.000
35.33000 235.000
35.34500 253.000
35.36000 262.000
35.37500 241.000
35.39000 224.000
35.40500 215.000
35.42000 226.000
35.43500 207.000
35.45000 215.000
35.46500 205.000
35.48000 211.000
35.49500 219.000
35.51000 218.000
35.52500 201.000
35.54000 211.000
35.55500 224.000
35.57000 212.000
35.58500 210.000
35.60000 216.000
35.61500 221.000
35.63000 210.000
35.64500 204.000
35.66000 200.000
35.67500 215.000
35.69000 225.000
35.70500 225.000
35.72000 251.000
35.73500 254.000
35.75000 261.000
35.76500 277.000
35.78000 288.000
35.79500 311.000
35.81000 333.000
35.82500 329.000
35.84000 298.000
35.85500 253.000
35.87000 239.000
35.88500 228.000
35.90000 240.000
35.91500 226.000
35.93000 224.000
35.94500 235.000
35.96000 234.000
35.97500 250.000
35.99000 229.000
36.00500 214.000
36.02000 195.000
36.03500 201.000
36.05000 210.000
36.06500 195.000
36.08000 170.000
36.09500 190.000
36.11000 173.000
36.12500 189.000
36.14000 199.000
36.15500 173.000
36.17000 172.000
36.18500 185.000
36.20000 162.000
36.21500 177.000
36.23000 189.000
36.24500 171.000
36.26000 169.000
36.27500 185.000
36.29000 167.000
36.30500 177.000
36.32000 190.000
36.33500 199.000
36.35000 209.000
36.36500 201.000
36.38000 199.000
36.39500 207.000
36.41000 183.000
36.42500 191.000
36.44000 225.000
36.45500 208.000
36.47000 216.000
36.48500 208.000
36.50000 188.000
36.51500 196.000
36.53000 192.000
36.54500 191.000
36.56000 194.000
36.57500 194.000
36.59000 198.000
36.60500 215.000
36.62000 194.000
36.63500 203.000
36.65000 185.000
36.66500 186.000
36.68000 192.000
36.69500 205.000
36.71000 189.000
36.72500 208.000
36.74000 208.000
36.75500 178.000
36.77000 188.000
36.78500 183.000
36.80000 197.000
36.81500 224.000
36.83000 188.000
36.84500 193.000
36.86000 191.000
36.87500 194.000
36.89000 191.000
36.90500 196.000
36.92000 173.000
36.93500 163.000
36.95000 185.000
36.96500 193.000
36.98000 185.000
36.99500 202.000
37.01000 187.000
37.02500 178.000
37.04000 190.000
37.05500 190.000
37.07000 194.000
37.08500 193.000
37.10000 198.000
37.11500 199.000
37.13000 188.000
37.14500 173.000
37.16000 183.000
37.17500 178.000
37.19000 196.000
37.20500 182.000
37.22000 189.000
37.23500 151.000
37.25000 164.000
37.26500 186.000
37.28000 202.000
37.29500 189.000
37.31000 186.000
37.32500 194.000
37.34000 210.000
37.35500 184.000
37.37000 183.000
37.38500 177.000
37.40000 211.000
37.41500 182.000
37.43000 197.000
37.44500 188.000
37.46000 200.000
37.47500 220.000
37.49000 190.000
37.50500 184.000
37.52000 212.000
37.53500 215.000
37.55000 222.000
37.56500 201.000
37.58000 203.000
37.59500 212.000
37.61000 203.000
37.62500 198.000
37.64000 182.000
37.65500 182.000
37.67000 200.000
37.68500 188.000
37.70000 193.000
37.71500 184.000
37.73000 174.000
37.74500 167.000
37.76000 182.000
37.77500 194.000
37.79000 194.000
37.80500 164.000
37.82000 178.000
37.83500 188.000
37.85000 172.000
37.86500 179.000
37.88000 174.000
37.89500 191.000
37.91000 190.000
37.92500 164.000
37.94000 167.000
37.95500 187.000
37.97000 161.000
37.98500 168.000
38.00000 180.000
38.01500 182.000
38.03000 182.000
38.04500 181.000
38.06000 161.000
38.07500 169.000
38.09000 177.000
38.10500 168.000
38.12000 170.000
38.13500 187.000
38.15000 176.000
38.16500 166.000
38.18000 174.000
38.19500 167.000
38.21000 176.000
38.22500 182.000
38.24000 166.000
38.25500 160.000
38.27000 185.000
38.28500 192.000
38.30000 193.000
38.31500 187.000
38.33000 171.000
38.34500 187.000
38.36000 178.000
38.37500 159.000
38.39000 186.000
38.40500 184.000
38.42000 162.000
38.43500 188.000
38.45000 211.000
38.46500 182.000
38.48000 173.000
38.49500 177.000
38.51000 176.000
38.52500 185.000
38.54000 189.000
38.55500 199.000
38.57000 194.000
38.58500 221.000
38.60000 200.000
38.61500 195.000
38.63000 188.000
38.64500 190.000
38.66000 195.000
38.67500 204.000
38.69000 188.000
38.70500 191.000
38.72000 193.000
38.73500 219.000
38.75000 225.000
38.76500 247.000
38.78000 259.000
38.79500 288.000
38.81000 280.000
38.82500 312.000
38.84000 295.000
38.85500 282.000
38.87000 231.000
38.88500 236.000
38.90000 227.000
38.91500 216.000
38.93000 226.000
38.94500 210.000
38.96000 212.000
38.97500 212.000
38.99000 215.000
39.00500 196.000
39.02000 223.000
39.03500 220.000
39.05000 242.000
39.06500 215.000
39.08000 244.000
39.09500 214.000
39.11000 179.000
39.12500 176.000
39.14000 197.000
39.15500 201.000
39.17000 192.000
39.18500 196.000
39.20000 185.000
39.21500 188.000
39.23000 187.000
39.24500 178.000
39.26000 193.000
39.27500 168.000
39.29000 165.000
39.30500 177.000
39.32000 201.000
39.33500 204.000
39.35000 217.000
39.36500 213.000
39.38000 221.000
39.39500 244.000
39.41000 244.000
39.42500 216.000
39.44000 230.000
39.45500 227.000
39.47000 218.000
39.48500 217.000
39.50000 213.000
39.51500 191.000
39.53000 200.000
39.54500 197.000
39.56000 178.000
39.57500 186.000
39.59000 191.000
39.60500 180.000
39.62000 187.000
39.63500 178.000
39.65000 188.000
39.66500 177.000
39.68000 181.000
39.69500 168.000
39.71000 156.000
39.72500 178.000
39.74000 183.000
39.75500 182.000
39.77000 152.000
39.78500 172.000
39.80000 177.000
39.81500 173.000
39.83000 164.000
39.84500 168.000
39.86000 151.000
39.87500 148.000
39.89000 159.000
39.90500 149.000
39.92000 176.000
39.93500 151.000
39.95000 143.000
39.96500 199.000
39.98000 173.000
39.99500 160.000
40.01000 154.000
40.02500 148.000
40.04000 149.000
40.05500 171.000
40.07000 155.000
40.08500 151.000
40.10000 180.000
40.11500 169.000
40.13000 158.000
40.14500 170.000
40.16000 167.000
40.17500 162.000
40.19000 152.000
40.20500 168.000
40.22000 158.000
40.23500 153.000
40.25000 154.000
40.26500 149.000
40.28000 153.000
40.29500 149.000
40.31000 151.000
40.32500 152.000
40.34000 153.000
40.35500 152.000
40.37000 143.000
40.38500 171.000
40.40000 162.000
40.41500 167.000
40.43000 164.000
40.44500 195.000
40.46000 196.000
40.47500 196.000
40.49000 204.000
40.50500 201.000
40.52000 198.000
40.53500 201.000
40.55000 191.000
40.56500 185.000
40.58000 170.000
40.59500 150.000
40.61000 186.000
40.62500 157.000
40.64000 154.000
40.65500 165.000
40.67000 157.000
40.68500 133.000
40.70000 184.000
40.71500 173.000
40.73000 175.000
40.74500 165.000
40.76000 171.000
40.77500 211.000
40.79000 212.000
40.80500 230.000
40.82000 224.000
40.83500 216.000
40.85000 200.000
40.86500 197.000
40.88000 199.000
40.89500 173.000
40.91000 179.000
40.92500 168.000
40.94000 155.000
40.95500 152.000
40.97000 163.000
40.98500 156.000
41.00000 164.000
41.01500 155.000
41.03000 151.000
41.04500 141.000
41.06000 146.000
41.07500 147.000
41.09000 159.000
41.10500 169.000
41.12000 158.000
41.13500 161.000
41.15000 155.000
41.16500 138.000
41.18000 145.000
41.19500 155.000
41.21000 141.000
41.22500 177.000
41.24000 153.000
41.25500 148.000
41.27000 145.000
41.28500 149.000
41.30000 150.000
41.31500 153.000
41.33000 160.000
41.34500 161.000
41.36000 149.000
41.37500 158.000
41.39000 160.000
41.40500 157.000
41.42000 145.000
41.43500 156.000
41.45000 170.000
41.46500 158.000
41.48000 147.000
41.49500 141.000
41.51000 145.000
41.52500 157.000
41.54000 154.000
41.55500 157.000
41.57000 158.000
41.58500 169.000
41.60000 174.000
41.61500 159.000
41.63000 145.000
41.64500 153.000
41.66000 145.000
41.67500 148.000
41.69000 146.000
41.70500 151.000
41.72000 139.000
41.73500 151.000
41.75000 167.000
41.76500 174.000
41.78000 159.000
41.79500 168.000
41.81000 158.000
41.82500 171.000
41.84000 185.000
41.85500 156.000
41.87000 163.000
41.88500 166.000
41.90000 167.000
41.91500 160.000
41.93000 158.000
41.94500 162.000
41.96000 168.000
41.97500 173.000
41.99000 154.000
42.00500 156.000
42.02000 154.000
42.03500 159.000
42.05000 143.000
42.06500 147.000
42.08000 146.000
42.09500 165.000
42.11000 164.000
42.12500 176.000
42.14000 190.000
42.15500 166.000
42.17000 160.000
42.18500 173.000
42.20000 168.000
42.21500 182.000
42.23000 204.000
42.24500 196.000
42.26000 186.000
42.27500 181.000
42.29000 203.000
42.30500 172.000
42.32000 169.000
42.33500 171.000
42.35000 177.000
42.36500 183.000
42.38000 181.000
42.39500 163.000
42.41000 167.000
42.42500 165.000
42.44000 174.000
42.45500 188.000
42.47000 178.000
42.48500 182.000
42.50000 163.000
42.51500 165.000
42.53000 175.000
42.54500 165.000
42.56000 192.000
42.57500 172.000
42.59000 172.000
42.60500 173.000
42.62000 170.000
42.63500 156.000
42.65000 184.000
42.66500 192.000
42.68000 161.000
42.69500 169.000
42.71000 193.000
42.72500 156.000
42.74000 175.000
42.75500 171.000
42.77000 167.000
42.78500 172.000
42.80000 171.000
42.81500 175.000
42.83000 151.000
42.84500 167.000
42.86000 170.000
42.87500 151.000
42.89000 178.000
42.90500 179.000
42.92000 151.000
42.93500 164.000
42.95000 162.000
42.96500 167.000
42.98000 180.000
42.99500 168.000
43.01000 179.000
43.02500 185.000
43.04000 172.000
43.05500 164.000
43.07000 161.000
43.08500 177.000
43.10000 170.000
43.11500 172.000
43.13000 175.000
43.14500 186.000
43.16000 176.000
43.17500 195.000
43.19000 181.000
43.20500 172.000
43.22000 176.000
43.23500 191.000
43.25000 171.000
43.26500 178.000
43.28000 183.000
43.29500 177.000
43.31000 189.000
43.32500 196.000
43.34000 206.000
43.35500 182.000
43.37000 176.000
43.38500 196.000
43.40000 172.000
43.41500 153.000
43.43000 147.000
43.44500 144.000
43.46000 164.000
43.47500 154.000
43.49000 149.000
43.50500 156.000
43.52000 158.000
43.53500 150.000
43.55000 153.000
43.56500 133.000
43.58000 138.000
43.59500 149.000
43.61000 152.000
43.62500 161.000
43.64000 157.000
43.65500 138.000
43.67000 136.000
43.68500 140.000
43.70000 162.000
43.71500 160.000
43.73000 149.000
43.74500 144.000
43.76000 149.000
43.77500 151.000
43.79000 145.000
43.80500 134.000
43.82000 149.000
43.83500 165.000
43.85000 161.000
43.86500 168.000
43.88000 168.000
43.89500 150.000
43.91000 125.000
43.92500 164.000
43.94000 133.000
43.95500 130.000
43.97000 169.000
43.98500 153.000
44.00000 148.000
44.01500 140.000
44.03000 131.000
44.04500 152.000
44.06000 150.000
44.07500 148.000
44.09000 133.000
44.10500 167.000
44.12000 161.000
44.13500 144.000
44.15000 150.000
44.16500 178.000
44.18000 162.000
44.19500 162.000
44.21000 157.000
44.22500 155.000
44.24000 169.000
44.25500 170.000
44.27000 157.000
44.28500 142.000
44.30000 170.000
44.31500 150.000
44.33000 130.000
44.34500 150.000
44.36000 150.000
44.37500 143.000
44.39000 145.000
44.40500 140.000
44.42000 148.000
44.43500 151.000
44.45000 163.000
44.46500 144.000
44.48000 159.000
44.49500 151.000
44.51000 153.000
44.52500 152.000
44.54000 163.000
44.55500 157.000
44.57000 146.000
44.58500 155.000
44.60000 154.000
44.61500 136.000
44.63000 165.000
44.64500 175.000
44.66000 191.000
44.67500 164.000
44.69000 183.000
44.70500 155.000
44.72000 165.000
44.73500 157.000
44.75000 167.000
44.76500 164.000
44.78000 151.000
44.79500 159.000
44.81000 163.000
44.82500 152.000
44.84000 170.000
44.85500 150.000
44.87000 156.000
44.88500 166.000
44.90000 156.000
44.91500 171.000
44.93000 164.000
44.94500 156.000
44.96000 166.000
44.97500 154.000
44.99000 144.000
45.00500 165.000
45.02000 176.000
45.03500 180.000
45.05000 172.000
45.06500 156.000
45.08000 156.000
45.09500 166.000
45.11000 164.000
45.12500 155.000
45.14000 150.000
45.15500 153.000
45.17000 138.000
45.18500 140.000
45.20000 151.000
45.21500 154.000
45.23000 138.000
45.24500 138.000
45.26000 139.000
45.27500 157.000
45.29000 160.000
45.30500 154.000
45.32000 143.000
45.33500 146.000
45.35000 166.000
45.36500 161.000
45.38000 166.000
45.39500 168.000
45.41000 175.000
45.42500 171.000
45.44000 167.000
45.45500 176.000
45.47000 188.000
45.48500 187.000
45.50000 194.000
45.51500 174.000
45.53000 164.000
45.54500 149.000
45.56000 153.000
45.57500 156.000
45.59000 151.000
45.60500 150.000
45.62000 156.000
45.63500 152.000
45.65000 152.000
45.66500 142.000
45.68000 137.000
45.69500 139.000
45.71000 140.000
45.72500 151.000
45.74000 158.000
45.75500 164.000
45.77000 146.000
45.78500 161.000
45.80000 149.000
45.81500 152.000
45.83000 162.000
45.84500 168.000
45.86000 152.000
45.87500 125.000
45.89000 138.000
45.90500 134.000
45.92000 166.000
45.93500 159.000
45.95000 140.000
45.96500 137.000
45.98000 141.000
45.99500 147.000
46.01000 150.000
46.02500 127.000
46.04000 130.000
46.05500 131.000
46.07000 141.000
46.08500 148.000
46.10000 154.000
46.11500 131.000
46.13000 131.000
46.14500 136.000
46.16000 144.000
46.17500 161.000
46.19000 169.000
46.20500 142.000
46.22000 141.000
46.23500 163.000
46.25000 157.000
46.26500 147.000
46.28000 169.000
46.29500 167.000
46.31000 140.000
46.32500 139.000
46.34000 131.000
46.35500 152.000
46.37000 138.000
46.38500 140.000
46.40000 132.000
46.41500 131.000
46.43000 141.000
46.44500 127.000
46.46000 118.000
46.47500 130.000
46.49000 128.000
46.50500 138.000
46.52000 132.000
46.53500 129.000
46.55000 124.000
46.56500 123.000
46.58000 137.000
46.59500 127.000
46.61000 128.000
46.62500 119.000
46.64000 127.000
46.65500 115.000
46.67000 128.000
46.68500 136.000
46.70000 135.000
46.71500 137.000
46.73000 136.000
46.74500 145.000
46.76000 143.000
46.77500 146.000
46.79000 133.000
46.80500 156.000
46.82000 145.000
46.83500 133.000
46.85000 142.000
46.86500 141.000
46.88000 139.000
46.89500 149.000
46.91000 131.000
46.92500 141.000
46.94000 132.000
46.95500 135.000
46.97000 140.000
46.98500 166.000
47.00000 170.000
47.01500 155.000
47.03000 158.000
47.04500 186.000
47.06000 186.000
47.07500 176.000
47.09000 152.000
47.10500 143.000
47.12000 165.000
47.13500 172.000
47.15000 161.000
47.16500 151.000
47.18000 131.000
47.19500 137.000
47.21000 130.000
47.22500 139.000
47.24000 144.000
47.25500 117.000
47.27000 133.000
47.28500 127.000
47.30000 124.000
47.31500 127.000
47.33000 130.000
47.34500 125.000
47.36000 127.000
47.37500 141.000
47.39000 135.000
47.40500 136.000
47.42000 127.000
47.43500 129.000
47.45000 132.000
47.46500 145.000
47.48000 142.000
47.49500 145.000
47.51000 170.000
47.52500 164.000
47.54000 151.000
47.55500 140.000
47.57000 147.000
47.58500 157.000
47.60000 148.000
47.61500 136.000
47.63000 141.000
47.64500 128.000
47.66000 152.000
47.67500 143.000
47.69000 156.000
47.70500 157.000
47.72000 155.000
47.73500 151.000
47.75000 154.000
47.76500 147.000
47.78000 133.000
47.79500 163.000
47.81000 143.000
47.82500 152.000
47.84000 148.000
47.85500 149.000
47.87000 149.000
47.88500 153.000
47.90000 179.000
47.91500 158.000
47.93000 160.000
47.94500 172.000
47.96000 159.000
47.97500 164.000
47.99000 148.000
48.00500 148.000
48.02000 150.000
48.03500 129.000
48.05000 119.000
48.06500 134.000
48.08000 141.000
48.09500 142.000
48.11000 144.000
48.12500 117.000
48.14000 136.000
48.15500 147.000
48.17000 139.000
48.18500 146.000
48.20000 131.000
48.21500 146.000
48.23000 137.000
48.24500 130.000
48.26000 138.000
48.27500 142.000
48.29000 137.000
48.30500 131.000
48.32000 121.000
48.33500 138.000
48.35000 135.000
48.36500 140.000
48.38000 151.000
48.39500 134.000
48.41000 150.000
48.42500 154.000
48.44000 149.000
48.45500 160.000
48.47000 159.000
48.48500 151.000
48.50000 150.000
48.51500 145.000
48.53000 146.000
48.54500 152.000
48.56000 144.000
48.57500 153.000
48.59000 144.000
48.60500 135.000
48.62000 122.000
48.63500 144.000
48.65000 152.000
48.66500 138.000
48.68000 128.000
48.69500 133.000
48.71000 133.000
48.72500 140.000
48.74000 136.000
48.75500 112.000
48.77000 134.000
48.78500 137.000
48.80000 126.000
48.81500 134.000
48.83000 119.000
48.84500 127.000
48.86000 145.000
48.87500 136.000
48.89000 144.000
48.90500 141.000
48.92000 135.000
48.93500 135.000
48.95000 138.000
48.96500 146.000
48.98000 144.000
48.99500 143.000
49.01000 135.000
49.02500 159.000
49.04000 148.000
49.05500 137.000
49.07000 149.000
49.08500 155.000
49.10000 157.000
49.11500 147.000
49.13000 160.000
49.14500 155.000
49.16000 139.000
49.17500 145.000
49.19000 140.000
49.20500 131.000
49.22000 167.000
49.23500 150.000
49.25000 132.000
49.26500 147.000
49.28000 143.000
49.29500 147.000
49.31000 148.000
49.32500 139.000
49.34000 131.000
49.35500 133.000
49.37000 136.000
49.38500 139.000
49.40000 136.000
49.41500 139.000
49.43000 129.000
49.44500 140.000
49.46000 149.000
49.47500 140.000
49.49000 145.000
49.50500 160.000
49.52000 129.000
49.53500 120.000
49.55000 130.000
49.56500 133.000
49.58000 147.000
49.59500 129.000
49.61000 133.000
49.62500 130.000
49.64000 122.000
49.65500 117.000
49.67000 120.000
49.68500 133.000
49.70000 124.000
49.71500 131.000
49.73000 136.000
49.74500 128.000
49.76000 124.000
49.77500 130.000
49.79000 136.000
49.80500 142.000
49.82000 140.000
49.83500 154.000
49.85000 154.000
49.86500 148.000
49.88000 141.000
49.89500 134.000
49.91000 133.000
49.92500 148.000
49.94000 136.000
49.95500 135.000
49.97000 141.000
49.98500 140.000
50.00000 147.000
50.01500 146.000
50.03000 129.000
50.04500 115.000
50.06000 139.000
50.07500 154.000
50.09000 154.000
50.10500 138.000
50.12000 163.000
50.13500 165.000
50.15000 144.000
50.16500 131.000
50.18000 135.000
50.19500 136.000
50.21000 116.000
50.22500 131.000
50.24000 135.000
50.25500 119.000
50.27000 124.000
50.28500 130.000
50.30000 124.000
50.31500 132.000
50.33000 122.000
50.34500 152.000
50.36000 148.000
50.37500 133.000
50.39000 138.000
50.40500 148.000
50.42000 138.000
50.43500 134.000
50.45000 141.000
50.46500 139.000
50.48000 131.000
50.49500 137.000
50.51000 146.000
50.52500 142.000
50.54000 129.000
50.55500 144.000
50.57000 126.000
50.58500 143.000
50.60000 151.000
50.61500 142.000
50.63000 129.000
50.64500 131.000
50.66000 148.000
50.67500 151.000
50.69000 146.000
50.70500 154.000
50.72000 133.000
50.73500 138.000
50.75000 134.000
50.76500 145.000
50.78000 146.000
50.79500 145.000
50.81000 131.000
50.82500 130.000
50.84000 116.000
50.85500 137.000
50.87000 117.000
50.88500 114.000
50.90000 115.000
50.91500 104.000
50.93000 109.000
50.94500 129.000
50.96000 136.000
50.97500 122.000
50.99000 113.000
51.00500 118.000
51.02000 108.000
51.03500 123.000
51.05000 114.000
51.06500 127.000
51.08000 122.000
51.09500 125.000
51.11000 131.000
51.12500 132.000
51.14000 123.000
51.15500 131.000
51.17000 143.000
51.18500 130.000
51.20000 126.000
51.21500 139.000
51.23000 128.000
51.24500 119.000
51.26000 127.000
51.27500 132.000
51.29000 165.000
51.30500 132.000
51.32000 137.000
51.33500 131.000
51.35000 136.000
51.36500 122.000
51.38000 122.000
51.39500 128.000
51.41000 122.000
51.42500 125.000
51.44000 144.000
51.45500 136.000
51.47000 134.000
51.48500 123.000
51.50000 127.000
51.51500 148.000
51.53000 146.000
51.54500 146.000
51.56000 126.000
51.57500 120.000
51.59000 128.000
51.60500 136.000
51.62000 129.000
51.63500 136.000
51.65000 156.000
51.66500 137.000
51.68000 144.000
51.69500 142.000
51.71000 138.000
51.72500 109.000
51.74000 134.000
51.75500 128.000
51.77000 122.000
51.78500 119.000
51.80000 119.000
51.81500 134.000
51.83000 137.000
51.84500 118.000
51.86000 120.000
51.87500 124.000
51.89000 125.000
51.90500 135.000
51.92000 127.000
51.93500 125.000
51.95000 124.000
51.96500 118.000
51.98000 134.000
51.99500 135.000
52.01000 128.000
52.02500 132.000
52.04000 128.000
52.05500 157.000
52.07000 132.000
52.08500 139.000
52.10000 139.000
52.11500 135.000
52.13000 123.000
52.14500 130.000
52.16000 154.000
52.17500 150.000
52.19000 143.000
52.20500 130.000
52.22000 143.000
52.23500 151.000
52.25000 160.000
52.26500 177.000
52.28000 161.000
52.29500 162.000
52.31000 160.000
52.32500 138.000
52.34000 159.000
52.35500 161.000
52.37000 147.000
52.38500 143.000
52.40000 143.000
52.41500 136.000
52.43000 150.000
52.44500 142.000
52.46000 144.000
52.47500 142.000
52.49000 132.000
52.50500 127.000
52.52000 132.000
52.53500 141.000
52.55000 142.000
52.56500 135.000
52.58000 127.000
52.59500 147.000
52.61000 134.000
52.62500 127.000
52.64000 124.000
52.65500 129.000
52.67000 114.000
52.68500 125.000
52.70000 120.000
52.71500 142.000
52.73000 134.000
52.74500 134.000
52.76000 150.000
52.77500 120.000
52.79000 137.000
52.80500 136.000
52.82000 141.000
52.83500 161.000
52.85000 133.000
52.86500 150.000
52.88000 154.000
52.89500 159.000
52.91000 149.000
52.92500 146.000
52.94000 153.000
52.95500 166.000
52.97000 162.000
52.98500 161.000
53.00000 150.000
53.01500 134.000
53.03000 138.000
53.04500 135.000
53.06000 143.000
53.07500 140.000
53.09000 139.000
53.10500 121.000
53.12000 108.000
53.13500 143.000
53.15000 159.000
53.16500 129.000
53.18000 121.000
53.19500 136.000
53.21000 131.000
53.22500 136.000
53.24000 140.000
53.25500 130.000
53.27000 138.000
53.28500 146.000
53.30000 147.000
53.31500 151.000
53.33000 148.000
53.34500 161.000
53.36000 156.000
53.37500 162.000
53.39000 156.000
53.40500 168.000
53.42000 166.000
53.43500 142.000
53.45000 132.000
53.46500 139.000
53.48000 147.000
53.49500 150.000
53.51000 144.000
53.52500 159.000
53.54000 151.000
53.55500 142.000
53.57000 134.000
53.58500 149.000
53.60000 137.000
53.61500 145.000
53.63000 137.000
53.64500 130.000
53.66000 122.000
53.67500 120.000
53.69000 138.000
53.70500 131.000
53.72000 149.000
53.73500 143.000
53.75000 136.000
53.76500 124.000
53.78000 163.000
53.79500 147.000
53.81000 144.000
53.82500 143.000
53.84000 166.000
53.85500 144.000
53.87000 136.000
53.88500 145.000
53.90000 158.000
53.91500 179.000
53.93000 177.000
53.94500 176.000
53.96000 179.000
53.97500 177.000
53.99000 181.000
54.00500 172.000
54.02000 169.000
54.03500 165.000
54.05000 162.000
54.06500 153.000
54.08000 161.000
54.09500 150.000
54.11000 157.000
54.12500 164.000
54.14000 153.000
54.15500 157.000
54.17000 151.000
54.18500 156.000
54.20000 151.000
54.21500 161.000
54.23000 143.000
54.24500 133.000
54.26000 125.000
54.27500 138.000
54.29000 148.000
54.30500 132.000
54.32000 138.000
54.33500 137.000
54.35000 127.000
54.36500 129.000
54.38000 128.000
54.39500 129.000
54.41000 130.000
54.42500 127.000
54.44000 124.000
54.45500 117.000
54.47000 137.000
54.48500 136.000
54.50000 133.000
54.51500 139.000
54.53000 140.000
54.54500 151.000
54.56000 144.000
54.57500 140.000
54.59000 134.000
54.60500 128.000
54.62000 130.000
54.63500 135.000
54.65000 137.000
54.66500 120.000
54.68000 138.000
54.69500 136.000
54.71000 126.000
54.72500 147.000
54.74000 143.000
54.75500 145.000
54.77000 133.000
54.78500 162.000
54.80000 143.000
54.81500 151.000
54.83000 137.000
54.84500 137.000
54.86000 125.000
54.87500 128.000
54.89000 134.000
54.90500 126.000
54.92000 132.000
54.93500 127.000
54.95000 126.000
54.96500 124.000
54.98000 121.000
54.99500 134.000
55.01000 143.000
55.02500 128.000
55.04000 138.000
55.05500 132.000
55.07000 150.000
55.08500 149.000
55.10000 134.000
55.11500 144.000
55.13000 136.000
55.14500 127.000
55.16000 129.000
55.17500 131.000
55.19000 128.000
55.20500 127.000
55.22000 115.000
55.23500 113.000
55.25000 119.000
55.26500 126.000
55.28000 133.000
55.29500 135.000
55.31000 139.000
55.32500 133.000
55.34000 116.000
55.35500 126.000
55.37000 131.000
55.38500 136.000
55.40000 129.000
55.41500 109.000
55.43000 108.000
55.44500 111.000
55.46000 124.000
55.47500 130.000
55.49000 132.000
55.50500 136.000
55.52000 135.000
55.53500 132.000
55.55000 133.000
55.56500 121.000
55.58000 137.000
55.59500 132.000
55.61000 143.000
55.62500 147.000
55.64000 128.000
55.65500 151.000
55.67000 159.000
55.68500 151.000
55.70000 162.000
55.71500 168.000
55.73000 173.000
55.74500 166.000
55.76000 145.000
55.77500 125.000
55.79000 120.000
55.80500 144.000
55.82000 145.000
55.83500 124.000
55.85000 127.000
55.86500 124.000
55.88000 138.000
55.89500 139.000
55.91000 107.000
55.92500 122.000
55.94000 116.000
55.95500 121.000
55.97000 130.000
55.98500 125.000
56.00000 128.000
56.01500 134.000
56.03000 134.000
56.04500 139.000
56.06000 130.000
56.07500 141.000
56.09000 131.000
56.10500 134.000
56.12000 147.000
56.13500 139.000
56.15000 122.000
56.16500 119.000
56.18000 114.000
56.19500 120.000
56.21000 130.000
56.22500 112.000
56.24000 137.000
56.25500 124.000
56.27000 112.000
56.28500 116.000
56.30000 106.000
56.31500 113.000
56.33000 115.000
56.34500 131.000
56.36000 140.000
56.37500 119.000
56.39000 125.000
56.40500 113.000
56.42000 122.000
56.43500 132.000
56.45000 122.000
56.46500 111.000
56.48000 114.000
56.49500 126.000
56.51000 115.000
56.52500 110.000
56.54000 115.000
56.55500 130.000
56.57000 138.000
56.58500 133.000
56.60000 129.000
56.61500 124.000
56.63000 125.000
56.64500 121.000
56.66000 123.000
56.67500 119.000
56.69000 134.000
56.70500 119.000
56.72000 131.000
56.73500 146.000
56.75000 113.000
56.76500 125.000
56.78000 109.000
56.79500 124.000
56.81000 129.000
56.82500 125.000
56.84000 120.000
56.85500 117.000
56.87000 112.000
56.88500 133.000
56.90000 131.000
56.91500 117.000
56.93000 118.000
56.94500 127.000
56.96000 123.000
56.97500 116.000
56.99000 120.000
57.00500 131.000
57.02000 128.000
57.03500 114.000
57.05000 127.000
57.06500 121.000
57.08000 137.000
57.09500 103.000
57.11000 134.000
57.12500 107.000
57.14000 119.000
57.15500 143.000
57.17000 134.000
57.18500 129.000
57.20000 124.000
57.21500 117.000
57.23000 120.000
57.24500 127.000
57.26000 122.000
57.27500 126.000
57.29000 118.000
57.30500 115.000
57.32000 99.000
57.33500 129.000
57.35000 119.000
57.36500 140.000
57.38000 124.000
57.39500 119.000
57.41000 123.000
57.42500 126.000
57.44000 143.000
57.45500 140.000
57.47000 130.000
57.48500 127.000
57.50000 122.000
57.51500 128.000
57.53000 121.000
57.54500 139.000
57.56000 117.000
57.57500 143.000
57.59000 127.000
57.60500 128.000
57.62000 134.000
57.63500 139.000
57.65000 139.000
57.66500 128.000
57.68000 126.000
57.69500 118.000
57.71000 138.000
57.72500 131.000
57.74000 124.000
57.75500 132.000
57.77000 145.000
57.78500 136.000
57.80000 127.000
57.81500 138.000
57.83000 145.000
57.84500 133.000
57.86000 136.000
57.87500 122.000
57.89000 115.000
57.90500 122.000
57.92000 143.000
57.93500 146.000
57.95000 124.000
57.96500 134.000
57.98000 113.000
57.99500 127.000
58.01000 143.000
58.02500 144.000
58.04000 153.000
58.05500 148.000
58.07000 143.000
58.08500 150.000
58.10000 168.000
58.11500 141.000
58.13000 138.000
58.14500 136.000
58.16000 136.000
58.17500 154.000
58.19000 135.000
58.20500 136.000
58.22000 145.000
58.23500 147.000
58.25000 142.000
58.26500 125.000
58.28000 138.000
58.29500 138.000
58.31000 125.000
58.32500 140.000
58.34000 135.000
58.35500 137.000
58.37000 130.000
58.38500 135.000
58.40000 134.000
58.41500 139.000
58.43000 140.000
58.44500 142.000
58.46000 131.000
58.47500 141.000
58.49000 146.000
58.50500 142.000
58.52000 135.000
58.53500 132.000
58.55000 126.000
58.56500 122.000
58.58000 122.000
58.59500 127.000
58.61000 141.000
58.62500 134.000
58.64000 135.000
58.65500 158.000
58.67000 168.000
58.68500 137.000
58.70000 128.000
58.71500 127.000
58.73000 141.000
58.74500 126.000
58.76000 113.000
58.77500 100.000
58.79000 104.000
58.80500 117.000
58.82000 106.000
58.83500 128.000
58.85000 102.000
58.86500 107.000
58.88000 113.000
58.89500 106.000
58.91000 111.000
58.92500 125.000
58.94000 127.000
58.95500 126.000
58.97000 109.000
58.98500 100.000
59.00000 125.000
59.01500 115.000
59.03000 135.000
59.04500 116.000
59.06000 125.000
59.07500 105.000
59.09000 117.000
59.10500 95.000
59.12000 102.000
59.13500 124.000
59.15000 116.000
59.16500 106.000
59.18000 121.000
59.19500 119.000
59.21000 125.000
59.22500 117.000
59.24000 105.000
59.25500 123.000
59.27000 111.000
59.28500 101.000
59.30000 110.000
59.31500 116.000
59.33000 108.000
59.34500 130.000
59.36000 114.000
59.37500 107.000
59.39000 114.000
59.40500 131.000
59.42000 121.000
59.43500 111.000
59.45000 97.000
59.46500 99.000
59.48000 101.000
59.49500 106.000
59.51000 109.000
59.52500 123.000
59.54000 116.000
59.55500 112.000
59.57000 113.000
59.58500 121.000
59.60000 111.000
59.61500 99.000
59.63000 108.000
59.64500 100.000
59.66000 106.000
59.67500 104.000
59.69000 106.000
59.70500 101.000
59.72000 118.000
59.73500 116.000
59.75000 112.000
59.76500 108.000
59.78000 109.000
59.79500 107.000
59.81000 110.000
59.82500 114.000
59.84000 128.000
59.85500 127.000
59.87000 112.000
59.88500 121.000
59.90000 106.000
59.91500 123.000
59.93000 118.000
59.94500 135.000
59.96000 114.000
59.97500 99.000
59.99000 94.000
60.00500 112.000
60.02000 101.000
60.03500 96.000
60.05000 119.000
60.06500 126.000
60.08000 120.000
60.09500 96.000
60.11000 117.000
60.12500 109.000
60.14000 101.000
60.15500 118.000
60.17000 116.000
60.18500 103.000
60.20000 106.000
60.21500 100.000
60.23000 114.000
60.24500 110.000
60.26000 119.000
60.27500 113.000
60.29000 119.000
60.30500 110.000
60.32000 114.000
60.33500 113.000
60.35000 112.000
60.36500 93.000
60.38000 98.000
60.39500 117.000
60.41000 117.000
60.42500 115.000
60.44000 101.000
60.45500 105.000
60.47000 118.000
60.48500 114.000
60.50000 103.000
60.51500 98.000
60.53000 103.000
60.54500 112.000
60.56000 102.000
60.57500 98.000
60.59000 119.000
60.60500 104.000
60.62000 112.000
60.63500 118.000
60.65000 107.000
60.66500 106.000
60.68000 108.000
60.69500 97.000
60.71000 93.000
60.72500 116.000
60.74000 93.000
60.75500 99.000
60.77000 109.000
60.78500 100.000
60.80000 105.000
60.81500 109.000
60.83000 104.000
60.84500 113.000
60.86000 98.000
60.87500 91.000
60.89000 105.000
60.90500 111.000
60.92000 106.000
60.93500 104.000
60.95000 100.000
60.96500 104.000
60.98000 106.000
60.99500 104.000
61.01000 114.000
61.02500 112.000
61.04000 105.000
61.05500 113.000
61.07000 110.000
61.08500 103.000
61.10000 108.000
61.11500 111.000
61.13000 100.000
61.14500 86.000
61.16000 93.000
61.17500 111.000
61.19000 112.000
61.20500 102.000
61.22000 100.000
61.23500 118.000
61.25000 114.000
61.26500 82.000
61.28000 88.000
61.29500 99.000
61.31000 94.000
61.32500 109.000
61.34000 103.000
61.35500 100.000
61.37000 102.000
61.38500 106.000
61.40000 107.000
61.41500 107.000
61.43000 108.000
61.44500 105.000
61.46000 106.000
61.47500 111.000
61.49000 112.000
61.50500 112.000
61.52000 92.000
61.53500 94.000
61.55000 103.000
61.56500 96.000
61.58000 118.000
61.59500 135.000
61.61000 116.000
61.62500 95.000
61.64000 104.000
61.65500 109.000
61.67000 95.000
61.68500 95.000
61.70000 99.000
61.71500 85.000
61.73000 104.000
61.74500 91.000
61.76000 100.000
61.77500 97.000
61.79000 100.000
61.80500 116.000
61.82000 116.000
61.83500 106.000
61.85000 94.000
61.86500 93.000
61.88000 115.000
61.89500 113.000
61.91000 107.000
61.92500 110.000
61.94000 100.000
61.95500 106.000
61.97000 111.000
61.98500 107.000
