2.00000 6.000
2.01500 9.000
2.03000 5.000
2.04500 2.000
2.06000 4.000
2.07500 7.000
2.09000 4.000
2.10500 2.000
2.12000 5.000
2.13500 6.000
2.15000 2.000
2.16500 3.000
2.18000 8.000
2.19500 9.000
2.21000 3.000
2.22500 3.000
2.24000 8.000
2.25500 5.000
2.27000 5.000
2.28500 5.000
2.30000 5.000
2.31500 3.000
2.33000 4.000
2.34500 3.000
2.36000 2.000
2.37500 3.000
2.39000 4.000
2.40500 4.000
2.42000 6.000
2.43500 6.000
2.45000 3.000
2.46500 6.000
2.48000 5.000
2.49500 4.000
2.51000 2.000
2.52500 8.000
2.54000 8.000
2.55500 5.000
2.57000 3.000
2.58500 2.000
2.60000 4.000
2.61500 3.000
2.63000 5.000
2.64500 4.000
2.66000 5.000
2.67500 6.000
2.69000 2.000
2.70500 1.000
2.72000 4.000
2.73500 3.000
2.75000 2.000
2.76500 4.000
2.78000 5.000
2.79500 3.000
2.81000 1.000
2.82500 3.000
2.84000 3.000
2.85500 8.000
2.87000 3.000
2.88500 4.000
2.90000 5.000
2.91500 3.000
2.93000 3.000
2.94500 4.000
2.96000 2.000
2.97500 5.000
2.99000 5.000
3.00500 5.000
3.02000 4.000
3.03500 3.000
3.05000 4.000
3.06500 3.000
3.08000 2.000
3.09500 1.000
3.11000 1.000
3.12500 5.000
3.14000 9.000
3.15500 12.000
3.17000 13.000
3.18500 11.000
3.20000 23.000
3.21500 31.000
3.23000 51.000
3.24500 93.000
3.26000 127.000
3.27500 165.000
3.29000 203.000
3.30500 296.000
3.32000 332.000
3.33500 364.000
3.35000 384.000
3.36500 392.000
3.38000 393.000
3.39500 410.000
3.41000 446.000
3.42500 431.000
3.44000 412.000
3.45500 389.000
3.47000 410.000
3.48500 424.000
3.50000 406.000
3.51500 396.000
3.53000 366.000
3.54500 413.000
3.56000 402.000
3.57500 377.000
3.59000 397.000
3.60500 390.000
3.62000 381.000
3.63500 404.000
3.65000 405.000
3.66500 389.000
3.68000 376.000
3.69500 370.000
3.71000 379.000
3.72500 373.000
3.74000 358.000
3.75500 347.000
3.77000 384.000
3.78500 357.000
3.80000 361.000
3.81500 322.000
3.83000 331.000
3.84500 355.000
3.86000 360.000
3.87500 358.000
3.89000 351.000
3.90500 316.000
3.92000 355.000
3.93500 350.000
3.95000 324.000
3.96500 334.000
3.98000 347.000
3.99500 327.000
4.01000 317.000
4.02500 319.000
4.04000 336.000
4.05500 337.000
4.07000 318.000
4.08500 321.000
4.10000 315.000
4.11500 338.000
4.13000 330.000
4.14500 346.000
4.16000 320.000
4.17500 334.000
4.19000 353.000
4.20500 320.000
4.22000 311.000
4.23500 320.000
4.25000 327.000
4.26500 337.000
4.28000 299.000
4.29500 287.000
4.31000 306.000
4.32500 320.000
4.34000 340.000
4.35500 322.000
4.37000 309.000
4.38500 309.000
4.40000 322.000
4.41500 290.000
4.43000 298.000
4.44500 304.000
4.46000 299.000
4.47500 320.000
4.49000 348.000
4.50500 333.000
4.52000 339.000
4.53500 314.000
4.55000 302.000
4.56500 306.000
4.58000 320.000
4.59500 318.000
4.61000 302.000
4.62500 341.000
4.64000 316.000
4.65500 309.000
4.67000 318.000
4.68500 302.000
4.70000 338.000
4.71500 328.000
4.73000 306.000
4.74500 320.000
4.76000 328.000
4.77500 319.000
4.79000 316.000
4.80500 323.000
4.82000 316.000
4.83500 314.000
4.85000 301.000
4.86500 295.000
4.88000 309.000
4.89500 290.000
4.91000 294.000
4.92500 314.000
4.94000 300.000
4.95500 290.000
4.97000 296.000
4.98500 339.000
5.00000 328.000
5.01500 316.000
5.03000 327.000
5.04500 320.000
5.06000 296.000
5.07500 313.000
5.09000 298.000
5.10500 316.000
5.12000 312.000
5.13500 305.000
5.15000 326.000
5.16500 311.000
5.18000 311.000
5.19500 333.000
5.21000 327.000
5.22500 319.000
5.24000 288.000
5.25500 323.000
5.27000 315.000
5.28500 315.000
5.30000 333.000
5.31500 317.000
5.33000 294.000
5.34500 303.000
5.36000 315.000
5.37500 314.000
5.39000 313.000
5.40500 328.000
5.42000 309.000
5.43500 309.000
5.45000 315.000
5.46500 316.000
5.48000 321.000
5.49500 321.000
5.51000 326.000
5.52500 362.000
5.54000 366.000
5.55500 369.000
5.57000 354.000
5.58500 364.000
5.60000 380.000
5.61500 380.000
5.63000 391.000
5.64500 362.000
5.66000 400.000
5.67500 396.000
5.69000 430.000
5.70500 417.000
5.72000 418.000
5.73500 419.000
5.75000 426.000
5.76500 440.000
5.78000 448.000
5.79500 450.000
5.81000 454.000
5.82500 464.000
5.84000 472.000
5.85500 517.000
5.87000 541.000
5.88500 563.000
5.90000 619.000
5.91500 627.000
5.93000 623.000
5.94500 649.000
5.96000 688.000
5.97500 725.000
5.99000 746.000
6.00500 743.000
6.02000 784.000
6.03500 829.000
6.05000 867.000
6.06500 948.000
6.08000 938.000
6.09500 1002.000
6.11000 1107.000
6.12500 1080.000
6.14000 1151.000
6.15500 1179.000
6.17000 1217.000
6.18500 1234.000
6.20000 1324.000
6.21500 1425.000
6.23000 1405.000
6.24500 1261.000
6.26000 1131.000
6.27500 1062.000
6.29000 920.000
6.30500 866.000
6.32000 798.000
6.33500 776.000
6.35000 740.000
6.36500 675.000
6.38000 622.000
6.39500 590.000
6.41000 580.000
6.42500 542.000
6.44000 523.000
6.45500 498.000
6.47000 501.000
6.48500 452.000
6.50000 432.000
6.51500 440.000
6.53000 407.000
6.54500 370.000
6.56000 384.000
6.57500 366.000
6.59000 372.000
6.60500 357.000
6.62000 341.000
6.63500 340.000
6.65000 331.000
6.66500 336.000
6.68000 361.000
6.69500 348.000
6.71000 326.000
6.72500 329.000
6.74000 328.000
6.75500 290.000
6.77000 319.000
6.78500 318.000
6.80000 329.000
6.81500 311.000
6.83000 331.000
6.84500 309.000
6.86000 303.000
6.87500 317.000
6.89000 327.000
6.90500 286.000
6.92000 329.000
6.93500 319.000
6.95000 295.000
6.96500 318.000
6.98000 292.000
6.99500 301.000
7.01000 314.000
7.02500 319.000
7.04000 325.000
7.05500 314.000
7.07000 311.000
7.08500 322.000
7.10000 340.000
7.11500 312.000
7.13000 300.000
7.14500 322.000
7.16000 318.000
7.17500 301.000
7.19000 291.000
7.20500 303.000
7.22000 324.000
7.23500 293.000
7.25000 279.000
7.26500 313.000
7.28000 320.000
7.29500 327.000
7.31000 330.000
7.32500 317.000
7.34000 301.000
7.35500 308.000
7.37000 320.000
7.38500 305.000
7.40000 291.000
7.41500 297.000
7.43000 310.000
7.44500 324.000
7.46000 316.000
7.47500 288.000
7.49000 292.000
7.50500 309.000
7.52000 310.000
7.53500 337.000
7.55000 304.000
7.56500 329.000
7.58000 317.000
7.59500 344.000
7.61000 301.000
7.62500 318.000
7.64000 317.000
7.65500 323.000
7.67000 335.000
7.68500 309.000
7.70000 315.000
7.71500 323.000
7.73000 299.000
7.74500 315.000
7.76000 325.000
7.77500 318.000
7.79000 326.000
7.80500 322.000
7.82000 319.000
7.83500 341.000
7.85000 332.000
7.86500 340.000
7.88000 323.000
7.89500 327.000
7.91000 338.000
7.92500 322.000
7.94000 325.000
7.95500 341.000
7.97000 341.000
7.98500 339.000
8.00000 333.000
8.01500 326.000
8.03000 330.000
8.04500 328.000
8.06000 366.000
8.07500 318.000
8.09000 338.000
8.10500 347.000
8.12000 330.000
8.13500 330.000
8.15000 354.000
8.16500 382.000
8.18000 352.000
8.19500 360.000
8.21000 379.000
8.22500 367.000
8.24000 322.000
8.25500 375.000
8.27000 384.000
8.28500 412.000
8.30000 391.000
8.31500 396.000
8.33000 407.000
8.34500 370.000
8.36000 382.000
8.37500 393.000
8.39000 420.000
8.40500 419.000
8.42000 444.000
8.43500 452.000
8.45000 415.000
8.46500 468.000
8.48000 468.000
8.49500 450.000
8.51000 459.000
8.52500 512.000
8.54000 485.000
8.55500 507.000
8.57000 495.000
8.58500 500.000
8.60000 498.000
8.61500 491.000
8.63000 506.000
8.64500 562.000
8.66000 530.000
8.67500 531.000
8.69000 544.000
8.70500 549.000
8.72000 515.000
8.73500 552.000
8.75000 565.000
8.76500 534.000
8.78000 525.000
8.79500 513.000
8.81000 521.000
8.82500 518.000
8.84000 485.000
8.85500 472.000
8.87000 448.000
8.88500 469.000
8.90000 474.000
8.91500 446.000
8.93000 451.000
8.94500 478.000
8.96000 447.000
8.97500 435.000
8.99000 423.000
9.00500 403.000
9.02000 391.000
9.03500 413.000
9.05000 362.000
9.06500 373.000
9.08000 374.000
9.09500 397.000
9.11000 396.000
9.12500 396.000
9.14000 363.000
9.15500 381.000
9.17000 383.000
9.18500 368.000
9.20000 348.000
9.21500 390.000
9.23000 347.000
9.24500 364.000
9.26000 361.000
9.27500 390.000
9.29000 384.000
9.30500 372.000
9.32000 368.000
9.33500 368.000
9.35000 370.000
9.36500 363.000
9.38000 378.000
9.39500 365.000
9.41000 387.000
9.42500 396.000
9.44000 385.000
9.45500 360.000
9.47000 347.000
9.48500 372.000
9.50000 382.000
9.51500 382.000
9.53000 398.000
9.54500 425.000
9.56000 408.000
9.57500 404.000
9.59000 407.000
9.60500 409.000
9.62000 395.000
9.63500 447.000
9.65000 444.000
9.66500 462.000
9.68000 458.000
9.69500 455.000
9.71000 439.000
9.72500 457.000
9.74000 475.000
9.75500 502.000
9.77000 483.000
9.78500 523.000
9.80000 495.000
9.81500 528.000
9.83000 561.000
9.84500 571.000
9.86000 576.000
9.87500 581.000
9.89000 613.000
9.90500 642.000
9.92000 642.000
9.93500 666.000
9.95000 643.000
9.96500 648.000
9.98000 734.000
9.99500 752.000
10.01000 749.000
10.02500 743.000
10.04000 766.000
10.05500 805.000
10.07000 807.000
10.08500 827.000
10.10000 821.000
10.11500 816.000
10.13000 783.000
10.14500 779.000
10.16000 847.000
10.17500 880.000
10.19000 878.000
10.20500 901.000
10.22000 935.000
10.23500 928.000
10.25000 872.000
10.26500 968.000
10.28000 953.000
10.29500 964.000
10.31000 983.000
10.32500 1048.000
10.34000 1014.000
10.35500 1004.000
10.37000 1008.000
10.38500 1083.000
10.40000 1217.000
10.41500 1271.000
10.43000 1443.000
10.44500 1581.000
10.46000 1426.000
10.47500 1071.000
10.49000 869.000
10.50500 804.000
10.52000 774.000
10.53500 816.000
10.55000 868.000
10.56500 834.000
10.58000 883.000
10.59500 936.000
10.61000 906.000
10.62500 930.000
10.64000 808.000
10.65500 742.000
10.67000 686.000
10.68500 618.000
10.70000 597.000
10.71500 598.000
10.73000 609.000
10.74500 589.000
10.76000 593.000
10.77500 574.000
10.79000 545.000
10.80500 585.000
10.82000 632.000
10.83500 624.000
10.85000 660.000
10.86500 704.000
10.88000 760.000
10.89500 789.000
10.91000 800.000
10.92500 904.000
10.94000 1017.000
10.95500 1042.000
10.97000 1096.000
10.98500 1146.000
11.00000 1236.000
11.01500 1255.000
11.03000 1127.000
11.04500 1040.000
11.06000 919.000
11.07500 741.000
11.09000 659.000
11.10500 607.000
11.12000 541.000
11.13500 504.000
11.15000 491.000
11.16500 508.000
11.18000 438.000
11.19500 409.000
11.21000 413.000
11.22500 438.000
11.24000 427.000
11.25500 381.000
11.27000 377.000
11.28500 378.000
11.30000 371.000
11.31500 374.000
11.33000 354.000
11.34500 366.000
11.36000 370.000
11.37500 373.000
11.39000 361.000
11.40500 328.000
11.42000 356.000
11.43500 378.000
11.45000 360.000
11.46500 335.000
11.48000 354.000
11.49500 346.000
11.51000 371.000
11.52500 345.000
11.54000 326.000
11.55500 354.000
11.57000 341.000
11.58500 350.000
11.60000 349.000
11.61500 340.000
11.63000 313.000
11.64500 330.000
11.66000 354.000
11.67500 348.000
11.69000 354.000
11.70500 336.000
11.72000 324.000
11.73500 344.000
11.75000 332.000
11.76500 341.000
11.78000 347.000
11.79500 325.000
11.81000 321.000
11.82500 343.000
11.84000 353.000
11.85500 363.000
11.87000 321.000
11.88500 327.000
11.90000 332.000
11.91500 340.000
11.93000 333.000
11.94500 356.000
11.96000 347.000
11.97500 344.000
11.99000 353.000
12.00500 341.000
12.02000 372.000
12.03500 378.000
12.05000 337.000
12.06500 353.000
12.08000 376.000
12.09500 352.000
12.11000 366.000
12.12500 360.000
12.14000 372.000
12.15500 385.000
12.17000 339.000
12.18500 355.000
12.20000 349.000
12.21500 376.000
12.23000 380.000
12.24500 419.000
12.26000 412.000
12.27500 418.000
12.29000 394.000
12.30500 408.000
12.32000 418.000
12.33500 395.000
12.35000 381.000
12.36500 361.000
12.38000 382.000
12.39500 395.000
12.41000 421.000
12.42500 407.000
12.44000 381.000
12.45500 421.000
12.47000 470.000
12.48500 423.000
12.50000 428.000
12.51500 464.000
12.53000 478.000
12.54500 538.000
12.56000 594.000
12.57500 555.000
12.59000 455.000
12.60500 380.000
12.62000 375.000
12.63500 368.000
12.65000 363.000
12.66500 358.000
12.68000 372.000
12.69500 388.000
12.71000 398.000
12.72500 401.000
12.74000 355.000
12.75500 353.000
12.77000 363.000
12.78500 396.000
12.80000 327.000
12.81500 340.000
12.83000 318.000
12.84500 346.000
12.86000 338.000
12.87500 339.000
12.89000 349.000
12.90500 355.000
12.92000 367.000
12.93500 336.000
12.95000 349.000
12.96500 330.000
12.98000 349.000
12.99500 373.000
13.01000 340.000
13.02500 357.000
13.04000 355.000
13.05500 350.000
13.07000 331.000
13.08500 338.000
13.10000 332.000
13.11500 337.000
13.13000 331.000
13.14500 334.000
13.16000 332.000
13.17500 340.000
13.19000 349.000
13.20500 327.000
13.22000 338.000
13.23500 326.000
13.25000 333.000
13.26500 338.000
13.28000 339.000
13.29500 337.000
13.31000 339.000
13.32500 348.000
13.34000 354.000
13.35500 347.000
13.37000 335.000
13.38500 311.000
13.40000 359.000
13.41500 362.000
13.43000 334.000
13.44500 318.000
13.46000 328.000
13.47500 339.000
13.49000 346.000
13.50500 315.000
13.52000 323.000
13.53500 358.000
13.55000 312.000
13.56500 337.000
13.58000 338.000
13.59500 354.000
13.61000 349.000
13.62500 325.000
13.64000 365.000
13.65500 341.000
13.67000 365.000
13.68500 338.000
13.70000 346.000
13.71500 355.000
13.73000 349.000
13.74500 338.000
13.76000 350.000
13.77500 362.000
13.79000 351.000
13.80500 361.000
13.82000 356.000
13.83500 346.000
13.85000 331.000
13.86500 338.000
13.88000 334.000
13.89500 350.000
13.91000 360.000
13.92500 347.000
13.94000 348.000
13.95500 360.000
13.97000 346.000
13.98500 353.000
14.00000 373.000
14.01500 337.000
14.03000 350.000
14.04500 348.000
14.06000 337.000
14.07500 318.000
14.09000 357.000
14.10500 334.000
14.12000 360.000
14.13500 367.000
14.15000 355.000
14.16500 363.000
14.18000 355.000
14.19500 338.000
14.21000 337.000
14.22500 361.000
14.24000 351.000
14.25500 346.000
14.27000 345.000
14.28500 361.000
14.30000 344.000
14.31500 324.000
14.33000 321.000
14.34500 320.000
14.36000 313.000
14.37500 329.000
14.39000 346.000
14.40500 331.000
14.42000 336.000
14.43500 349.000
14.45000 335.000
14.46500 345.000
14.48000 356.000
14.49500 366.000
14.51000 347.000
14.52500 324.000
14.54000 325.000
14.55500 321.000
14.57000 363.000
14.58500 318.000
14.60000 336.000
14.61500 367.000
14.63000 374.000
14.64500 352.000
14.66000 350.000
14.67500 351.000
14.69000 352.000
14.70500 315.000
14.72000 345.000
14.73500 336.000
14.75000 341.000
14.76500 346.000
14.78000 329.000
14.79500 347.000
14.81000 341.000
14.82500 343.000
14.84000 357.000
14.85500 340.000
14.87000 316.000
14.88500 353.000
14.90000 351.000
14.91500 360.000
14.93000 364.000
14.94500 357.000
14.96000 368.000
14.97500 370.000
14.99000 404.000
15.00500 411.000
15.02000 436.000
15.03500 473.000
15.05000 445.000
15.06500 415.000
15.08000 351.000
15.09500 329.000
15.11000 357.000
15.12500 350.000
15.14000 358.000
15.15500 347.000
15.17000 342.000
15.18500 330.000
15.20000 371.000
15.21500 375.000
15.23000 322.000
15.24500 315.000
15.26000 358.000
15.27500 350.000
15.29000 355.000
15.30500 354.000
15.32000 373.000
15.33500 353.000
15.35000 323.000
15.36500 314.000
15.38000 334.000
15.39500 323.000
15.41000 339.000
15.42500 346.000
15.44000 334.000
15.45500 354.000
15.47000 359.000
15.48500 360.000
15.50000 328.000
15.51500 339.000
15.53000 322.000
15.54500 330.000
15.56000 348.000
15.57500 335.000
15.59000 346.000
15.60500 309.000
15.62000 318.000
15.63500 362.000
15.65000 386.000
15.66500 372.000
15.68000 331.000
15.69500 357.000
15.71000 351.000
15.72500 320.000
15.74000 346.000
15.75500 355.000
15.77000 329.000
15.78500 341.000
15.80000 340.000
15.81500 338.000
15.83000 344.000
15.84500 339.000
15.86000 367.000
15.87500 333.000
15.89000 335.000
15.90500 366.000
15.92000 353.000
15.93500 348.000
15.95000 346.000
15.96500 368.000
15.98000 360.000
15.99500 342.000
16.01000 337.000
16.02500 357.000
16.04000 354.000
16.05500 362.000
16.07000 376.000
16.08500 354.000
16.10000 344.000
16.11500 335.000
16.13000 352.000
16.14500 364.000
16.16000 353.000
16.17500 334.000
16.19000 346.000
16.20500 383.000
16.22000 387.000
16.23500 361.000
16.25000 335.000
16.26500 347.000
16.28000 348.000
16.29500 352.000
16.31000 352.000
16.32500 341.000
16.34000 351.000
16.35500 356.000
16.37000 353.000
16.38500 362.000
16.40000 368.000
16.41500 358.000
16.43000 373.000
16.44500 355.000
16.46000 378.000
16.47500 371.000
16.49000 367.000
16.50500 366.000
16.52000 358.000
16.53500 375.000
16.55000 365.000
16.56500 348.000
16.58000 343.000
16.59500 343.000
16.61000 354.000
16.62500 377.000
16.64000 351.000
16.65500 380.000
16.67000 392.000
16.68500 378.000
16.70000 347.000
16.71500 364.000
16.73000 377.000
16.74500 383.000
16.76000 353.000
16.77500 355.000
16.79000 372.000
16.80500 369.000
16.82000 348.000
16.83500 362.000
16.85000 340.000
16.86500 372.000
16.88000 390.000
16.89500 359.000
16.91000 348.000
16.92500 381.000
16.94000 372.000
16.95500 367.000
16.97000 367.000
16.98500 384.000
17.00000 360.000
17.01500 360.000
17.03000 348.000
17.04500 386.000
17.06000 391.000
17.07500 381.000
17.09000 357.000
17.10500 368.000
17.12000 382.000
17.13500 368.000
17.15000 408.000
17.16500 401.000
17.18000 396.000
17.19500 413.000
17.21000 435.000
17.22500 420.000
17.24000 404.000
17.25500 416.000
17.27000 394.000
17.28500 430.000
17.30000 402.000
17.31500 417.000
17.33000 408.000
17.34500 423.000
17.36000 426.000
17.37500 441.000
17.39000 433.000
17.40500 473.000
17.42000 486.000
17.43500 517.000
17.45000 502.000
17.46500 529.000
17.48000 534.000
17.49500 516.000
17.51000 538.000
17.52500 553.000
17.54000 561.000
17.55500 537.000
17.57000 560.000
17.58500 566.000
17.60000 571.000
17.61500 508.000
17.63000 497.000
17.64500 488.000
17.66000 499.000
17.67500 489.000
17.69000 465.000
17.70500 467.000
17.72000 489.000
17.73500 473.000
17.75000 478.000
17.76500 456.000
17.78000 434.000
17.79500 474.000
17.81000 439.000
17.82500 425.000
17.84000 434.000
17.85500 423.000
17.87000 406.000
17.88500 473.000
17.90000 479.000
17.91500 477.000
17.93000 475.000
17.94500 536.000
17.96000 505.000
17.97500 478.000
17.99000 437.000
18.00500 438.000
18.02000 437.000
18.03500 456.000
18.05000 436.000
18.06500 468.000
18.08000 462.000
18.09500 439.000
18.11000 417.000
18.12500 482.000
18.14000 456.000
18.15500 424.000
18.17000 475.000
18.18500 456.000
18.20000 456.000
18.21500 457.000
18.23000 506.000
18.24500 453.000
18.26000 492.000
18.27500 491.000
18.29000 512.000
18.30500 497.000
18.32000 499.000
18.33500 486.000
18.35000 510.000
18.36500 495.000
18.38000 538.000
18.39500 543.000
18.41000 546.000
18.42500 545.000
18.44000 563.000
18.45500 570.000
18.47000 577.000
18.48500 578.000
18.50000 592.000
18.51500 606.000
18.53000 611.000
18.54500 634.000
18.56000 667.000
18.57500 661.000
18.59000 682.000
18.60500 710.000
18.62000 704.000
18.63500 744.000
18.65000 771.000
18.66500 774.000
18.68000 785.000
18.69500 892.000
18.71000 903.000
18.72500 1001.000
18.74000 1078.000
18.75500 1089.000
18.77000 1069.000
18.78500 945.000
18.80000 904.000
18.81500 874.000
18.83000 834.000
18.84500 871.000
18.86000 871.000
18.87500 817.000
18.89000 830.000
18.90500 816.000
18.92000 779.000
18.93500 811.000
18.95000 793.000
18.96500 803.000
18.98000 760.000
18.99500 774.000
19.01000 791.000
19.02500 778.000
19.04000 745.000
19.05500 697.000
19.07000 698.000
19.08500 675.000
19.10000 726.000
19.11500 694.000
19.13000 638.000
19.14500 661.000
19.16000 686.000
19.17500 692.000
19.19000 704.000
19.20500 759.000
19.22000 825.000
19.23500 925.000
19.25000 1022.000
19.26500 1075.000
19.28000 1006.000
19.29500 763.000
19.31000 617.000
19.32500 548.000
19.34000 537.000
19.35500 548.000
19.37000 500.000
19.38500 515.000
19.40000 498.000
19.41500 497.000
19.43000 470.000
19.44500 470.000
19.46000 492.000
19.47500 463.000
19.49000 448.000
19.50500 455.000
19.52000 435.000
19.53500 462.000
19.55000 432.000
19.56500 440.000
19.58000 405.000
19.59500 437.000
19.61000 403.000
19.62500 435.000
19.64000 382.000
19.65500 398.000
19.67000 416.000
19.68500 382.000
19.70000 401.000
19.71500 406.000
19.73000 409.000
19.74500 376.000
19.76000 369.000
19.77500 400.000
19.79000 368.000
19.80500 403.000
19.82000 390.000
19.83500 398.000
19.85000 389.000
19.86500 383.000
19.88000 377.000
19.89500 373.000
19.91000 359.000
19.92500 367.000
19.94000 369.000
19.95500 355.000
19.97000 340.000
19.98500 374.000
20.00000 379.000
20.01500 374.000
20.03000 373.000
20.04500 382.000
20.06000 415.000
20.07500 388.000
20.09000 385.000
20.10500 357.000
20.12000 399.000
20.13500 417.000
20.15000 347.000
20.16500 381.000
20.18000 397.000
20.19500 360.000
20.21000 382.000
20.22500 401.000
20.24000 386.000
20.25500 347.000
20.27000 398.000
20.28500 376.000
20.30000 398.000
20.31500 355.000
20.33000 373.000
20.34500 391.000
20.36000 395.000
20.37500 361.000
20.39000 383.000
20.40500 362.000
20.42000 364.000
20.43500 360.000
20.45000 364.000
20.46500 392.000
20.48000 370.000
20.49500 389.000
20.51000 386.000
20.52500 347.000
20.54000 369.000
20.55500 388.000
20.57000 353.000
20.58500 355.000
20.60000 356.000
20.61500 358.000
20.63000 402.000
20.64500 371.000
20.66000 394.000
20.67500 354.000
20.69000 367.000
20.70500 332.000
20.72000 367.000
20.73500 357.000
20.75000 363.000
20.76500 391.000
20.78000 374.000
20.79500 367.000
20.81000 382.000
20.82500 402.000
20.84000 388.000
20.85500 400.000
20.87000 391.000
20.88500 405.000
20.90000 397.000
20.91500 377.000
20.93000 387.000
20.94500 413.000
20.96000 448.000
20.97500 486.000
20.99000 481.000
21.00500 437.000
21.02000 427.000
21.03500 401.000
21.05000 397.000
21.06500 452.000
21.08000 471.000
21.09500 467.000
21.11000 443.000
21.12500 444.000
21.14000 445.000
21.15500 419.000
21.17000 417.000
21.18500 405.000
21.20000 415.000
21.21500 421.000
21.23000 387.000
21.24500 385.000
21.26000 393.000
21.27500 367.000
21.29000 377.000
21.30500 364.000
21.32000 370.000
21.33500 389.000
21.35000 389.000
21.36500 372.000
21.38000 359.000
21.39500 386.000
21.41000 384.000
21.42500 359.000
21.44000 348.000
21.45500 367.000
21.47000 380.000
21.48500 390.000
21.50000 356.000
21.51500 345.000
21.53000 372.000
21.54500 389.000
21.56000 338.000
21.57500 353.000
21.59000 369.000
21.60500 379.000
21.62000 370.000
21.63500 350.000
21.65000 363.000
21.66500 349.000
21.68000 407.000
21.69500 366.000
21.71000 376.000
21.72500 380.000
21.74000 353.000
21.75500 361.000
21.77000 373.000
21.78500 353.000
21.80000 373.000
21.81500 371.000
21.83000 380.000
21.84500 361.000
21.86000 374.000
21.87500 355.000
21.89000 375.000
21.90500 371.000
21.92000 384.000
21.93500 361.000
21.95000 355.000
21.96500 360.000
21.98000 358.000
21.99500 349.000
22.01000 351.000
22.02500 372.000
22.04000 360.000
22.05500 376.000
22.07000 363.000
22.08500 373.000
22.10000 363.000
22.11500 357.000
22.13000 372.000
22.14500 387.000
22.16000 373.000
22.17500 373.000
22.19000 386.000
22.20500 358.000
22.22000 378.000
22.23500 368.000
22.25000 369.000
22.26500 373.000
22.28000 365.000
22.29500 335.000
22.31000 358.000
22.32500 348.000
22.34000 364.000
22.35500 360.000
22.37000 323.000
22.38500 338.000
22.40000 363.000
22.41500 335.000
22.43000 363.000
22.44500 364.000
22.46000 350.000
22.47500 351.000
22.49000 385.000
22.50500 361.000
22.52000 393.000
22.53500 366.000
22.55000 355.000
22.56500 350.000
22.58000 353.000
22.59500 396.000
22.61000 415.000
22.62500 379.000
22.64000 370.000
22.65500 399.000
22.67000 392.000
22.68500 360.000
22.70000 379.000
22.71500 374.000
22.73000 397.000
22.74500 415.000
22.76000 385.000
22.77500 393.000
22.79000 415.000
22.80500 419.000
22.82000 400.000
22.83500 383.000
22.85000 387.000
22.86500 376.000
22.88000 377.000
22.89500 387.000
22.91000 377.000
22.92500 369.000
22.94000 400.000
22.95500 381.000
22.97000 370.000
22.98500 378.000
23.00000 411.000
23.01500 375.000
23.03000 378.000
23.04500 351.000
23.06000 366.000
23.07500 361.000
23.09000 386.000
23.10500 373.000
23.12000 340.000
23.13500 362.000
23.15000 382.000
23.16500 385.000
23.18000 381.000
23.19500 390.000
23.21000 402.000
23.22500 426.000
23.24000 399.000
23.25500 391.000
23.27000 413.000
23.28500 386.000
23.30000 376.000
23.31500 381.000
23.33000 368.000
23.34500 373.000
23.36000 358.000
23.37500 387.000
23.39000 374.000
23.40500 371.000
23.42000 388.000
23.43500 388.000
23.45000 366.000
23.46500 396.000
23.48000 368.000
23.49500 387.000
23.51000 417.000
23.52500 414.000
23.54000 373.000
23.55500 368.000
23.57000 398.000
23.58500 390.000
23.60000 390.000
23.61500 371.000
23.63000 356.000
23.64500 376.000
23.66000 366.000
23.67500 375.000
23.69000 372.000
23.70500 363.000
23.72000 371.000
23.73500 379.000
23.75000 381.000
23.76500 378.000
23.78000 393.000
23.79500 400.000
23.81000 387.000
23.82500 389.000
23.84000 418.000
23.85500 384.000
23.87000 380.000
23.88500 407.000
23.90000 383.000
23.91500 375.000
23.93000 394.000
23.94500 391.000
23.96000 378.000
23.97500 404.000
23.99000 415.000
24.00500 385.000
24.02000 388.000
24.03500 396.000
24.05000 382.000
24.06500 375.000
24.08000 391.000
24.09500 405.000
24.11000 409.000
24.12500 416.000
24.14000 384.000
24.15500 391.000
24.17000 404.000
24.18500 423.000
24.20000 406.000
24.21500 425.000
24.23000 384.000
24.24500 356.000
24.26000 397.000
24.27500 407.000
24.29000 429.000
24.30500 420.000
24.32000 479.000
24.33500 467.000
24.35000 521.000
24.36500 592.000
24.38000 553.000
24.39500 549.000
24.41000 541.000
24.42500 500.000
24.44000 536.000
24.45500 587.000
24.47000 593.000
24.48500 687.000
24.50000 872.000
24.51500 1056.000
24.53000 1095.000
24.54500 973.000
24.56000 812.000
24.57500 654.000
24.59000 578.000
24.60500 505.000
24.62000 536.000
24.63500 529.000
24.65000 521.000
24.66500 519.000
24.68000 528.000
24.69500 542.000
24.71000 529.000
24.72500 505.000
24.74000 490.000
24.75500 527.000
24.77000 564.000
24.78500 594.000
24.80000 587.000
24.81500 552.000
24.83000 590.000
24.84500 625.000
24.86000 621.000
24.87500 623.000
24.89000 668.000
24.90500 654.000
24.92000 665.000
24.93500 666.000
24.95000 679.000
24.96500 705.000
24.98000 736.000
24.99500 784.000
25.01000 792.000
25.02500 790.000
25.04000 795.000
25.05500 851.000
25.07000 902.000
25.08500 964.000
25.10000 965.000
25.11500 892.000
25.13000 888.000
25.14500 869.000
25.16000 849.000
25.17500 879.000
25.19000 834.000
25.20500 816.000
25.22000 900.000
25.23500 882.000
25.25000 856.000
25.26500 874.000
25.28000 888.000
25.29500 867.000
25.31000 843.000
25.32500 915.000
25.34000 909.000
25.35500 878.000
25.37000 892.000
25.38500 959.000
25.40000 980.000
25.41500 929.000
25.43000 982.000
25.44500 985.000
25.46000 1010.000
25.47500 1088.000
25.49000 1075.000
25.50500 1084.000
25.52000 1123.000
25.53500 1128.000
25.55000 1169.000
25.56500 1155.000
25.58000 1146.000
25.59500 1127.000
25.61000 1134.000
25.62500 1093.000
25.64000 1071.000
25.65500 1112.000
25.67000 1091.000
25.68500 1080.000
25.70000 1105.000
25.71500 1048.000
25.73000 968.000
25.74500 961.000
25.76000 1036.000
25.77500 1072.000
25.79000 1154.000
25.80500 1241.000
25.82000 1254.000
25.83500 1171.000
25.85000 1043.000
25.86500 936.000
25.88000 898.000
25.89500 933.000
25.91000 892.000
25.92500 852.000
25.94000 848.000
25.95500 838.000
25.97000 837.000
25.98500 823.000
26.00000 843.000
26.01500 808.000
26.03000 847.000
26.04500 851.000
26.06000 880.000
26.07500 876.000
26.09000 921.000
26.10500 974.000
26.12000 945.000
26.13500 875.000
26.15000 822.000
26.16500 783.000
26.18000 748.000
26.19500 788.000
26.21000 762.000
26.22500 773.000
26.24000 771.000
26.25500 796.000
26.27000 778.000
26.28500 732.000
26.30000 752.000
26.31500 749.000
26.33000 750.000
26.34500 764.000
26.36000 743.000
26.37500 705.000
26.39000 731.000
26.40500 759.000
26.42000 739.000
26.43500 766.000
26.45000 808.000
26.46500 828.000
26.48000 922.000
26.49500 964.000
26.51000 1006.000
26.52500 989.000
26.54000 1036.000
26.55500 1182.000
26.57000 1387.000
26.58500 1596.000
26.60000 1784.000
26.61500 1765.000
26.63000 1497.000
26.64500 1170.000
26.66000 943.000
26.67500 792.000
26.69000 769.000
26.70500 737.000
26.72000 743.000
26.73500 708.000
26.75000 690.000
26.76500 699.000
26.78000 706.000
26.79500 710.000
26.81000 671.000
26.82500 668.000
26.84000 668.000
26.85500 692.000
26.87000 673.000
26.88500 679.000
26.90000 671.000
26.91500 658.000
26.93000 660.000
26.94500 690.000
26.96000 690.000
26.97500 653.000
26.99000 712.000
27.00500 675.000
27.02000 671.000
27.03500 677.000
27.05000 701.000
27.06500 701.000
27.08000 688.000
27.09500 667.000
27.11000 713.000
27.12500 681.000
27.14000 701.000
27.15500 695.000
27.17000 715.000
27.18500 699.000
27.20000 727.000
27.21500 769.000
27.23000 731.000
27.24500 716.000
27.26000 704.000
27.27500 719.000
27.29000 759.000
27.30500 765.000
27.32000 776.000
27.33500 816.000
27.35000 779.000
27.36500 793.000
27.38000 851.000
27.39500 827.000
27.41000 830.000
27.42500 859.000
27.44000 906.000
27.45500 903.000
27.47000 964.000
27.48500 977.000
27.50000 1033.000
27.51500 1085.000
27.53000 1123.000
27.54500 1287.000
27.56000 1476.000
27.57500 1708.000
27.59000 1989.000
27.60500 2071.000
27.62000 2029.000
27.63500 1751.000
27.65000 1569.000
27.66500 1381.000
27.68000 1328.000
27.69500 1377.000
27.71000 1352.000
27.72500 1470.000
27.74000 1541.000
27.75500 1481.000
27.77000 1434.000
27.78500 1441.000
27.80000 1447.000
27.81500 1523.000
27.83000 1531.000
27.84500 1455.000
27.86000 1501.000
27.87500 1586.000
27.89000 1650.000
27.90500 1656.000
27.92000 1666.000
27.93500 1701.000
27.95000 1736.000
27.96500 1765.000
27.98000 1875.000
27.99500 2011.000
28.01000 2042.000
28.02500 2100.000
28.04000 2202.000
28.05500 2366.000
28.07000 2559.000
28.08500 2731.000
28.10000 2890.000
28.11500 2799.000
28.13000 2929.000
28.14500 2827.000
28.16000 2616.000
28.17500 2385.000
28.19000 2134.000
28.20500 1870.000
28.22000 1767.000
28.23500 1558.000
28.25000 1420.000
28.26500 1323.000
28.28000 1243.000
28.29500 1171.000
28.31000 1145.000
28.32500 1128.000
28.34000 1091.000
28.35500 1109.000
28.37000 1096.000
28.38500 1032.000
28.40000 1038.000
28.41500 943.000
28.43000 866.000
28.44500 822.000
28.46000 854.000
28.47500 782.000
28.49000 779.000
28.50500 793.000
28.52000 753.000
28.53500 723.000
28.55000 731.000
28.56500 694.000
28.58000 721.000
28.59500 744.000
28.61000 723.000
28.62500 738.000
28.64000 706.000
28.65500 746.000
28.67000 691.000
28.68500 646.000
28.70000 630.000
28.71500 627.000
28.73000 626.000
28.74500 600.000
28.76000 550.000
28.77500 592.000
28.79000 573.000
28.80500 552.000
28.82000 550.000
28.83500 574.000
28.85000 555.000
28.86500 552.000
28.88000 553.000
28.89500 575.000
28.91000 562.000
28.92500 531.000
28.94000 553.000
28.95500 522.000
28.97000 507.000
28.98500 542.000
29.00000 531.000
29.01500 544.000
29.03000 547.000
29.04500 521.000
29.06000 506.000
29.07500 533.000
29.09000 521.000
29.10500 509.000
29.12000 508.000
29.13500 516.000
29.15000 521.000
29.16500 494.000
29.18000 484.000
29.19500 470.000
29.21000 501.000
29.22500 501.000
29.24000 464.000
29.25500 502.000
29.27000 513.000
29.28500 549.000
29.30000 489.000
29.31500 478.000
29.33000 500.000
29.34500 457.000
29.36000 481.000
29.37500 508.000
29.39000 476.000
29.40500 480.000
29.42000 447.000
29.43500 463.000
29.45000 461.000
29.46500 431.000
29.48000 459.000
29.49500 472.000
29.51000 467.000
29.52500 478.000
29.54000 504.000
29.55500 545.000
29.57000 529.000
29.58500 499.000
29.60000 475.000
29.61500 500.000
29.63000 548.000
29.64500 531.000
29.66000 551.000
29.67500 533.000
29.69000 486.000
29.70500 433.000
29.72000 459.000
29.73500 451.000
29.75000 436.000
29.76500 452.000
29.78000 446.000
29.79500 462.000
29.81000 454.000
29.82500 492.000
29.84000 493.000
29.85500 518.000
29.87000 528.000
29.88500 575.000
29.90000 545.000
29.91500 484.000
29.93000 479.000
29.94500 469.000
29.96000 467.000
29.97500 442.000
29.99000 473.000
30.00500 473.000
30.02000 453.000
30.03500 455.000
30.05000 464.000
30.06500 466.000
30.08000 478.000
30.09500 470.000
30.11000 474.000
30.12500 483.000
30.14000 485.000
30.15500 501.000
30.17000 491.000
30.18500 481.000
30.20000 497.000
30.21500 517.000
30.23000 465.000
30.24500 491.000
30.26000 478.000
30.27500 428.000
30.29000 420.000
30.30500 431.000
30.32000 450.000
30.33500 484.000
30.35000 496.000
30.36500 539.000
30.38000 568.000
30.39500 628.000
30.41000 732.000
30.42500 895.000
30.44000 1065.000
30.45500 1159.000
30.47000 1060.000
30.48500 855.000
30.50000 679.000
30.51500 605.000
30.53000 564.000
30.54500 496.000
30.56000 451.000
30.57500 449.000
30.59000 404.000
30.60500 377.000
30.62000 387.000
30.63500 392.000
30.65000 386.000
30.66500 375.000
30.68000 357.000
30.69500 380.000
30.71000 372.000
30.72500 367.000
30.74000 368.000
30.75500 388.000
30.77000 425.000
30.78500 386.000
30.80000 348.000
30.81500 353.000
30.83000 356.000
30.84500 367.000
30.86000 389.000
30.87500 397.000
30.89000 372.000
30.90500 349.000
30.92000 397.000
30.93500 407.000
30.95000 421.000
30.96500 428.000
30.98000 429.000
30.99500 428.000
31.01000 360.000
31.02500 381.000
31.04000 360.000
31.05500 360.000
31.07000 351.000
31.08500 358.000
31.10000 364.000
31.11500 354.000
31.13000 345.000
31.14500 358.000
31.16000 380.000
31.17500 330.000
31.19000 339.000
31.20500 343.000
31.22000 359.000
31.23500 343.000
31.25000 341.000
31.26500 353.000
31.28000 371.000
31.29500 350.000
31.31000 357.000
31.32500 338.000
31.34000 360.000
31.35500 348.000
31.37000 364.000
31.38500 351.000
31.40000 337.000
31.41500 363.000
31.43000 354.000
31.44500 368.000
31.46000 360.000
31.47500 349.000
31.49000 376.000
31.50500 355.000
31.52000 350.000
31.53500 366.000
31.55000 383.000
31.56500 363.000
31.58000 386.000
31.59500 403.000
31.61000 438.000
31.62500 472.000
31.64000 485.000
31.65500 452.000
31.67000 448.000
31.68500 388.000
31.70000 393.000
31.71500 388.000
31.73000 380.000
31.74500 382.000
31.76000 351.000
31.77500 336.000
31.79000 337.000
31.80500 348.000
31.82000 322.000
31.83500 300.000
31.85000 346.000
31.86500 339.000
31.88000 351.000
31.89500 350.000
31.91000 334.000
31.92500 356.000
31.94000 378.000
31.95500 355.000
31.97000 387.000
31.98500 395.000
32.00000 401.000
32.01500 443.000
32.03000 467.000
32.04500 445.000
32.06000 425.000
32.07500 388.000
32.09000 384.000
32.10500 349.000
32.12000 353.000
32.13500 336.000
32.15000 366.000
32.16500 342.000
32.18000 364.000
32.19500 344.000
32.21000 336.000
32.22500 341.000
32.24000 313.000
32.25500 347.000
32.27000 342.000
32.28500 332.000
32.30000 330.000
32.31500 343.000
32.33000 354.000
32.34500 359.000
32.36000 370.000
32.37500 333.000
32.39000 355.000
32.40500 356.000
32.42000 360.000
32.43500 342.000
32.45000 335.000
32.46500 352.000
32.48000 364.000
32.49500 365.000
32.51000 386.000
32.52500 361.000
32.54000 320.000
32.55500 325.000
32.57000 327.000
32.58500 369.000
32.60000 343.000
32.61500 341.000
32.63000 344.000
32.64500 396.000
32.66000 417.000
32.67500 440.000
32.69000 373.000
32.70500 338.000
32.72000 321.000
32.73500 346.000
32.75000 341.000
32.76500 319.000
32.78000 368.000
32.79500 337.000
32.81000 323.000
32.82500 298.000
32.84000 327.000
32.85500 333.000
32.87000 313.000
32.88500 336.000
32.90000 324.000
32.91500 336.000
32.93000 325.000
32.94500 344.000
32.96000 318.000
32.97500 337.000
32.99000 330.000
33.00500 333.000
33.02000 317.000
33.03500 380.000
33.05000 352.000
33.06500 332.000
33.08000 338.000
33.09500 361.000
33.11000 360.000
33.12500 375.000
33.14000 332.000
33.15500 329.000
33.17000 312.000
33.18500 323.000
33.20000 333.000
33.21500 310.000
33.23000 305.000
33.24500 310.000
33.26000 320.000
33.27500 304.000
33.29000 310.000
33.30500 349.000
33.32000 331.000
33.33500 299.000
33.35000 292.000
33.36500 315.000
33.38000 323.000
33.39500 313.000
33.41000 325.000
33.42500 329.000
33.44000 309.000
33.45500 329.000
33.47000 321.000
33.48500 334.000
33.50000 325.000
33.51500 310.000
33.53000 295.000
33.54500 337.000
33.56000 330.000
33.57500 336.000
33.59000 356.000
33.60500 344.000
33.62000 316.000
33.63500 352.000
33.65000 333.000
33.66500 359.000
33.68000 356.000
33.69500 368.000
33.71000 374.000
33.72500 421.000
33.74000 403.000
33.75500 395.000
33.77000 367.000
33.78500 342.000
33.80000 329.000
33.81500 354.000
33.83000 313.000
33.84500 299.000
33.86000 308.000
33.87500 317.000
33.89000 337.000
33.90500 325.000
33.92000 319.000
33.93500 363.000
33.95000 388.000
33.96500 416.000
33.98000 426.000
33.99500 400.000
34.01000 409.000
34.02500 388.000
34.04000 341.000
34.05500 339.000
34.07000 337.000
34.08500 341.000
34.10000 336.000
34.11500 343.000
34.13000 300.000
34.14500 317.000
34.16000 321.000
34.17500 294.000
34.19000 319.000
34.20500 296.000
34.22000 294.000
34.23500 302.000
34.25000 322.000
34.26500 298.000
34.28000 307.000
34.29500 328.000
34.31000 310.000
34.32500 312.000
34.34000 315.000
34.35500 325.000
34.37000 292.000
34.38500 279.000
34.40000 308.000
34.41500 296.000
34.43000 317.000
34.44500 284.000
34.46000 321.000
34.47500 296.000
34.49000 286.000
34.50500 297.000
34.52000 290.000
34.53500 314.000
34.55000 273.000
34.56500 282.000
34.58000 302.000
34.59500 286.000
34.61000 296.000
34.62500 293.000
34.64000 278.000
34.65500 272.000
34.67000 281.000
34.68500 277.000
34.70000 271.000
34.71500 259.000
34.73000 262.000
34.74500 262.000
34.76000 266.000
34.77500 287.000
34.79000 280.000
34.80500 280.000
34.82000 266.000
34.83500 285.000
34.85000 271.000
34.86500 254.000
34.88000 241.000
34.89500 258.000
34.91000 260.000
34.92500 276.000
34.94000 283.000
34.95500 294.000
34.97000 290.000
34.98500 311.000
35.00000 265.000
35.01500 288.000
35.03000 297.000
35.04500 266.000
35.06000 276.000
35.07500 282.000
35.09000 278.000
35.10500 264.000
35.12000 260.000
35.13500 281.000
35.15000 286.000
35.16500 250.000
35.18000 283.000
35.19500 269.000
35.21000 304.000
35.22500 301.000
35.24000 296.000
35.25500 300.000
35.27000 299.000
35.28500 303.000
35.30000 329.000
35.31500 329.000
35.33000 322.000
35.34500 343.000
35.36000 348.000
35.37500 323.000
35.39000 304.000
35.40500 295.000
35.42000 275.000
35.43500 316.000
35.45000 322.000
35.46500 292.000
35.48000 276.000
35.49500 298.000
35.51000 322.000
35.52500 314.000
35.54000 310.000
35.55500 325.000
35.57000 331.000
35.58500 313.000
35.60000 293.000
35.61500 292.000
35.63000 325.000
35.64500 316.000
35.66000 311.000
35.67500 318.000
35.69000 323.000
35.70500 315.000
35.72000 333.000
35.73500 336.000
35.75000 331.000
35.76500 358.000
35.78000 384.000
35.79500 453.000
35.81000 464.000
35.82500 469.000
35.84000 406.000
35.85500 378.000
35.87000 343.000
35.88500 325.000
35.90000 330.000
35.91500 317.000
35.93000 306.000
35.94500 306.000
35.96000 311.000
35.97500 299.000
35.99000 279.000
36.00500 306.000
36.02000 318.000
36.03500 299.000
36.05000 283.000
36.06500 291.000
36.08000 278.000
36.09500 296.000
36.11000 288.000
36.12500 289.000
36.14000 292.000
36.15500 296.000
36.17000 259.000
36.18500 275.000
36.20000 284.000
36.21500 296.000
36.23000 326.000
36.24500 291.000
36.26000 272.000
36.27500 297.000
36.29000 302.000
36.30500 289.000
36.32000 260.000
36.33500 285.000
36.35000 290.000
36.36500 286.000
36.38000 300.000
36.39500 304.000
36.41000 294.000
36.42500 302.000
36.44000 330.000
36.45500 311.000
36.47000 307.000
36.48500 303.000
36.50000 292.000
36.51500 292.000
36.53000 278.000
36.54500 287.000
36.56000 299.000
36.57500 293.000
36.59000 292.000
36.60500 279.000
36.62000 291.000
36.63500 293.000
36.65000 292.000
36.66500 292.000
36.68000 285.000
36.69500 279.000
36.71000 293.000
36.72500 294.000
36.74000 278.000
36.75500 287.000
36.77000 280.000
36.78500 285.000
36.80000 279.000
36.81500 275.000
36.83000 284.000
36.84500 268.000
36.86000 270.000
36.87500 269.000
36.89000 277.000
36.90500 278.000
36.92000 264.000
36.93500 260.000
36.95000 259.000
36.96500 278.000
36.98000 272.000
36.99500 283.000
37.01000 295.000
37.02500 303.000
37.04000 290.000
37.05500 289.000
37.07000 289.000
37.08500 280.000
37.10000 257.000
37.11500 281.000
37.13000 302.000
37.14500 299.000
37.16000 302.000
37.17500 293.000
37.19000 277.000
37.20500 265.000
37.22000 279.000
37.23500 288.000
37.25000 280.000
37.26500 286.000
37.28000 286.000
37.29500 274.000
37.31000 268.000
37.32500 263.000
37.34000 264.000
37.35500 272.000
37.37000 286.000
37.38500 275.000
37.40000 289.000
37.41500 282.000
37.43000 313.000
37.44500 275.000
37.46000 277.000
37.47500 305.000
37.49000 286.000
37.50500 272.000
37.52000 285.000
37.53500 309.000
37.55000 293.000
37.56500 303.000
37.58000 290.000
37.59500 278.000
37.61000 263.000
37.62500 285.000
37.64000 285.000
37.65500 283.000
37.67000 287.000
37.68500 276.000
37.70000 273.000
37.71500 254.000
37.73000 272.000
37.74500 246.000
37.76000 262.000
37.77500 281.000
37.79000 264.000
37.80500 269.000
37.82000 290.000
37.83500 271.000
37.85000 244.000
37.86500 244.000
37.88000 251.000
37.89500 276.000
37.91000 244.000
37.92500 245.000
37.94000 247.000
37.95500 260.000
37.97000 283.000
37.98500 272.000
38.00000 298.000
38.01500 258.000
38.03000 259.000
38.04500 277.000
38.06000 262.000
38.07500 268.000
38.09000 269.000
38.10500 267.000
38.12000 252.000
38.13500 239.000
38.15000 261.000
38.16500 278.000
38.18000 262.000
38.19500 257.000
38.21000 250.000
38.22500 255.000
38.24000 266.000
38.25500 249.000
38.27000 256.000
38.28500 280.000
38.30000 276.000
38.31500 274.000
38.33000 257.000
38.34500 273.000
38.36000 256.000
38.37500 254.000
38.39000 260.000
38.40500 243.000
38.42000 257.000
38.43500 255.000
38.45000 245.000
38.46500 264.000
38.48000 260.000
38.49500 244.000
38.51000 278.000
38.52500 270.000
38.54000 266.000
38.55500 280.000
38.57000 308.000
38.58500 322.000
38.60000 312.000
38.61500 304.000
38.63000 300.000
38.64500 285.000
38.66000 265.000
38.67500 291.000
38.69000 278.000
38.70500 274.000
38.72000 300.000
38.73500 312.000
38.75000 314.000
38.76500 331.000
38.78000 393.000
38.79500 420.000
38.81000 443.000
38.82500 408.000
38.84000 353.000
38.85500 357.000
38.87000 300.000
38.88500 299.000
38.90000 295.000
38.91500 287.000
38.93000 280.000
38.94500 268.000
38.96000 279.000
38.97500 270.000
38.99000 304.000
39.00500 318.000
39.02000 296.000
39.03500 293.000
39.05000 325.000
39.06500 306.000
39.08000 275.000
39.09500 313.000
39.11000 290.000
39.12500 290.000
39.14000 269.000
39.15500 267.000
39.17000 249.000
39.18500 253.000
39.20000 262.000
39.21500 259.000
39.23000 269.000
39.24500 266.000
39.26000 267.000
39.27500 278.000
39.29000 273.000
39.30500 280.000
39.32000 294.000
39.33500 279.000
39.35000 285.000
39.36500 296.000
39.38000 304.000
39.39500 306.000
39.41000 329.000
39.42500 323.000
39.44000 315.000
39.45500 305.000
39.47000 286.000
39.48500 301.000
39.50000 263.000
39.51500 289.000
39.53000 263.000
39.54500 284.000
39.56000 261.000
39.57500 282.000
39.59000 255.000
39.60500 242.000
39.62000 256.000
39.63500 232.000
39.65000 244.000
39.66500 229.000
39.68000 246.000
39.69500 222.000
39.71000 260.000
39.72500 249.000
39.74000 228.000
39.75500 233.000
39.77000 238.000
39.78500 235.000
39.80000 202.000
39.81500 233.000
39.83000 206.000
39.84500 220.000
39.86000 212.000
39.87500 224.000
39.89000 224.000
39.90500 218.000
39.92000 210.000
39.93500 212.000
39.95000 216.000
39.96500 234.000
39.98000 232.000
39.99500 226.000
40.01000 225.000
40.02500 225.000
40.04000 235.000
40.05500 235.000
40.07000 236.000
40.08500 209.000
40.10000 221.000
40.11500 219.000
40.13000 199.000
40.14500 215.000
40.16000 205.000
40.17500 227.000
40.19000 220.000
40.20500 219.000
40.22000 213.000
40.23500 199.000
40.25000 223.000
40.26500 228.000
40.28000 204.000
40.29500 204.000
40.31000 207.000
40.32500 220.000
40.34000 211.000
40.35500 215.000
40.37000 212.000
40.38500 223.000
40.40000 202.000
40.41500 212.000
40.43000 215.000
40.44500 207.000
40.46000 202.000
40.47500 204.000
40.49000 200.000
40.50500 223.000
40.52000 219.000
40.53500 242.000
40.55000 209.000
40.56500 221.000
40.58000 209.000
40.59500 235.000
40.61000 204.000
40.62500 214.000
40.64000 210.000
40.65500 186.000
40.67000 209.000
40.68500 216.000
40.70000 205.000
40.71500 208.000
40.73000 222.000
40.74500 231.000
40.76000 232.000
40.77500 246.000
40.79000 256.000
40.80500 292.000
40.82000 285.000
40.83500 293.000
40.85000 256.000
40.86500 238.000
40.88000 228.000
40.89500 223.000
40.91000 237.000
40.92500 227.000
40.94000 214.000
40.95500 208.000
40.97000 187.000
40.98500 190.000
41.00000 206.000
41.01500 229.000
41.03000 203.000
41.04500 224.000
41.06000 224.000
41.07500 198.000
41.09000 208.000
41.10500 206.000
41.12000 216.000
41.13500 215.000
41.15000 197.000
41.16500 201.000
41.18000 226.000
41.19500 195.000
41.21000 203.000
41.22500 209.000
41.24000 204.000
41.25500 202.000
41.27000 190.000
41.28500 200.000
41.30000 198.000
41.31500 199.000
41.33000 191.000
41.34500 194.000
41.36000 210.000
41.37500 183.000
41.39000 179.000
41.40500 192.000
41.42000 217.000
41.43500 221.000
41.45000 197.000
41.46500 196.000
41.48000 207.000
41.49500 213.000
41.51000 216.000
41.52500 209.000
41.54000 196.000
41.55500 212.000
41.57000 220.000
41.58500 221.000
41.60000 229.000
41.61500 218.000
41.63000 214.000
41.64500 200.000
41.66000 231.000
41.67500 204.000
41.69000 210.000
41.70500 211.000
41.72000 193.000
41.73500 201.000
41.75000 206.000
41.76500 202.000
41.78000 201.000
41.79500 199.000
41.81000 199.000
41.82500 204.000
41.84000 242.000
41.85500 218.000
41.87000 200.000
41.88500 207.000
41.90000 191.000
41.91500 196.000
41.93000 220.000
41.94500 218.000
41.96000 199.000
41.97500 188.000
41.99000 201.000
42.00500 184.000
42.02000 179.000
42.03500 189.000
42.05000 235.000
42.06500 228.000
42.08000 210.000
42.09500 205.000
42.11000 208.000
42.12500 221.000
42.14000 218.000
42.15500 216.000
42.17000 223.000
42.18500 227.000
42.20000 238.000
42.21500 232.000
42.23000 230.000
42.24500 219.000
42.26000 233.000
42.27500 246.000
42.29000 239.000
42.30500 275.000
42.32000 238.000
42.33500 241.000
42.35000 247.000
42.36500 223.000
42.38000 220.000
42.39500 211.000
42.41000 230.000
42.42500 219.000
42.44000 235.000
42.45500 235.000
42.47000 220.000
42.48500 196.000
42.50000 225.000
42.51500 239.000
42.53000 235.000
42.54500 237.000
42.56000 218.000
42.57500 217.000
42.59000 207.000
42.60500 214.000
42.62000 211.000
42.63500 218.000
42.65000 227.000
42.66500 225.000
42.68000 207.000
42.69500 229.000
42.71000 236.000
42.72500 204.000
42.74000 199.000
42.75500 213.000
42.77000 235.000
42.78500 219.000
42.80000 229.000
42.81500 238.000
42.83000 205.000
42.84500 208.000
42.86000 218.000
42.87500 243.000
42.89000 218.000
42.90500 216.000
42.92000 220.000
42.93500 229.000
42.95000 215.000
42.96500 217.000
42.98000 197.000
42.99500 223.000
43.01000 239.000
43.02500 243.000
43.04000 217.000
43.05500 241.000
43.07000 212.000
43.08500 219.000
43.10000 216.000
43.11500 202.000
43.13000 231.000
43.14500 236.000
43.16000 238.000
43.17500 238.000
43.19000 218.000
43.20500 219.000
43.22000 221.000
43.23500 227.000
43.25000 214.000
43.26500 235.000
43.28000 220.000
43.29500 210.000
43.31000 242.000
43.32500 230.000
43.34000 234.000
43.35500 222.000
43.37000 232.000
43.38500 222.000
43.40000 214.000
43.41500 222.000
43.43000 238.000
43.44500 197.000
43.46000 199.000
43.47500 226.000
43.49000 210.000
43.50500 194.000
43.52000 177.000
43.53500 207.000
43.55000 204.000
43.56500 189.000
43.58000 191.000
43.59500 188.000
43.61000 185.000
43.62500 192.000
43.64000 188.000
43.65500 191.000
43.67000 199.000
43.68500 181.000
43.70000 184.000
43.71500 183.000
43.73000 187.000
43.74500 197.000
43.76000 202.000
43.77500 183.000
43.79000 182.000
43.80500 190.000
43.82000 178.000
43.83500 195.000
43.85000 191.000
43.86500 178.000
43.88000 222.000
43.89500 222.000
43.91000 191.000
43.92500 191.000
43.94000 178.000
43.95500 177.000
43.97000 178.000
43.98500 201.000
44.00000 197.000
44.01500 194.000
44.03000 192.000
44.04500 194.000
44.06000 184.000
44.07500 186.000
44.09000 178.000
44.10500 202.000
44.12000 187.000
44.13500 181.000
44.15000 202.000
44.16500 200.000
44.18000 207.000
44.19500 206.000
44.21000 203.000
44.22500 221.000
44.24000 196.000
44.25500 207.000
44.27000 220.000
44.28500 216.000
44.30000 215.000
44.31500 221.000
44.33000 207.000
44.34500 204.000
44.36000 180.000
44.37500 184.000
44.39000 182.000
44.40500 196.000
44.42000 197.000
44.43500 180.000
44.45000 198.000
44.46500 200.000
44.48000 169.000
44.49500 196.000
44.51000 208.000
44.52500 186.000
44.54000 191.000
44.55500 179.000
44.57000 199.000
44.58500 189.000
44.60000 180.000
44.61500 188.000
44.63000 189.000
44.64500 207.000
44.66000 211.000
44.67500 206.000
44.69000 203.000
44.70500 213.000
44.72000 211.000
44.73500 209.000
44.75000 222.000
44.76500 211.000
44.78000 203.000
44.79500 202.000
44.81000 205.000
44.82500 208.000
44.84000 200.000
44.85500 217.000
44.87000 208.000
44.88500 223.000
44.90000 237.000
44.91500 221.000
44.93000 229.000
44.94500 196.000
44.96000 214.000
44.97500 227.000
44.99000 228.000
45.00500 245.000
45.02000 228.000
45.03500 230.000
45.05000 218.000
45.06500 220.000
45.08000 220.000
45.09500 216.000
45.11000 233.000
45.12500 228.000
45.14000 213.000
45.15500 218.000
45.17000 204.000
45.18500 202.000
45.20000 200.000
45.21500 223.000
45.23000 221.000
45.24500 226.000
45.26000 219.000
45.27500 206.000
45.29000 200.000
45.30500 181.000
45.32000 192.000
45.33500 208.000
45.35000 201.000
45.36500 203.000
45.38000 202.000
45.39500 228.000
45.41000 237.000
45.42500 217.000
45.44000 227.000
45.45500 264.000
45.47000 261.000
45.48500 268.000
45.50000 257.000
45.51500 246.000
45.53000 216.000
45.54500 217.000
45.56000 224.000
45.57500 211.000
45.59000 194.000
45.60500 212.000
45.62000 212.000
45.63500 197.000
45.65000 192.000
45.66500 215.000
45.68000 223.000
45.69500 204.000
45.71000 192.000
45.72500 226.000
45.74000 196.000
45.75500 171.000
45.77000 197.000
45.78500 198.000
45.80000 194.000
45.81500 195.000
45.83000 179.000
45.84500 179.000
45.86000 200.000
45.87500 193.000
45.89000 184.000
45.90500 186.000
45.92000 215.000
45.93500 186.000
45.95000 165.000
45.96500 163.000
45.98000 198.000
45.99500 212.000
46.01000 185.000
46.02500 191.000
46.04000 202.000
46.05500 204.000
46.07000 200.000
46.08500 223.000
46.10000 186.000
46.11500 191.000
46.13000 178.000
46.14500 198.000
46.16000 209.000
46.17500 196.000
46.19000 190.000
46.20500 204.000
46.22000 205.000
46.23500 209.000
46.25000 217.000
46.26500 209.000
46.28000 258.000
46.29500 233.000
46.31000 227.000
46.32500 207.000
46.34000 199.000
46.35500 199.000
46.37000 190.000
46.38500 190.000
46.40000 189.000
46.41500 183.000
46.43000 184.000
46.44500 163.000
46.46000 155.000
46.47500 192.000
46.49000 201.000
46.50500 178.000
46.52000 178.000
46.53500 170.000
46.55000 176.000
46.56500 176.000
46.58000 190.000
46.59500 183.000
46.61000 166.000
46.62500 175.000
46.64000 190.000
46.65500 166.000
46.67000 171.000
46.68500 185.000
46.70000 181.000
46.71500 169.000
46.73000 184.000
46.74500 194.000
46.76000 201.000
46.77500 181.000
46.79000 194.000
46.80500 195.000
46.82000 196.000
46.83500 190.000
46.85000 183.000
46.86500 194.000
46.88000 185.000
46.89500 183.000
46.91000 188.000
46.92500 193.000
46.94000 203.000
46.95500 187.000
46.97000 208.000
46.98500 204.000
47.00000 212.000
47.01500 208.000
47.03000 235.000
47.04500 237.000
47.06000 208.000
47.07500 203.000
47.09000 202.000
47.10500 187.000
47.12000 206.000
47.13500 194.000
47.15000 173.000
47.16500 196.000
47.18000 199.000
47.19500 226.000
47.21000 201.000
47.22500 189.000
47.24000 177.000
47.25500 168.000
47.27000 183.000
47.28500 205.000
47.30000 200.000
47.31500 187.000
47.33000 178.000
47.34500 193.000
47.36000 198.000
47.37500 181.000
47.39000 194.000
47.40500 189.000
47.42000 174.000
47.43500 183.000
47.45000 172.000
47.46500 167.000
47.48000 198.000
47.49500 198.000
47.51000 188.000
47.52500 186.000
47.54000 190.000
47.55500 181.000
47.57000 184.000
47.58500 219.000
47.60000 197.000
47.61500 200.000
47.63000 190.000
47.64500 195.000
47.66000 205.000
47.67500 209.000
47.69000 205.000
47.70500 226.000
47.72000 201.000
47.73500 208.000
47.75000 224.000
47.76500 222.000
47.78000 223.000
47.79500 191.000
47.81000 198.000
47.82500 192.000
47.84000 201.000
47.85500 194.000
47.87000 192.000
47.88500 199.000
47.90000 217.000
47.91500 228.000
47.93000 230.000
47.94500 232.000
47.96000 235.000
47.97500 212.000
47.99000 217.000
48.00500 197.000
48.02000 192.000
48.03500 185.000
48.05000 163.000
48.06500 169.000
48.08000 168.000
48.09500 162.000
48.11000 170.000
48.12500 187.000
48.14000 174.000
48.15500 165.000
48.17000 191.000
48.18500 189.000
48.20000 186.000
48.21500 187.000
48.23000 180.000
48.24500 177.000
48.26000 199.000
48.27500 176.000
48.29000 174.000
48.30500 202.000
48.32000 208.000
48.33500 204.000
48.35000 204.000
48.36500 185.000
48.38000 187.000
48.39500 182.000
48.41000 189.000
48.42500 211.000
48.44000 220.000
48.45500 215.000
48.47000 195.000
48.48500 190.000
48.50000 200.000
48.51500 196.000
48.53000 177.000
48.54500 197.000
48.56000 203.000
48.57500 183.000
48.59000 184.000
48.60500 195.000
48.62000 189.000
48.63500 192.000
48.65000 184.000
48.66500 177.000
48.68000 184.000
48.69500 201.000
48.71000 183.000
48.72500 177.000
48.74000 205.000
48.75500 187.000
48.77000 192.000
48.78500 209.000
48.80000 192.000
48.81500 191.000
48.83000 183.000
48.84500 180.000
48.86000 178.000
48.87500 163.000
48.89000 162.000
48.90500 165.000
48.92000 175.000
48.93500 185.000
48.95000 160.000
48.96500 183.000
48.98000 198.000
48.99500 177.000
49.01000 200.000
49.02500 199.000
49.04000 216.000
49.05500 210.000
49.07000 214.000
49.08500 185.000
49.10000 215.000
49.11500 212.000
49.13000 195.000
49.14500 187.000
49.16000 181.000
49.17500 200.000
49.19000 194.000
49.20500 188.000
49.22000 208.000
49.23500 212.000
49.25000 210.000
49.26500 183.000
49.28000 180.000
49.29500 209.000
49.31000 219.000
49.32500 213.000
49.34000 200.000
49.35500 177.000
49.37000 177.000
49.38500 193.000
49.40000 185.000
49.41500 181.000
49.43000 204.000
49.44500 177.000
49.46000 182.000
49.47500 176.000
49.49000 179.000
49.50500 177.000
49.52000 174.000
49.53500 177.000
49.55000 190.000
49.56500 159.000
49.58000 158.000
49.59500 170.000
49.61000 168.000
49.62500 171.000
49.64000 168.000
49.65500 157.000
49.67000 161.000
49.68500 164.000
49.70000 166.000
49.71500 171.000
49.73000 168.000
49.74500 182.000
49.76000 189.000
49.77500 179.000
49.79000 177.000
49.80500 190.000
49.82000 204.000
49.83500 198.000
49.85000 185.000
49.86500 196.000
49.88000 174.000
49.89500 186.000
49.91000 195.000
49.92500 172.000
49.94000 174.000
49.95500 174.000
49.97000 175.000
49.98500 175.000
50.00000 160.000
50.01500 157.000
50.03000 160.000
50.04500 202.000
50.06000 176.000
50.07500 168.000
50.09000 166.000
50.10500 170.000
50.12000 177.000
50.13500 178.000
50.15000 187.000
50.16500 189.000
50.18000 173.000
50.19500 188.000
50.21000 173.000
50.22500 175.000
50.24000 165.000
50.25500 189.000
50.27000 181.000
50.28500 168.000
50.30000 167.000
50.31500 181.000
50.33000 174.000
50.34500 188.000
50.36000 195.000
50.37500 191.000
50.39000 186.000
50.40500 172.000
50.42000 191.000
50.43500 173.000
50.45000 165.000
50.46500 166.000
50.48000 188.000
50.49500 175.000
50.51000 191.000
50.52500 162.000
50.54000 197.000
50.55500 191.000
50.57000 178.000
50.58500 178.000
50.60000 190.000
50.61500 186.000
50.63000 178.000
50.64500 209.000
50.66000 211.000
50.67500 207.000
50.69000 201.000
50.70500 209.000
50.72000 178.000
50.73500 198.000
50.75000 177.000
50.76500 174.000
50.78000 165.000
50.79500 180.000
50.81000 194.000
50.82500 178.000
50.84000 162.000
50.85500 170.000
50.87000 163.000
50.88500 179.000
50.90000 178.000
50.91500 173.000
50.93000 184.000
50.94500 184.000
50.96000 205.000
50.97500 170.000
50.99000 162.000
51.00500 179.000
51.02000 168.000
51.03500 144.000
51.05000 178.000
51.06500 181.000
51.08000 172.000
51.09500 169.000
51.11000 181.000
51.12500 175.000
51.14000 161.000
51.15500 178.000
51.17000 180.000
51.18500 172.000
51.20000 178.000
51.21500 168.000
51.23000 183.000
51.24500 167.000
51.26000 197.000
51.27500 209.000
51.29000 187.000
51.30500 181.000
51.32000 181.000
51.33500 194.000
51.35000 182.000
51.36500 187.000
51.38000 185.000
51.39500 194.000
51.41000 179.000
51.42500 184.000
51.44000 189.000
51.45500 177.000
51.47000 167.000
51.48500 167.000
51.50000 173.000
51.51500 189.000
51.53000 173.000
51.54500 187.000
51.56000 163.000
51.57500 179.000
51.59000 191.000
51.60500 187.000
51.62000 175.000
51.63500 180.000
51.65000 172.000
51.66500 191.000
51.68000 200.000
51.69500 195.000
51.71000 182.000
51.72500 172.000
51.74000 169.000
51.75500 184.000
51.77000 192.000
51.78500 188.000
51.80000 175.000
51.81500 174.000
51.83000 158.000
51.84500 176.000
51.86000 166.000
51.87500 173.000
51.89000 159.000
51.90500 170.000
51.92000 176.000
51.93500 169.000
51.95000 162.000
51.96500 159.000
51.98000 191.000
51.99500 190.000
52.01000 175.000
52.02500 180.000
52.04000 193.000
52.05500 181.000
52.07000 171.000
52.08500 167.000
52.10000 171.000
52.11500 170.000
52.13000 183.000
52.14500 174.000
52.16000 168.000
52.17500 170.000
52.19000 197.000
52.20500 191.000
52.22000 188.000
52.23500 187.000
52.25000 214.000
52.26500 228.000
52.28000 216.000
52.29500 218.000
52.31000 208.000
52.32500 213.000
52.34000 191.000
52.35500 208.000
52.37000 202.000
52.38500 190.000
52.40000 201.000
52.41500 199.000
52.43000 202.000
52.44500 203.000
52.46000 201.000
52.47500 186.000
52.49000 172.000
52.50500 189.000
52.52000 181.000
52.53500 176.000
52.55000 173.000
52.56500 170.000
52.58000 177.000
52.59500 164.000
52.61000 184.000
52.62500 180.000
52.64000 185.000
52.65500 169.000
52.67000 163.000
52.68500 171.000
52.70000 179.000
52.71500 180.000
52.73000 175.000
52.74500 198.000
52.76000 203.000
52.77500 190.000
52.79000 187.000
52.80500 200.000
52.82000 192.000
52.83500 184.000
52.85000 208.000
52.86500 182.000
52.88000 174.000
52.89500 187.000
52.91000 185.000
52.92500 169.000
52.94000 198.000
52.95500 188.000
52.97000 184.000
52.98500 226.000
53.00000 206.000
53.01500 215.000
53.03000 191.000
53.04500 194.000
53.06000 188.000
53.07500 196.000
53.09000 202.000
53.10500 184.000
53.12000 179.000
53.13500 196.000
53.15000 180.000
53.16500 201.000
53.18000 187.000
53.19500 186.000
53.21000 173.000
53.22500 169.000
53.24000 165.000
53.25500 169.000
53.27000 165.000
53.28500 177.000
53.30000 173.000
53.31500 184.000
53.33000 175.000
53.34500 190.000
53.36000 222.000
53.37500 241.000
53.39000 226.000
53.40500 232.000
53.42000 216.000
53.43500 211.000
53.45000 203.000
53.46500 203.000
53.48000 205.000
53.49500 202.000
53.51000 216.000
53.52500 214.000
53.54000 222.000
53.55500 199.000
53.57000 201.000
53.58500 212.000
53.60000 217.000
53.61500 188.000
53.63000 208.000
53.64500 182.000
53.66000 197.000
53.67500 210.000
53.69000 192.000
53.70500 189.000
53.72000 210.000
53.73500 176.000
53.75000 203.000
53.76500 180.000
53.78000 188.000
53.79500 210.000
53.81000 207.000
53.82500 200.000
53.84000 197.000
53.85500 194.000
53.87000 228.000
53.88500 210.000
53.90000 220.000
53.91500 213.000
53.93000 237.000
53.94500 263.000
53.96000 255.000
53.97500 255.000
53.99000 240.000
54.00500 228.000
54.02000 224.000
54.03500 219.000
54.05000 230.000
54.06500 203.000
54.08000 212.000
54.09500 220.000
54.11000 227.000
54.12500 248.000
54.14000 236.000
54.15500 232.000
54.17000 235.000
54.18500 224.000
54.20000 226.000
54.21500 225.000
54.23000 210.000
54.24500 191.000
54.26000 212.000
54.27500 199.000
54.29000 179.000
54.30500 198.000
54.32000 182.000
54.33500 200.000
54.35000 181.000
54.36500 190.000
54.38000 192.000
54.39500 181.000
54.41000 181.000
54.42500 181.000
54.44000 165.000
54.45500 171.000
54.47000 184.000
54.48500 208.000
54.50000 169.000
54.51500 198.000
54.53000 174.000
54.54500 190.000
54.56000 166.000
54.57500 174.000
54.59000 183.000
54.60500 209.000
54.62000 202.000
54.63500 200.000
54.65000 193.000
54.66500 189.000
54.68000 199.000
54.69500 204.000
54.71000 180.000
54.72500 200.000
54.74000 201.000
54.75500 196.000
54.77000 189.000
54.78500 209.000
54.80000 224.000
54.81500 217.000
54.83000 212.000
54.84500 192.000
54.86000 185.000
54.87500 167.000
54.89000 184.000
54.90500 172.000
54.92000 183.000
54.93500 179.000
54.95000 183.000
54.96500 185.000
54.98000 182.000
54.99500 178.000
55.01000 203.000
55.02500 189.000
55.04000 185.000
55.05500 181.000
55.07000 184.000
55.08500 203.000
55.10000 189.000
55.11500 178.000
55.13000 199.000
55.14500 192.000
55.16000 199.000
55.17500 190.000
55.19000 192.000
55.20500 177.000
55.22000 176.000
55.23500 176.000
55.25000 190.000
55.26500 190.000
55.28000 167.000
55.29500 202.000
55.31000 174.000
55.32500 183.000
55.34000 205.000
55.35500 188.000
55.37000 189.000
55.38500 176.000
55.40000 177.000
55.41500 193.000
55.43000 174.000
55.44500 193.000
55.46000 200.000
55.47500 199.000
55.49000 161.000
55.50500 176.000
55.52000 173.000
55.53500 185.000
55.55000 169.000
55.56500 178.000
55.58000 179.000
55.59500 186.000
55.61000 191.000
55.62500 197.000
55.64000 194.000
55.65500 168.000
55.67000 196.000
55.68500 203.000
55.70000 203.000
55.71500 205.000
55.73000 197.000
55.74500 218.000
55.76000 221.000
55.77500 198.000
55.79000 198.000
55.80500 220.000
55.82000 198.000
55.83500 203.000
55.85000 193.000
55.86500 172.000
55.88000 194.000
55.89500 196.000
55.91000 199.000
55.92500 178.000
55.94000 187.000
55.95500 181.000
55.97000 184.000
55.98500 177.000
56.00000 186.000
56.01500 185.000
56.03000 182.000
56.04500 174.000
56.06000 185.000
56.07500 202.000
56.09000 181.000
56.10500 186.000
56.12000 179.000
56.13500 190.000
56.15000 178.000
56.16500 199.000
56.18000 192.000
56.19500 180.000
56.21000 190.000
56.22500 191.000
56.24000 183.000
56.25500 174.000
56.27000 183.000
56.28500 193.000
56.30000 186.000
56.31500 161.000
56.33000 170.000
56.34500 163.000
56.36000 167.000
56.37500 159.000
56.39000 183.000
56.40500 164.000
56.42000 182.000
56.43500 178.000
56.45000 199.000
56.46500 182.000
56.48000 162.000
56.49500 175.000
56.51000 189.000
56.52500 180.000
56.54000 172.000
56.55500 182.000
56.57000 170.000
56.58500 191.000
56.60000 176.000
56.61500 164.000
56.63000 181.000
56.64500 184.000
56.66000 164.000
56.67500 172.000
56.69000 165.000
56.70500 178.000
56.72000 176.000
56.73500 173.000
56.75000 184.000
56.76500 171.000
56.78000 163.000
56.79500 184.000
56.81000 181.000
56.82500 175.000
56.84000 205.000
56.85500 207.000
56.87000 193.000
56.88500 174.000
56.90000 183.000
56.91500 162.000
56.93000 179.000
56.94500 184.000
56.96000 169.000
56.97500 187.000
56.99000 176.000
57.00500 182.000
57.02000 178.000
57.03500 161.000
57.05000 176.000
57.06500 179.000
57.08000 165.000
57.09500 173.000
57.11000 187.000
57.12500 191.000
57.14000 193.000
57.15500 166.000
57.17000 177.000
57.18500 186.000
57.20000 171.000
57.21500 154.000
57.23000 161.000
57.24500 162.000
57.26000 166.000
57.27500 177.000
57.29000 173.000
57.30500 178.000
57.32000 171.000
57.33500 186.000
57.35000 187.000
57.36500 172.000
57.38000 166.000
57.39500 200.000
57.41000 181.000
57.42500 184.000
57.44000 174.000
57.45500 178.000
57.47000 178.000
57.48500 181.000
57.50000 174.000
57.51500 180.000
57.53000 179.000
57.54500 189.000
57.56000 173.000
57.57500 176.000
57.59000 181.000
57.60500 174.000
57.62000 191.000
57.63500 166.000
57.65000 184.000
57.66500 183.000
57.68000 185.000
57.69500 196.000
57.71000 196.000
57.72500 197.000
57.74000 186.000
57.75500 184.000
57.77000 183.000
57.78500 184.000
57.80000 173.000
57.81500 214.000
57.83000 188.000
57.84500 183.000
57.86000 184.000
57.87500 212.000
57.89000 188.000
57.90500 171.000
57.92000 181.000
57.93500 180.000
57.95000 194.000
57.96500 186.000
57.98000 190.000
57.99500 192.000
58.01000 191.000
58.02500 176.000
58.04000 203.000
58.05500 180.000
58.07000 193.000
58.08500 204.000
58.10000 199.000
58.11500 197.000
58.13000 198.000
58.14500 196.000
58.16000 198.000
58.17500 202.000
58.19000 215.000
58.20500 196.000
58.22000 208.000
58.23500 203.000
58.25000 201.000
58.26500 174.000
58.28000 156.000
58.29500 177.000
58.31000 173.000
58.32500 166.000
58.34000 187.000
58.35500 183.000
58.37000 164.000
58.38500 180.000
58.40000 198.000
58.41500 185.000
58.43000 201.000
58.44500 189.000
58.46000 205.000
58.47500 210.000
58.49000 206.000
58.50500 185.000
58.52000 204.000
58.53500 181.000
58.55000 185.000
58.56500 165.000
58.58000 181.000
58.59500 188.000
58.61000 203.000
58.62500 195.000
58.64000 186.000
58.65500 187.000
58.67000 159.000
58.68500 165.000
58.70000 177.000
58.71500 172.000
58.73000 147.000
58.74500 147.000
58.76000 154.000
58.77500 157.000
58.79000 161.000
58.80500 157.000
58.82000 160.000
58.83500 165.000
58.85000 155.000
58.86500 170.000
58.88000 158.000
58.89500 143.000
58.91000 168.000
58.92500 160.000
58.94000 157.000
58.95500 151.000
58.97000 156.000
58.98500 153.000
59.00000 145.000
59.01500 133.000
59.03000 153.000
59.04500 152.000
59.06000 148.000
59.07500 163.000
59.09000 170.000
59.10500 148.000
59.12000 153.000
59.13500 153.000
59.15000 149.000
59.16500 152.000
59.18000 173.000
59.19500 162.000
59.21000 135.000
59.22500 143.000
59.24000 161.000
59.25500 152.000
59.27000 160.000
59.28500 167.000
59.30000 155.000
59.31500 137.000
59.33000 145.000
59.34500 152.000
59.36000 156.000
59.37500 158.000
59.39000 147.000
59.40500 157.000
59.42000 169.000
59.43500 155.000
59.45000 164.000
59.46500 179.000
59.48000 153.000
59.49500 148.000
59.51000 151.000
59.52500 162.000
59.54000 154.000
59.55500 145.000
59.57000 153.000
59.58500 152.000
59.60000 155.000
59.61500 150.000
59.63000 137.000
59.64500 152.000
59.66000 147.000
59.67500 178.000
59.69000 150.000
59.70500 148.000
59.72000 149.000
59.73500 165.000
59.75000 177.000
59.76500 148.000
59.78000 140.000
59.79500 152.000
59.81000 161.000
59.82500 167.000
59.84000 164.000
59.85500 143.000
59.87000 155.000
59.88500 175.000
59.90000 154.000
59.91500 177.000
59.93000 180.000
59.94500 155.000
59.96000 160.000
59.97500 164.000
59.99000 153.000
60.00500 145.000
60.02000 148.000
60.03500 142.000
60.05000 127.000
60.06500 156.000
60.08000 148.000
60.09500 145.000
60.11000 143.000
60.12500 143.000
60.14000 152.000
60.15500 150.000
60.17000 158.000
60.18500 162.000
60.20000 144.000
60.21500 128.000
60.23000 148.000
60.24500 159.000
60.26000 149.000
60.27500 136.000
60.29000 147.000
60.30500 149.000
60.32000 154.000
60.33500 138.000
60.35000 139.000
60.36500 148.000
60.38000 164.000
60.39500 131.000
60.41000 146.000
60.42500 161.000
60.44000 154.000
60.45500 137.000
60.47000 156.000
60.48500 133.000
60.50000 134.000
60.51500 126.000
60.53000 146.000
60.54500 147.000
60.56000 136.000
60.57500 147.000
60.59000 153.000
60.60500 123.000
60.62000 135.000
60.63500 142.000
60.65000 145.000
60.66500 139.000
60.68000 148.000
60.69500 135.000
60.71000 135.000
60.72500 136.000
60.74000 142.000
60.75500 151.000
60.77000 124.000
60.78500 132.000
60.80000 151.000
60.81500 138.000
60.83000 124.000
60.84500 145.000
60.86000 158.000
60.87500 147.000
60.89000 148.000
60.90500 148.000
60.92000 138.000
60.93500 135.000
60.95000 136.000
60.96500 125.000
60.98000 142.000
60.99500 154.000
61.01000 163.000
61.02500 135.000
61.04000 120.000
61.05500 124.000
61.07000 133.000
61.08500 157.000
61.10000 148.000
61.11500 133.000
61.13000 145.000
61.14500 145.000
61.16000 146.000
61.17500 145.000
61.19000 130.000
61.20500 134.000
61.22000 151.000
61.23500 140.000
61.25000 147.000
61.26500 142.000
61.28000 139.000
61.29500 139.000
61.31000 138.000
61.32500 142.000
61.34000 154.000
61.35500 149.000
61.37000 156.000
61.38500 162.000
61.40000 138.000
61.41500 148.000
61.43000 156.000
61.44500 137.000
61.46000 143.000
61.47500 159.000
61.49000 146.000
61.50500 130.000
61.52000 134.000
61.53500 137.000
61.55000 152.000
61.56500 139.000
61.58000 140.000
61.59500 146.000
61.61000 142.000
61.62500 149.000
61.64000 120.000
61.65500 139.000
61.67000 138.000
61.68500 119.000
61.70000 135.000
61.71500 155.000
61.73000 154.000
61.74500 157.000
61.76000 161.000
61.77500 157.000
61.79000 161.000
61.80500 136.000
61.82000 146.000
61.83500 128.000
61.85000 133.000
61.86500 149.000
61.88000 144.000
61.89500 144.000
61.91000 136.000
61.92500 162.000
61.94000 147.000
61.95500 153.000
61.97000 142.000
61.98500 148.000
