2.00000    1115.000
2.01500    1051.000
2.03000    1038.000
2.04500    1058.000
2.06000    996.000
2.07500    986.000
2.09000    991.000
2.10500    974.000
2.12000    953.000
2.13500    918.000
2.15000    901.000
2.16500    926.000
2.18000    876.000
2.19500    832.000
2.21000    776.000
2.22500    764.000
2.24000    818.000
2.25500    760.000
2.27000    776.000
2.28500    731.000
2.30000    725.000
2.31500    722.000
2.33000    677.000
2.34500    674.000
2.36000    667.000
2.37500    648.000
2.39000    631.000
2.40500    618.000
2.42000    627.000
2.43500    622.000
2.45000    624.000
2.46500    621.000
2.48000    596.000
2.49500    603.000
2.51000    574.000
2.52500    594.000
2.54000    584.000
2.55500    567.000
2.57000    570.000
2.58500    535.000
2.60000    535.000
2.61500    505.000
2.63000    499.000
2.64500    526.000
2.66000    511.000
2.67500    507.000
2.69000    502.000
2.70500    508.000
2.72000    483.000
2.73500    453.000
2.75000    471.000
2.76500    491.000
2.78000    478.000
2.79500    461.000
2.81000    424.000
2.82500    417.000
2.84000    427.000
2.85500    424.000
2.87000    441.000
2.88500    413.000
2.90000    455.000
2.91500    403.000
2.93000    394.000
2.94500    427.000
2.96000    380.000
2.97500    388.000
2.99000    369.000
3.00500    386.000
3.02000    386.000
3.03500    383.000
3.05000    359.000
3.06500    346.000
3.08000    335.000
3.09500    385.000
3.11000    375.000
3.12500    371.000
3.14000    354.000
3.15500    383.000
3.17000    350.000
3.18500    373.000
3.20000    341.000
3.21500    369.000
3.23000    337.000
3.24500    339.000
3.26000    343.000
3.27500    324.000
3.29000    322.000
3.30500    319.000
3.32000    320.000
3.33500    329.000
3.35000    320.000
3.36500    326.000
3.38000    305.000
3.39500    306.000
3.41000    321.000
3.42500    304.000
3.44000    295.000
3.45500    310.000
3.47000    325.000
3.48500    324.000
3.50000    305.000
3.51500    306.000
3.53000    309.000
3.54500    299.000
3.56000    310.000
3.57500    288.000
3.59000    294.000
3.60500    294.000
3.62000    295.000
3.63500    308.000
3.65000    290.000
3.66500    284.000
3.68000    303.000
3.69500    298.000
3.71000    276.000
3.72500    295.000
3.74000    298.000
3.75500    255.000
3.77000    256.000
3.78500    283.000
3.80000    273.000
3.81500    281.000
3.83000    272.000
3.84500    260.000
3.86000    272.000
3.87500    283.000
3.89000    278.000
3.90500    262.000
3.92000    253.000
3.93500    253.000
3.95000    271.000
3.96500    252.000
3.98000    246.000
3.99500    260.000
4.01000    247.000
4.02500    266.000
4.04000    259.000
4.05500    240.000
4.07000    248.000
4.08500    252.000
4.10000    243.000
4.11500    231.000
4.13000    247.000
4.14500    275.000
4.16000    247.000
4.17500    253.000
4.19000    244.000
4.20500    235.000
4.22000    193.000
4.23500    226.000
4.25000    246.000
4.26500    253.000
4.28000    236.000
4.29500    236.000
4.31000    242.000
4.32500    246.000
4.34000    243.000
4.35500    229.000
4.37000    227.000
4.38500    240.000
4.40000    238.000
4.41500    239.000
4.43000    230.000
4.44500    209.000
4.46000    230.000
4.47500    239.000
4.49000    213.000
4.50500    217.000
4.52000    213.000
4.53500    243.000
4.55000    229.000
4.56500    233.000
4.58000    231.000
4.59500    199.000
4.61000    224.000
4.62500    222.000
4.64000    223.000
4.65500    231.000
4.67000    211.000
4.68500    232.000
4.70000    223.000
4.71500    218.000
4.73000    246.000
4.74500    206.000
4.76000    218.000
4.77500    229.000
4.79000    250.000
4.80500    230.000
4.82000    218.000
4.83500    225.000
4.85000    225.000
4.86500    217.000
4.88000    221.000
4.89500    235.000
4.91000    247.000
4.92500    241.000
4.94000    222.000
4.95500    207.000
4.97000    226.000
4.98500    198.000
5.00000    197.000
5.01500    230.000
5.03000    213.000
5.04500    192.000
5.06000    204.000
5.07500    205.000
5.09000    221.000
5.10500    223.000
5.12000    219.000
5.13500    222.000
5.15000    198.000
5.16500    204.000
5.18000    199.000
5.19500    198.000
5.21000    206.000
5.22500    200.000
5.24000    202.000
5.25500    204.000
5.27000    223.000
5.28500    211.000
5.30000    220.000
5.31500    197.000
5.33000    225.000
5.34500    211.000
5.36000    207.000
5.37500    211.000
5.39000    206.000
5.40500    194.000
5.42000    221.000
5.43500    207.000
5.45000    211.000
5.46500    228.000
5.48000    189.000
5.49500    195.000
5.51000    201.000
5.52500    205.000
5.54000    207.000
5.55500    218.000
5.57000    222.000
5.58500    208.000
5.60000    203.000
5.61500    216.000
5.63000    208.000
5.64500    186.000
5.66000    225.000
5.67500    245.000
5.69000    203.000
5.70500    215.000
5.72000    213.000
5.73500    201.000
5.75000    208.000
5.76500    199.000
5.78000    198.000
5.79500    199.000
5.81000    192.000
5.82500    199.000
5.84000    204.000
5.85500    221.000
5.87000    219.000
5.88500    201.000
5.90000    197.000
5.91500    224.000
5.93000    188.000
5.94500    199.000
5.96000    193.000
5.97500    206.000
5.99000    195.000
6.00500    218.000
6.02000    189.000
6.03500    190.000
6.05000    210.000
6.06500    201.000
6.08000    203.000
6.09500    199.000
6.11000    220.000
6.12500    221.000
6.14000    203.000
6.15500    217.000
6.17000    186.000
6.18500    194.000
6.20000    208.000
6.21500    198.000
6.23000    213.000
6.24500    199.000
6.26000    202.000
6.27500    208.000
6.29000    207.000
6.30500    178.000
6.32000    187.000
6.33500    207.000
6.35000    185.000
6.36500    197.000
6.38000    199.000
6.39500    207.000
6.41000    193.000
6.42500    194.000
6.44000    205.000
6.45500    203.000
6.47000    194.000
6.48500    211.000
6.50000    188.000
6.51500    175.000
6.53000    199.000
6.54500    193.000
6.56000    184.000
6.57500    199.000
6.59000    188.000
6.60500    190.000
6.62000    196.000
6.63500    202.000
6.65000    206.000
6.66500    219.000
6.68000    212.000
6.69500    224.000
6.71000    214.000
6.72500    215.000
6.74000    184.000
6.75500    186.000
6.77000    210.000
6.78500    215.000
6.80000    179.000
6.81500    193.000
6.83000    207.000
6.84500    234.000
6.86000    197.000
6.87500    214.000
6.89000    212.000
6.90500    192.000
6.92000    190.000
6.93500    199.000
6.95000    183.000
6.96500    177.000
6.98000    206.000
6.99500    212.000
7.01000    217.000
7.02500    210.000
7.04000    217.000
7.05500    220.000
7.07000    213.000
7.08500    192.000
7.10000    189.000
7.11500    214.000
7.13000    193.000
7.14500    194.000
7.16000    198.000
7.17500    197.000
7.19000    217.000
7.20500    214.000
7.22000    210.000
7.23500    198.000
7.25000    208.000
7.26500    216.000
7.28000    197.000
7.29500    179.000
7.31000    195.000
7.32500    199.000
7.34000    195.000
7.35500    208.000
7.37000    211.000
7.38500    208.000
7.40000    207.000
7.41500    207.000
7.43000    217.000
7.44500    216.000
7.46000    214.000
7.47500    228.000
7.49000    221.000
7.50500    244.000
7.52000    237.000
7.53500    212.000
7.55000    222.000
7.56500    211.000
7.58000    229.000
7.59500    251.000
7.61000    247.000
7.62500    222.000
7.64000    228.000
7.65500    264.000
7.67000    232.000
7.68500    228.000
7.70000    243.000
7.71500    240.000
7.73000    249.000
7.74500    267.000
7.76000    262.000
7.77500    256.000
7.79000    267.000
7.80500    276.000
7.82000    256.000
7.83500    276.000
7.85000    266.000
7.86500    285.000
7.88000    309.000
7.89500    293.000
7.91000    304.000
7.92500    287.000
7.94000    298.000
7.95500    281.000
7.97000    277.000
7.98500    304.000
8.00000    277.000
8.01500    271.000
8.03000    281.000
8.04500    301.000
8.06000    308.000
8.07500    299.000
8.09000    312.000
8.10500    283.000
8.12000    295.000
8.13500    296.000
8.15000    303.000
8.16500    306.000
8.18000    312.000
8.19500    299.000
8.21000    306.000
8.22500    281.000
8.24000    321.000
8.25500    309.000
8.27000    312.000
8.28500    306.000
8.30000    310.000
8.31500    306.000
8.33000    279.000
8.34500    304.000
8.36000    285.000
8.37500    290.000
8.39000    297.000
8.40500    297.000
8.42000    285.000
8.43500    295.000
8.45000    261.000
8.46500    276.000
8.48000    266.000
8.49500    251.000
8.51000    291.000
8.52500    271.000
8.54000    274.000
8.55500    272.000
8.57000    275.000
8.58500    286.000
8.60000    282.000
8.61500    267.000
8.63000    255.000
8.64500    260.000
8.66000    253.000
8.67500    246.000
8.69000    236.000
8.70500    251.000
8.72000    246.000
8.73500    257.000
8.75000    234.000
8.76500    216.000
8.78000    227.000
8.79500    239.000
8.81000    220.000
8.82500    219.000
8.84000    236.000
8.85500    223.000
8.87000    221.000
8.88500    243.000
8.90000    238.000
8.91500    230.000
8.93000    213.000
8.94500    210.000
8.96000    218.000
8.97500    226.000
8.99000    200.000
9.00500    199.000
9.02000    228.000
9.03500    225.000
9.05000    204.000
9.06500    225.000
9.08000    211.000
9.09500    208.000
9.11000    229.000
9.12500    220.000
9.14000    210.000
9.15500    209.000
9.17000    196.000
9.18500    199.000
9.20000    207.000
9.21500    202.000
9.23000    207.000
9.24500    208.000
9.26000    207.000
9.27500    201.000
9.29000    199.000
9.30500    185.000
9.32000    199.000
9.33500    202.000
9.35000    207.000
9.36500    188.000
9.38000    206.000
9.39500    194.000
9.41000    208.000
9.42500    186.000
9.44000    199.000
9.45500    201.000
9.47000    222.000
9.48500    192.000
9.50000    193.000
9.51500    187.000
9.53000    189.000
9.54500    184.000
9.56000    190.000
9.57500    200.000
9.59000    208.000
9.60500    200.000
9.62000    204.000
9.63500    195.000
9.65000    190.000
9.66500    193.000
9.68000    214.000
9.69500    203.000
9.71000    200.000
9.72500    183.000
9.74000    216.000
9.75500    193.000
9.77000    195.000
9.78500    183.000
9.80000    186.000
9.81500    185.000
9.83000    187.000
9.84500    213.000
9.86000    189.000
9.87500    174.000
9.89000    204.000
9.90500    212.000
9.92000    199.000
9.93500    192.000
9.95000    184.000
9.96500    182.000
9.98000    178.000
9.99500    198.000
10.01000    202.000
10.02500    193.000
10.04000    197.000
10.05500    201.000
10.07000    199.000
10.08500    192.000
10.10000    198.000
10.11500    204.000
10.13000    161.000
10.14500    186.000
10.16000    204.000
10.17500    211.000
10.19000    207.000
10.20500    208.000
10.22000    190.000
10.23500    195.000
10.25000    197.000
10.26500    181.000
10.28000    184.000
10.29500    206.000
10.31000    219.000
10.32500    200.000
10.34000    208.000
10.35500    230.000
10.37000    199.000
10.38500    215.000
10.40000    216.000
10.41500    202.000
10.43000    203.000
10.44500    208.000
10.46000    211.000
10.47500    202.000
10.49000    189.000
10.50500    202.000
10.52000    196.000
10.53500    197.000
10.55000    182.000
10.56500    200.000
10.58000    185.000
10.59500    176.000
10.61000    186.000
10.62500    204.000
10.64000    185.000
10.65500    184.000
10.67000    179.000
10.68500    198.000
10.70000    198.000
10.71500    198.000
10.73000    213.000
10.74500    196.000
10.76000    189.000
10.77500    171.000
10.79000    186.000
10.80500    183.000
10.82000    205.000
10.83500    207.000
10.85000    184.000
10.86500    182.000
10.88000    190.000
10.89500    204.000
10.91000    195.000
10.92500    181.000
10.94000    190.000
10.95500    175.000
10.97000    174.000
10.98500    206.000
11.00000    198.000
11.01500    181.000
11.03000    182.000
11.04500    182.000
11.06000    185.000
11.07500    189.000
11.09000    173.000
11.10500    166.000
11.12000    175.000
11.13500    192.000
11.15000    217.000
11.16500    212.000
11.18000    211.000
11.19500    188.000
11.21000    179.000
11.22500    167.000
11.24000    193.000
11.25500    178.000
11.27000    180.000
11.28500    185.000
11.30000    183.000
11.31500    190.000
11.33000    201.000
11.34500    214.000
11.36000    193.000
11.37500    199.000
11.39000    205.000
11.40500    193.000
11.42000    205.000
11.43500    207.000
11.45000    204.000
11.46500    204.000
11.48000    206.000
11.49500    197.000
11.51000    203.000
11.52500    192.000
11.54000    194.000
11.55500    186.000
11.57000    196.000
11.58500    208.000
11.60000    191.000
11.61500    195.000
11.63000    200.000
11.64500    196.000
11.66000    218.000
11.67500    214.000
11.69000    203.000
11.70500    199.000
11.72000    192.000
11.73500    195.000
11.75000    215.000
11.76500    220.000
11.78000    208.000
11.79500    208.000
11.81000    199.000
11.82500    218.000
11.84000    212.000
11.85500    209.000
11.87000    208.000
11.88500    195.000
11.90000    189.000
11.91500    208.000
11.93000    223.000
11.94500    228.000
11.96000    237.000
11.97500    203.000
11.99000    215.000
12.00500    222.000
12.02000    215.000
12.03500    216.000
12.05000    191.000
12.06500    196.000
12.08000    222.000
12.09500    224.000
12.11000    219.000
12.12500    215.000
12.14000    230.000
12.15500    207.000
12.17000    223.000
12.18500    194.000
12.20000    215.000
12.21500    201.000
12.23000    211.000
12.24500    224.000
12.26000    219.000
12.27500    222.000
12.29000    201.000
12.30500    194.000
12.32000    222.000
12.33500    208.000
12.35000    204.000
12.36500    213.000
12.38000    189.000
12.39500    205.000
12.41000    195.000
12.42500    199.000
12.44000    207.000
12.45500    199.000
12.47000    203.000
12.48500    199.000
12.50000    218.000
12.51500    198.000
12.53000    200.000
12.54500    207.000
12.56000    206.000
12.57500    196.000
12.59000    202.000
12.60500    200.000
12.62000    201.000
12.63500    188.000
12.65000    190.000
12.66500    173.000
12.68000    170.000
12.69500    190.000
12.71000    195.000
12.72500    181.000
12.74000    191.000
12.75500    179.000
12.77000    184.000
12.78500    185.000
12.80000    194.000
12.81500    192.000
12.83000    193.000
12.84500    195.000
12.86000    194.000
12.87500    175.000
12.89000    183.000
12.90500    187.000
12.92000    210.000
12.93500    189.000
12.95000    183.000
12.96500    193.000
12.98000    196.000
12.99500    188.000
13.01000    193.000
13.02500    198.000
13.04000    198.000
13.05500    173.000
13.07000    195.000
13.08500    204.000
13.10000    193.000
13.11500    192.000
13.13000    183.000
13.14500    168.000
13.16000    209.000
13.17500    191.000
13.19000    176.000
13.20500    195.000
13.22000    199.000
13.23500    187.000
13.25000    178.000
13.26500    170.000
13.28000    171.000
13.29500    183.000
13.31000    174.000
13.32500    190.000
13.34000    192.000
13.35500    183.000
13.37000    198.000
13.38500    176.000
13.40000    196.000
13.41500    201.000
13.43000    197.000
13.44500    175.000
13.46000    179.000
13.47500    179.000
13.49000    191.000
13.50500    195.000
13.52000    191.000
13.53500    197.000
13.55000    188.000
13.56500    197.000
13.58000    182.000
13.59500    188.000
13.61000    191.000
13.62500    186.000
13.64000    171.000
13.65500    191.000
13.67000    196.000
13.68500    198.000
13.70000    179.000
13.71500    190.000
13.73000    189.000
13.74500    174.000
13.76000    194.000
13.77500    188.000
13.79000    200.000
13.80500    199.000
13.82000    191.000
13.83500    213.000
13.85000    188.000
13.86500    202.000
13.88000    208.000
13.89500    205.000
13.91000    209.000
13.92500    197.000
13.94000    174.000
13.95500    191.000
13.97000    206.000
13.98500    204.000
14.00000    193.000
14.01500    197.000
14.03000    166.000
14.04500    185.000
14.06000    210.000
14.07500    192.000
14.09000    198.000
14.10500    199.000
14.12000    194.000
14.13500    213.000
14.15000    193.000
14.16500    191.000
14.18000    201.000
14.19500    196.000
14.21000    202.000
14.22500    201.000
14.24000    196.000
14.25500    211.000
14.27000    194.000
14.28500    191.000
14.30000    182.000
14.31500    197.000
14.33000    199.000
14.34500    203.000
14.36000    206.000
14.37500    183.000
14.39000    200.000
14.40500    210.000
14.42000    201.000
14.43500    202.000
14.45000    192.000
14.46500    194.000
14.48000    209.000
14.49500    195.000
14.51000    192.000
14.52500    192.000
14.54000    206.000
14.55500    213.000
14.57000    200.000
14.58500    185.000
14.60000    195.000
14.61500    200.000
14.63000    175.000
14.64500    197.000
14.66000    202.000
14.67500    206.000
14.69000    202.000
14.70500    190.000
14.72000    211.000
14.73500    206.000
14.75000    187.000
14.76500    199.000
14.78000    192.000
14.79500    187.000
14.81000    209.000
14.82500    205.000
14.84000    201.000
14.85500    211.000
14.87000    199.000
14.88500    189.000
14.90000    201.000
14.91500    186.000
14.93000    200.000
14.94500    207.000
14.96000    203.000
14.97500    196.000
14.99000    181.000
15.00500    182.000
15.02000    207.000
15.03500    199.000
15.05000    195.000
15.06500    194.000
15.08000    193.000
15.09500    184.000
15.11000    180.000
15.12500    182.000
15.14000    183.000
15.15500    197.000
15.17000    201.000
15.18500    197.000
15.20000    166.000
15.21500    192.000
15.23000    198.000
15.24500    199.000
15.26000    184.000
15.27500    192.000
15.29000    185.000
15.30500    185.000
15.32000    191.000
15.33500    186.000
15.35000    169.000
15.36500    189.000
15.38000    186.000
15.39500    171.000
15.41000    179.000
15.42500    196.000
15.44000    185.000
15.45500    186.000
15.47000    181.000
15.48500    179.000
15.50000    188.000
15.51500    196.000
15.53000    193.000
15.54500    180.000
15.56000    170.000
15.57500    183.000
15.59000    215.000
15.60500    195.000
15.62000    188.000
15.63500    175.000
15.65000    188.000
15.66500    197.000
15.68000    204.000
15.69500    187.000
15.71000    200.000
15.72500    205.000
15.74000    181.000
15.75500    202.000
15.77000    175.000
15.78500    189.000
15.80000    195.000
15.81500    195.000
15.83000    190.000
15.84500    196.000
15.86000    186.000
15.87500    197.000
15.89000    192.000
15.90500    192.000
15.92000    201.000
15.93500    195.000
15.95000    170.000
15.96500    175.000
15.98000    188.000
15.99500    183.000
16.01000    202.000
16.02500    193.000
16.04000    192.000
16.05500    199.000
16.07000    197.000
16.08500    198.000
16.10000    212.000
16.11500    197.000
16.13000    181.000
16.14500    178.000
16.16000    198.000
16.17500    221.000
16.19000    217.000
16.20500    219.000
16.22000    216.000
16.23500    216.000
16.25000    218.000
16.26500    173.000
16.28000    187.000
16.29500    185.000
16.31000    192.000
16.32500    189.000
16.34000    203.000
16.35500    211.000
16.37000    203.000
16.38500    204.000
16.40000    183.000
16.41500    205.000
16.43000    229.000
16.44500    211.000
16.46000    183.000
16.47500    236.000
16.49000    214.000
16.50500    195.000
16.52000    187.000
16.53500    186.000
16.55000    194.000
16.56500    219.000
16.58000    214.000
16.59500    204.000
16.61000    195.000
16.62500    216.000
16.64000    209.000
16.65500    194.000
16.67000    209.000
16.68500    206.000
16.70000    203.000
16.71500    203.000
16.73000    183.000
16.74500    193.000
16.76000    206.000
16.77500    202.000
16.79000    205.000
16.80500    197.000
16.82000    195.000
16.83500    193.000
16.85000    186.000
16.86500    189.000
16.88000    208.000
16.89500    193.000
16.91000    188.000
16.92500    200.000
16.94000    194.000
16.95500    187.000
16.97000    205.000
16.98500    207.000
17.00000    203.000
17.01500    221.000
17.03000    219.000
17.04500    201.000
17.06000    202.000
17.07500    210.000
17.09000    208.000
17.10500    208.000
17.12000    217.000
17.13500    230.000
17.15000    218.000
17.16500    205.000
17.18000    198.000
17.19500    220.000
17.21000    204.000
17.22500    194.000
17.24000    200.000
17.25500    204.000
17.27000    208.000
17.28500    209.000
17.30000    191.000
17.31500    193.000
17.33000    216.000
17.34500    231.000
17.36000    211.000
17.37500    206.000
17.39000    215.000
17.40500    206.000
17.42000    206.000
17.43500    214.000
17.45000    225.000
17.46500    199.000
17.48000    208.000
17.49500    215.000
17.51000    212.000
17.52500    198.000
17.54000    198.000
17.55500    189.000
17.57000    193.000
17.58500    214.000
17.60000    198.000
17.61500    197.000
17.63000    202.000
17.64500    221.000
17.66000    211.000
17.67500    207.000
17.69000    237.000
17.70500    204.000
17.72000    202.000
17.73500    228.000
17.75000    192.000
17.76500    207.000
17.78000    220.000
17.79500    221.000
17.81000    236.000
17.82500    192.000
17.84000    191.000
17.85500    226.000
17.87000    203.000
17.88500    202.000
17.90000    204.000
17.91500    215.000
17.93000    217.000
17.94500    214.000
17.96000    212.000
17.97500    234.000
17.99000    216.000
18.00500    227.000
18.02000    207.000
18.03500    219.000
18.05000    233.000
18.06500    228.000
18.08000    202.000
18.09500    196.000
18.11000    205.000
18.12500    213.000
18.14000    203.000
18.15500    195.000
18.17000    213.000
18.18500    213.000
18.20000    215.000
18.21500    233.000
18.23000    236.000
18.24500    233.000
18.26000    225.000
18.27500    221.000
18.29000    220.000
18.30500    215.000
18.32000    236.000
18.33500    222.000
18.35000    214.000
18.36500    204.000
18.38000    206.000
18.39500    224.000
18.41000    201.000
18.42500    209.000
18.44000    217.000
18.45500    204.000
18.47000    198.000
18.48500    221.000
18.50000    220.000
18.51500    219.000
18.53000    209.000
18.54500    210.000
18.56000    208.000
18.57500    238.000
18.59000    225.000
18.60500    218.000
18.62000    200.000
18.63500    213.000
18.65000    222.000
18.66500    205.000
18.68000    223.000
18.69500    219.000
18.71000    229.000
18.72500    251.000
18.74000    235.000
18.75500    206.000
18.77000    217.000
18.78500    219.000
18.80000    225.000
18.81500    240.000
18.83000    224.000
18.84500    209.000
18.86000    224.000
18.87500    224.000
18.89000    227.000
18.90500    220.000
18.92000    235.000
18.93500    217.000
18.95000    198.000
18.96500    229.000
18.98000    207.000
18.99500    222.000
19.01000    239.000
19.02500    224.000
19.04000    213.000
19.05500    222.000
19.07000    226.000
19.08500    225.000
19.10000    215.000
19.11500    207.000
19.13000    229.000
19.14500    248.000
19.16000    224.000
19.17500    231.000
19.19000    252.000
19.20500    262.000
19.22000    213.000
19.23500    221.000
19.25000    212.000
19.26500    218.000
19.28000    231.000
19.29500    254.000
19.31000    206.000
19.32500    230.000
19.34000    234.000
19.35500    238.000
19.37000    232.000
19.38500    242.000
19.40000    221.000
19.41500    207.000
19.43000    220.000
19.44500    244.000
19.46000    232.000
19.47500    241.000
19.49000    228.000
19.50500    263.000
19.52000    249.000
19.53500    227.000
19.55000    235.000
19.56500    221.000
19.58000    221.000
19.59500    263.000
19.61000    241.000
19.62500    257.000
19.64000    225.000
19.65500    214.000
19.67000    246.000
19.68500    228.000
19.70000    207.000
19.71500    229.000
19.73000    245.000
19.74500    240.000
19.76000    221.000
19.77500    242.000
19.79000    255.000
19.80500    237.000
19.82000    236.000
19.83500    233.000
19.85000    238.000
19.86500    215.000
19.88000    252.000
19.89500    244.000
19.91000    229.000
19.92500    228.000
19.94000    216.000
19.95500    232.000
19.97000    240.000
19.98500    243.000
20.00000    224.000
20.01500    232.000
20.03000    255.000
20.04500    249.000
20.06000    236.000
20.07500    222.000
20.09000    251.000
20.10500    231.000
20.12000    232.000
20.13500    220.000
20.15000    240.000
20.16500    255.000
20.18000    254.000
20.19500    257.000
20.21000    244.000
20.22500    234.000
20.24000    254.000
20.25500    260.000
20.27000    262.000
20.28500    256.000
20.30000    241.000
20.31500    262.000
20.33000    249.000
20.34500    252.000
20.36000    226.000
20.37500    230.000
20.39000    233.000
20.40500    220.000
20.42000    237.000
20.43500    232.000
20.45000    213.000
20.46500    242.000
20.48000    246.000
20.49500    265.000
20.51000    273.000
20.52500    273.000
20.54000    255.000
20.55500    258.000
20.57000    258.000
20.58500    270.000
20.60000    241.000
20.61500    270.000
20.63000    263.000
20.64500    265.000
20.66000    287.000
20.67500    264.000
20.69000    244.000
20.70500    265.000
20.72000    282.000
20.73500    297.000
20.75000    297.000
20.76500    275.000
20.78000    278.000
20.79500    285.000
20.81000    259.000
20.82500    291.000
20.84000    272.000
20.85500    266.000
20.87000    277.000
20.88500    278.000
20.90000    289.000
20.91500    283.000
20.93000    281.000
20.94500    282.000
20.96000    308.000
20.97500    310.000
20.99000    266.000
21.00500    270.000
21.02000    284.000
21.03500    297.000
21.05000    293.000
21.06500    287.000
21.08000    275.000
21.09500    284.000
21.11000    302.000
21.12500    295.000
21.14000    280.000
21.15500    289.000
21.17000    273.000
21.18500    280.000
21.20000    255.000
21.21500    311.000
21.23000    273.000
21.24500    272.000
21.26000    265.000
21.27500    284.000
21.29000    287.000
21.30500    256.000
21.32000    267.000
21.33500    279.000
21.35000    299.000
21.36500    304.000
21.38000    289.000
21.39500    269.000
21.41000    264.000
21.42500    297.000
21.44000    288.000
21.45500    305.000
21.47000    284.000
21.48500    280.000
21.50000    280.000
21.51500    293.000
21.53000    262.000
21.54500    273.000
21.56000    295.000
21.57500    302.000
21.59000    281.000
21.60500    247.000
21.62000    268.000
21.63500    256.000
21.65000    272.000
21.66500    258.000
21.68000    268.000
21.69500    276.000
21.71000    289.000
21.72500    271.000
21.74000    281.000
21.75500    284.000
21.77000    301.000
21.78500    288.000
21.80000    252.000
21.81500    265.000
21.83000    286.000
21.84500    276.000
21.86000    264.000
21.87500    264.000
21.89000    279.000
21.90500    281.000
21.92000    283.000
21.93500    293.000
21.95000    284.000
21.96500    271.000
21.98000    258.000
21.99500    282.000
22.01000    277.000
22.02500    277.000
22.04000    264.000
22.05500    288.000
22.07000    287.000
22.08500    278.000
22.10000    288.000
22.11500    283.000
22.13000    282.000
22.14500    302.000
22.16000    273.000
22.17500    258.000
22.19000    290.000
22.20500    272.000
22.22000    265.000
22.23500    267.000
22.25000    267.000
22.26500    283.000
22.28000    276.000
22.29500    264.000
22.31000    271.000
22.32500    294.000
22.34000    285.000
22.35500    259.000
22.37000    262.000
22.38500    289.000
22.40000    287.000
22.41500    293.000
22.43000    285.000
22.44500    296.000
22.46000    256.000
22.47500    248.000
22.49000    271.000
22.50500    264.000
22.52000    287.000
22.53500    285.000
22.55000    287.000
22.56500    296.000
22.58000    278.000
22.59500    254.000
22.61000    271.000
22.62500    279.000
22.64000    290.000
22.65500    279.000
22.67000    275.000
22.68500    285.000
22.70000    277.000
22.71500    290.000
22.73000    261.000
22.74500    245.000
22.76000    281.000
22.77500    287.000
22.79000    285.000
22.80500    319.000
22.82000    281.000
22.83500    284.000
22.85000    285.000
22.86500    296.000
22.88000    294.000
22.89500    250.000
22.91000    253.000
22.92500    270.000
22.94000    294.000
22.95500    261.000
22.97000    245.000
22.98500    282.000
23.00000    283.000
23.01500    293.000
23.03000    273.000
23.04500    282.000
23.06000    284.000
23.07500    274.000
23.09000    268.000
23.10500    307.000
23.12000    275.000
23.13500    292.000
23.15000    270.000
23.16500    285.000
23.18000    264.000
23.19500    281.000
23.21000    267.000
23.22500    264.000
23.24000    279.000
23.25500    295.000
23.27000    266.000
23.28500    282.000
23.30000    268.000
23.31500    287.000
23.33000    283.000
23.34500    302.000
23.36000    276.000
23.37500    271.000
23.39000    283.000
23.40500    290.000
23.42000    305.000
23.43500    278.000
23.45000    253.000
23.46500    281.000
23.48000    295.000
23.49500    282.000
23.51000    288.000
23.52500    295.000
23.54000    277.000
23.55500    271.000
23.57000    273.000
23.58500    264.000
23.60000    297.000
23.61500    285.000
23.63000    289.000
23.64500    290.000
23.66000    296.000
23.67500    293.000
23.69000    294.000
23.70500    291.000
23.72000    292.000
23.73500    307.000
23.75000    299.000
23.76500    274.000
23.78000    285.000
23.79500    293.000
23.81000    271.000
23.82500    252.000
23.84000    286.000
23.85500    312.000
23.87000    295.000
23.88500    273.000
23.90000    288.000
23.91500    284.000
23.93000    280.000
23.94500    303.000
23.96000    325.000
23.97500    316.000
23.99000    314.000
24.00500    302.000
24.02000    320.000
24.03500    303.000
24.05000    306.000
24.06500    299.000
24.08000    293.000
24.09500    303.000
24.11000    297.000
24.12500    296.000
24.14000    306.000
24.15500    300.000
24.17000    298.000
24.18500    283.000
24.20000    308.000
24.21500    287.000
24.23000    295.000
24.24500    294.000
24.26000    279.000
24.27500    306.000
24.29000    315.000
24.30500    296.000
24.32000    311.000
24.33500    341.000
24.35000    312.000
24.36500    313.000
24.38000    322.000
24.39500    322.000
24.41000    324.000
24.42500    345.000
24.44000    323.000
24.45500    308.000
24.47000    312.000
24.48500    279.000
24.50000    308.000
24.51500    309.000
24.53000    291.000
24.54500    291.000
24.56000    285.000
24.57500    307.000
24.59000    287.000
24.60500    318.000
24.62000    326.000
24.63500    310.000
24.65000    301.000
24.66500    297.000
24.68000    267.000
24.69500    315.000
24.71000    303.000
24.72500    330.000
24.74000    303.000
24.75500    304.000
24.77000    296.000
24.78500    325.000
24.80000    298.000
24.81500    308.000
24.83000    305.000
24.84500    315.000
24.86000    289.000
24.87500    310.000
24.89000    313.000
24.90500    311.000
24.92000    309.000
24.93500    322.000
24.95000    311.000
24.96500    293.000
24.98000    277.000
24.99500    318.000
25.01000    326.000
25.02500    329.000
25.04000    321.000
25.05500    324.000
25.07000    323.000
25.08500    309.000
25.10000    337.000
25.11500    332.000
25.13000    283.000
25.14500    270.000
25.16000    330.000
25.17500    321.000
25.19000    319.000
25.20500    329.000
25.22000    333.000
25.23500    301.000
25.25000    325.000
25.26500    313.000
25.28000    317.000
25.29500    307.000
25.31000    313.000
25.32500    325.000
25.34000    349.000
25.35500    311.000
25.37000    294.000
25.38500    323.000
25.40000    322.000
25.41500    334.000
25.43000    339.000
25.44500    323.000
25.46000    327.000
25.47500    326.000
25.49000    324.000
25.50500    332.000
25.52000    338.000
25.53500    325.000
25.55000    332.000
25.56500    337.000
25.58000    335.000
25.59500    331.000
25.61000    327.000
25.62500    341.000
25.64000    314.000
25.65500    319.000
25.67000    307.000
25.68500    321.000
25.70000    331.000
25.71500    322.000
25.73000    304.000
25.74500    319.000
25.76000    331.000
25.77500    347.000
25.79000    351.000
25.80500    343.000
25.82000    339.000
25.83500    355.000
25.85000    340.000
25.86500    353.000
25.88000    335.000
25.89500    325.000
25.91000    324.000
25.92500    360.000
25.94000    348.000
25.95500    367.000
25.97000    335.000
25.98500    320.000
26.00000    333.000
26.01500    339.000
26.03000    349.000
26.04500    351.000
26.06000    362.000
26.07500    331.000
26.09000    350.000
26.10500    341.000
26.12000    340.000
26.13500    330.000
26.15000    336.000
26.16500    363.000
26.18000    347.000
26.19500    344.000
26.21000    373.000
26.22500    349.000
26.24000    349.000
26.25500    361.000
26.27000    378.000
26.28500    345.000
26.30000    368.000
26.31500    368.000
26.33000    372.000
26.34500    348.000
26.36000    388.000
26.37500    407.000
26.39000    401.000
26.40500    406.000
26.42000    401.000
26.43500    412.000
26.45000    411.000
26.46500    413.000
26.48000    413.000
26.49500    453.000
26.51000    465.000
26.52500    434.000
26.54000    443.000
26.55500    471.000
26.57000    483.000
26.58500    463.000
26.60000    454.000
26.61500    440.000
26.63000    487.000
26.64500    526.000
26.66000    532.000
26.67500    532.000
26.69000    485.000
26.70500    490.000
26.72000    470.000
26.73500    505.000
26.75000    536.000
26.76500    567.000
26.78000    523.000
26.79500    531.000
26.81000    556.000
26.82500    549.000
26.84000    526.000
26.85500    511.000
26.87000    506.000
26.88500    550.000
26.90000    544.000
26.91500    519.000
26.93000    534.000
26.94500    522.000
26.96000    522.000
26.97500    516.000
26.99000    544.000
27.00500    511.000
27.02000    494.000
27.03500    489.000
27.05000    516.000
27.06500    524.000
27.08000    502.000
27.09500    493.000
27.11000    513.000
27.12500    511.000
27.14000    504.000
27.15500    496.000
27.17000    512.000
27.18500    504.000
27.20000    506.000
27.21500    519.000
27.23000    525.000
27.24500    489.000
27.26000    525.000
27.27500    503.000
27.29000    471.000
27.30500    481.000
27.32000    525.000
27.33500    535.000
27.35000    522.000
27.36500    484.000
27.38000    512.000
27.39500    489.000
27.41000    490.000
27.42500    485.000
27.44000    463.000
27.45500    473.000
27.47000    490.000
27.48500    474.000
27.50000    541.000
27.51500    498.000
27.53000    521.000
27.54500    483.000
27.56000    470.000
27.57500    525.000
27.59000    534.000
27.60500    496.000
27.62000    477.000
27.63500    493.000
27.65000    498.000
27.66500    518.000
27.68000    465.000
27.69500    494.000
27.71000    477.000
27.72500    493.000
27.74000    501.000
27.75500    536.000
27.77000    486.000
27.78500    512.000
27.80000    470.000
27.81500    497.000
27.83000    485.000
27.84500    457.000
27.86000    486.000
27.87500    506.000
27.89000    492.000
27.90500    490.000
27.92000    480.000
27.93500    467.000
27.95000    486.000
27.96500    473.000
27.98000    466.000
27.99500    463.000
28.01000    472.000
28.02500    474.000
28.04000    492.000
28.05500    478.000
28.07000    471.000
28.08500    470.000
28.10000    477.000
28.11500    453.000
28.13000    434.000
28.14500    419.000
28.16000    463.000
28.17500    449.000
28.19000    440.000
28.20500    443.000
28.22000    430.000
28.23500    417.000
28.25000    420.000
28.26500    433.000
28.28000    441.000
28.29500    395.000
28.31000    430.000
28.32500    402.000
28.34000    410.000
28.35500    388.000
28.37000    410.000
28.38500    409.000
28.40000    385.000
28.41500    402.000
28.43000    404.000
28.44500    437.000
28.46000    422.000
28.47500    428.000
28.49000    390.000
28.50500    399.000
28.52000    390.000
28.53500    404.000
28.55000    370.000
28.56500    352.000
28.58000    375.000
28.59500    368.000
28.61000    393.000
28.62500    368.000
28.64000    347.000
28.65500    401.000
28.67000    405.000
28.68500    374.000
28.70000    344.000
28.71500    352.000
28.73000    367.000
28.74500    368.000
28.76000    366.000
28.77500    357.000
28.79000    355.000
28.80500    358.000
28.82000    354.000
28.83500    378.000
28.85000    348.000
28.86500    345.000
28.88000    347.000
28.89500    364.000
28.91000    348.000
28.92500    337.000
28.94000    361.000
28.95500    334.000
28.97000    356.000
28.98500    354.000
29.00000    378.000
29.01500    387.000
29.03000    336.000
29.04500    364.000
29.06000    370.000
29.07500    361.000
29.09000    381.000
29.10500    371.000
29.12000    389.000
29.13500    401.000
29.15000    385.000
29.16500    364.000
29.18000    354.000
29.19500    373.000
29.21000    354.000
29.22500    393.000
29.24000    371.000
29.25500    380.000
29.27000    365.000
29.28500    362.000
29.30000    354.000
29.31500    392.000
29.33000    405.000
29.34500    373.000
29.36000    361.000
29.37500    334.000
29.39000    349.000
29.40500    376.000
29.42000    391.000
29.43500    373.000
29.45000    363.000
29.46500    360.000
29.48000    363.000
29.49500    368.000
29.51000    351.000
29.52500    362.000
29.54000    365.000
29.55500    338.000
29.57000    348.000
29.58500    358.000
29.60000    351.000
29.61500    342.000
29.63000    356.000
29.64500    351.000
29.66000    351.000
29.67500    337.000
29.69000    343.000
29.70500    312.000
29.72000    304.000
29.73500    340.000
29.75000    330.000
29.76500    337.000
29.78000    326.000
29.79500    354.000
29.81000    306.000
29.82500    315.000
29.84000    325.000
29.85500    325.000
29.87000    314.000
29.88500    330.000
29.90000    317.000
29.91500    285.000
29.93000    323.000
29.94500    311.000
29.96000    310.000
29.97500    308.000
29.99000    292.000
30.00500    277.000
30.02000    299.000
30.03500    323.000
30.05000    303.000
30.06500    292.000
30.08000    277.000
30.09500    301.000
30.11000    280.000
30.12500    300.000
30.14000    294.000
30.15500    320.000
30.17000    313.000
30.18500    291.000
30.20000    297.000
30.21500    289.000
30.23000    282.000
30.24500    259.000
30.26000    278.000
30.27500    307.000
30.29000    258.000
30.30500    280.000
30.32000    320.000
30.33500    302.000
30.35000    285.000
30.36500    273.000
30.38000    269.000
30.39500    290.000
30.41000    271.000
30.42500    276.000
30.44000    279.000
30.45500    309.000
30.47000    285.000
30.48500    291.000
30.50000    300.000
30.51500    284.000
30.53000    259.000
30.54500    281.000
30.56000    266.000
30.57500    275.000
30.59000    264.000
30.60500    278.000
30.62000    298.000
30.63500    279.000
30.65000    264.000
30.66500    256.000
30.68000    281.000
30.69500    288.000
30.71000    270.000
30.72500    261.000
30.74000    276.000
30.75500    250.000
30.77000    249.000
30.78500    250.000
30.80000    269.000
30.81500    270.000
30.83000    270.000
30.84500    283.000
30.86000    264.000
30.87500    245.000
30.89000    258.000
30.90500    276.000
30.92000    243.000
30.93500    257.000
30.95000    267.000
30.96500    256.000
30.98000    237.000
30.99500    241.000
31.01000    256.000
31.02500    263.000
31.04000    252.000
31.05500    242.000
31.07000    256.000
31.08500    252.000
31.10000    266.000
31.11500    261.000
31.13000    249.000
31.14500    268.000
31.16000    255.000
31.17500    243.000
31.19000    239.000
31.20500    239.000
31.22000    260.000
31.23500    270.000
31.25000    247.000
31.26500    243.000
31.28000    247.000
31.29500    261.000
31.31000    237.000
31.32500    256.000
31.34000    273.000
31.35500    267.000
31.37000    248.000
31.38500    258.000
31.40000    232.000
31.41500    237.000
31.43000    233.000
31.44500    265.000
31.46000    271.000
31.47500    234.000
31.49000    231.000
31.50500    255.000
31.52000    254.000
31.53500    235.000
31.55000    242.000
31.56500    234.000
31.58000    242.000
31.59500    268.000
31.61000    243.000
31.62500    238.000
31.64000    235.000
31.65500    236.000
31.67000    242.000
31.68500    250.000
31.70000    228.000
31.71500    241.000
31.73000    242.000
31.74500    225.000
31.76000    229.000
31.77500    234.000
31.79000    220.000
31.80500    221.000
31.82000    231.000
31.83500    217.000
31.85000    259.000
31.86500    279.000
31.88000    254.000
31.89500    243.000
31.91000    241.000
31.92500    230.000
31.94000    259.000
31.95500    232.000
31.97000    236.000
31.98500    244.000
32.00000    230.000
32.01500    243.000
32.03000    254.000
32.04500    255.000
32.06000    270.000
32.07500    225.000
32.09000    214.000
32.10500    243.000
32.12000    236.000
32.13500    233.000
32.15000    216.000
32.16500    245.000
32.18000    248.000
32.19500    237.000
32.21000    234.000
32.22500    232.000
32.24000    238.000
32.25500    228.000
32.27000    233.000
32.28500    238.000
32.30000    248.000
32.31500    248.000
32.33000    236.000
32.34500    232.000
32.36000    243.000
32.37500    235.000
32.39000    236.000
32.40500    232.000
32.42000    237.000
32.43500    255.000
32.45000    239.000
32.46500    239.000
32.48000    247.000
32.49500    241.000
32.51000    239.000
32.52500    251.000
32.54000    244.000
32.55500    243.000
32.57000    232.000
32.58500    221.000
32.60000    221.000
32.61500    225.000
32.63000    245.000
32.64500    238.000
32.66000    229.000
32.67500    243.000
32.69000    245.000
32.70500    249.000
32.72000    248.000
32.73500    237.000
32.75000    222.000
32.76500    230.000
32.78000    219.000
32.79500    228.000
32.81000    246.000
32.82500    212.000
32.84000    213.000
32.85500    228.000
32.87000    225.000
32.88500    213.000
32.90000    222.000
32.91500    232.000
32.93000    250.000
32.94500    236.000
32.96000    224.000
32.97500    223.000
32.99000    213.000
33.00500    219.000
33.02000    221.000
33.03500    219.000
33.05000    210.000
33.06500    223.000
33.08000    222.000
33.09500    191.000
33.11000    204.000
33.12500    197.000
33.14000    206.000
33.15500    214.000
33.17000    197.000
33.18500    222.000
33.20000    223.000
33.21500    193.000
33.23000    188.000
33.24500    210.000
33.26000    219.000
33.27500    212.000
33.29000    209.000
33.30500    234.000
33.32000    222.000
33.33500    190.000
33.35000    217.000
33.36500    201.000
33.38000    198.000
33.39500    206.000
33.41000    198.000
33.42500    212.000
33.44000    210.000
33.45500    201.000
33.47000    210.000
33.48500    199.000
33.50000    207.000
33.51500    186.000
33.53000    194.000
33.54500    202.000
33.56000    201.000
33.57500    208.000
33.59000    209.000
33.60500    195.000
33.62000    206.000
33.63500    216.000
33.65000    218.000
33.66500    210.000
33.68000    205.000
33.69500    180.000
33.71000    193.000
33.72500    206.000
33.74000    192.000
33.75500    201.000
33.77000    187.000
33.78500    195.000
33.80000    197.000
33.81500    203.000
33.83000    193.000
33.84500    198.000
33.86000    207.000
33.87500    194.000
33.89000    179.000
33.90500    201.000
33.92000    194.000
33.93500    192.000
33.95000    189.000
33.96500    195.000
33.98000    215.000
33.99500    199.000
34.01000    185.000
34.02500    212.000
34.04000    211.000
34.05500    196.000
34.07000    214.000
34.08500    214.000
34.10000    216.000
34.11500    195.000
34.13000    200.000
34.14500    188.000
34.16000    198.000
34.17500    206.000
34.19000    197.000
34.20500    215.000
34.22000    208.000
34.23500    192.000
34.25000    210.000
34.26500    200.000
34.28000    194.000
34.29500    198.000
34.31000    184.000
34.32500    177.000
34.34000    191.000
34.35500    180.000
34.37000    188.000
34.38500    198.000
34.40000    176.000
34.41500    184.000
34.43000    206.000
34.44500    198.000
34.46000    179.000
34.47500    185.000
34.49000    194.000
34.50500    188.000
34.52000    191.000
34.53500    211.000
34.55000    202.000
34.56500    182.000
34.58000    182.000
34.59500    174.000
34.61000    202.000
34.62500    179.000
34.64000    195.000
34.65500    205.000
34.67000    191.000
34.68500    180.000
34.70000    190.000
34.71500    184.000
34.73000    184.000
34.74500    188.000
34.76000    198.000
34.77500    180.000
34.79000    191.000
34.80500    186.000
34.82000    204.000
34.83500    188.000
34.85000    189.000
34.86500    189.000
34.88000    206.000
34.89500    176.000
34.91000    163.000
34.92500    168.000
34.94000    174.000
34.95500    190.000
34.97000    189.000
34.98500    182.000
35.00000    174.000
35.01500    186.000
35.03000    165.000
35.04500    193.000
35.06000    184.000
35.07500    183.000
35.09000    192.000
35.10500    187.000
35.12000    181.000
35.13500    191.000
35.15000    193.000
35.16500    173.000
35.18000    186.000
35.19500    198.000
35.21000    190.000
35.22500    196.000
35.24000    203.000
35.25500    193.000
35.27000    192.000
35.28500    197.000
35.30000    166.000
35.31500    188.000
35.33000    185.000
35.34500    178.000
35.36000    185.000
35.37500    170.000
35.39000    199.000
35.40500    182.000
35.42000    171.000
35.43500    203.000
35.45000    200.000
35.46500    195.000
35.48000    191.000
35.49500    199.000
35.51000    186.000
35.52500    181.000
35.54000    195.000
35.55500    193.000
35.57000    194.000
35.58500    206.000
35.60000    174.000
35.61500    187.000
35.63000    188.000
35.64500    185.000
35.66000    184.000
35.67500    198.000
35.69000    180.000
35.70500    196.000
35.72000    188.000
35.73500    205.000
35.75000    179.000
35.76500    166.000
35.78000    179.000
35.79500    178.000
35.81000    175.000
35.82500    191.000
35.84000    199.000
35.85500    193.000
35.87000    196.000
35.88500    200.000
35.90000    178.000
35.91500    181.000
35.93000    189.000
35.94500    167.000
35.96000    192.000
35.97500    176.000
35.99000    186.000
36.00500    176.000
36.02000    177.000
36.03500    179.000
36.05000    183.000
36.06500    172.000
36.08000    191.000
36.09500    198.000
36.11000    191.000
36.12500    186.000
36.14000    174.000
36.15500    189.000
36.17000    195.000
36.18500    166.000
36.20000    183.000
36.21500    188.000
36.23000    187.000
36.24500    166.000
36.26000    196.000
36.27500    173.000
36.29000    169.000
36.30500    154.000
36.32000    177.000
36.33500    165.000
36.35000    178.000
36.36500    177.000
36.38000    186.000
36.39500    176.000
36.41000    183.000
36.42500    182.000
36.44000    194.000
36.45500    170.000
36.47000    182.000
36.48500    170.000
36.50000    163.000
36.51500    181.000
36.53000    201.000
36.54500    185.000
36.56000    178.000
36.57500    167.000
36.59000    182.000
36.60500    168.000
36.62000    162.000
36.63500    179.000
36.65000    163.000
36.66500    179.000
36.68000    164.000
36.69500    171.000
36.71000    159.000
36.72500    174.000
36.74000    184.000
36.75500    188.000
36.77000    191.000
36.78500    191.000
36.80000    183.000
36.81500    162.000
36.83000    157.000
36.84500    159.000
36.86000    156.000
36.87500    183.000
36.89000    203.000
36.90500    179.000
36.92000    167.000
36.93500    168.000
36.95000    168.000
36.96500    166.000
36.98000    177.000
36.99500    174.000
37.01000    183.000
37.02500    171.000
37.04000    177.000
37.05500    168.000
37.07000    155.000
37.08500    168.000
37.10000    181.000
37.11500    146.000
37.13000    147.000
37.14500    163.000
37.16000    163.000
37.17500    162.000
37.19000    163.000
37.20500    162.000
37.22000    152.000
37.23500    168.000
37.25000    170.000
37.26500    167.000
37.28000    178.000
37.29500    166.000
37.31000    150.000
37.32500    175.000
37.34000    161.000
37.35500    159.000
37.37000    166.000
37.38500    193.000
37.40000    180.000
37.41500    154.000
37.43000    175.000
37.44500    161.000
37.46000    156.000
37.47500    163.000
37.49000    167.000
37.50500    157.000
37.52000    160.000
37.53500    163.000
37.55000    164.000
37.56500    169.000
37.58000    162.000
37.59500    171.000
37.61000    165.000
37.62500    166.000
37.64000    152.000
37.65500    176.000
37.67000    155.000
37.68500    193.000
37.70000    150.000
37.71500    166.000
37.73000    177.000
37.74500    157.000
37.76000    159.000
37.77500    166.000
37.79000    149.000
37.80500    162.000
37.82000    159.000
37.83500    155.000
37.85000    158.000
37.86500    161.000
37.88000    164.000
37.89500    161.000
37.91000    158.000
37.92500    149.000
37.94000    155.000
37.95500    163.000
37.97000    147.000
37.98500    142.000
38.00000    149.000
38.01500    163.000
38.03000    152.000
38.04500    147.000
38.06000    147.000
38.07500    154.000
38.09000    150.000
38.10500    161.000
38.12000    153.000
38.13500    158.000
38.15000    172.000
38.16500    154.000
38.18000    142.000
38.19500    150.000
38.21000    165.000
38.22500    159.000
38.24000    151.000
38.25500    176.000
38.27000    164.000
38.28500    163.000
38.30000    158.000
38.31500    146.000
38.33000    138.000
38.34500    167.000
38.36000    169.000
38.37500    149.000
38.39000    155.000
38.40500    155.000
38.42000    148.000
38.43500    134.000
38.45000    153.000
38.46500    133.000
38.48000    145.000
38.49500    166.000
38.51000    174.000
38.52500    153.000
38.54000    139.000
38.55500    144.000
38.57000    158.000
38.58500    164.000
38.60000    150.000
38.61500    144.000
38.63000    159.000
38.64500    163.000
38.66000    147.000
38.67500    152.000
38.69000    148.000
38.70500    153.000
38.72000    171.000
38.73500    162.000
38.75000    153.000
38.76500    140.000
38.78000    159.000
38.79500    157.000
38.81000    166.000
38.82500    154.000
38.84000    153.000
38.85500    155.000
38.87000    156.000
38.88500    157.000
38.90000    155.000
38.91500    138.000
38.93000    138.000
38.94500    155.000
38.96000    138.000
38.97500    148.000
38.99000    140.000
39.00500    142.000
39.02000    166.000
39.03500    144.000
39.05000    149.000
39.06500    143.000
39.08000    148.000
39.09500    150.000
39.11000    147.000
39.12500    147.000
39.14000    145.000
39.15500    140.000
39.17000    154.000
39.18500    154.000
39.20000    152.000
39.21500    144.000
39.23000    159.000
39.24500    155.000
39.26000    156.000
39.27500    144.000
39.29000    152.000
39.30500    157.000
39.32000    159.000
39.33500    147.000
39.35000    149.000
39.36500    151.000
39.38000    138.000
39.39500    141.000
39.41000    162.000
39.42500    154.000
39.44000    140.000
39.45500    130.000
39.47000    128.000
39.48500    153.000
39.50000    158.000
39.51500    149.000
39.53000    149.000
39.54500    136.000
39.56000    127.000
39.57500    148.000
39.59000    141.000
39.60500    123.000
39.62000    142.000
39.63500    147.000
39.65000    143.000
39.66500    147.000
39.68000    150.000
39.69500    145.000
39.71000    149.000
39.72500    139.000
39.74000    138.000
39.75500    153.000
39.77000    129.000
39.78500    127.000
39.80000    148.000
39.81500    145.000
39.83000    147.000
39.84500    137.000
39.86000    129.000
39.87500    150.000
39.89000    150.000
39.90500    157.000
39.92000    158.000
39.93500    140.000
39.95000    130.000
39.96500    133.000
39.98000    147.000
39.99500    153.000
40.01000    147.000
40.02500    139.000
40.04000    145.000
40.05500    149.000
40.07000    137.000
40.08500    146.000
40.10000    126.000
40.11500    126.000
40.13000    127.000
40.14500    142.000
40.16000    131.000
40.17500    135.000
40.19000    134.000
40.20500    126.000
40.22000    137.000
40.23500    141.000
40.25000    131.000
40.26500    133.000
40.28000    134.000
40.29500    162.000
40.31000    150.000
40.32500    137.000
40.34000    127.000
40.35500    135.000
40.37000    151.000
40.38500    141.000
40.40000    132.000
40.41500    142.000
40.43000    151.000
40.44500    134.000
40.46000    132.000
40.47500    128.000
40.49000    135.000
40.50500    132.000
40.52000    119.000
40.53500    130.000
40.55000    138.000
40.56500    149.000
40.58000    137.000
40.59500    145.000
40.61000    154.000
40.62500    149.000
40.64000    128.000
40.65500    129.000
40.67000    149.000
40.68500    142.000
40.70000    150.000
40.71500    141.000
40.73000    139.000
40.74500    159.000
40.76000    156.000
40.77500    158.000
40.79000    134.000
40.80500    132.000
40.82000    148.000
40.83500    140.000
40.85000    146.000
40.86500    137.000
40.88000    142.000
40.89500    136.000
40.91000    147.000
40.92500    139.000
40.94000    137.000
40.95500    131.000
40.97000    139.000
40.98500    123.000
41.00000    141.000
41.01500    157.000
41.03000    148.000
41.04500    129.000
41.06000    153.000
41.07500    147.000
41.09000    129.000
41.10500    133.000
41.12000    156.000
41.13500    162.000
41.15000    132.000
41.16500    132.000
41.18000    152.000
41.19500    145.000
41.21000    133.000
41.22500    141.000
41.24000    135.000
41.25500    133.000
41.27000    150.000
41.28500    152.000
41.30000    154.000
41.31500    138.000
41.33000    145.000
41.34500    128.000
41.36000    133.000
41.37500    148.000
41.39000    138.000
41.40500    135.000
41.42000    139.000
41.43500    142.000
41.45000    156.000
41.46500    145.000
41.48000    144.000
41.49500    148.000
41.51000    163.000
41.52500    153.000
41.54000    158.000
41.55500    147.000
41.57000    144.000
41.58500    139.000
41.60000    125.000
41.61500    135.000
41.63000    142.000
41.64500    127.000
41.66000    130.000
41.67500    139.000
41.69000    123.000
41.70500    132.000
41.72000    151.000
41.73500    152.000
41.75000    137.000
41.76500    123.000
41.78000    129.000
41.79500    126.000
41.81000    125.000
41.82500    133.000
41.84000    150.000
41.85500    133.000
41.87000    147.000
41.88500    144.000
41.90000    156.000
41.91500    146.000
41.93000    133.000
41.94500    142.000
41.96000    147.000
41.97500    149.000
41.99000    132.000
42.00500    131.000
42.02000    138.000
42.03500    117.000
42.05000    124.000
42.06500    142.000
42.08000    121.000
42.09500    128.000
42.11000    115.000
42.12500    130.000
42.14000    141.000
42.15500    135.000
42.17000    140.000
42.18500    138.000
42.20000    139.000
42.21500    147.000
42.23000    122.000
42.24500    103.000
42.26000    131.000
42.27500    152.000
42.29000    138.000
42.30500    124.000
42.32000    137.000
42.33500    142.000
42.35000    136.000
42.36500    144.000
42.38000    135.000
42.39500    135.000
42.41000    135.000
42.42500    141.000
42.44000    143.000
42.45500    142.000
42.47000    134.000
42.48500    143.000
42.50000    150.000
42.51500    144.000
42.53000    149.000
42.54500    158.000
42.56000    149.000
42.57500    151.000
42.59000    144.000
42.60500    149.000
42.62000    144.000
42.63500    159.000
42.65000    133.000
42.66500    126.000
42.68000    155.000
42.69500    146.000
42.71000    152.000
42.72500    144.000
42.74000    152.000
42.75500    149.000
42.77000    136.000
42.78500    144.000
42.80000    136.000
42.81500    150.000
42.83000    154.000
42.84500    158.000
42.86000    155.000
42.87500    144.000
42.89000    150.000
42.90500    143.000
42.92000    150.000
42.93500    137.000
42.95000    138.000
42.96500    138.000
42.98000    146.000
42.99500    154.000
43.01000    150.000
43.02500    156.000
43.04000    149.000
43.05500    175.000
43.07000    160.000
43.08500    145.000
43.10000    150.000
43.11500    134.000
43.13000    132.000
43.14500    123.000
43.16000    127.000
43.17500    126.000
43.19000    146.000
43.20500    147.000
43.22000    143.000
43.23500    142.000
43.25000    132.000
43.26500    143.000
43.28000    134.000
43.29500    152.000
43.31000    154.000
43.32500    159.000
43.34000    162.000
43.35500    155.000
43.37000    153.000
43.38500    145.000
43.40000    135.000
43.41500    127.000
43.43000    148.000
43.44500    138.000
43.46000    160.000
43.47500    147.000
43.49000    160.000
43.50500    144.000
43.52000    137.000
43.53500    140.000
43.55000    148.000
43.56500    149.000
43.58000    144.000
43.59500    133.000
43.61000    150.000
43.62500    147.000
43.64000    140.000
43.65500    135.000
43.67000    132.000
43.68500    150.000
43.70000    135.000
43.71500    130.000
43.73000    135.000
43.74500    136.000
43.76000    152.000
43.77500    145.000
43.79000    127.000
43.80500    130.000
43.82000    123.000
43.83500    128.000
43.85000    151.000
43.86500    140.000
43.88000    144.000
43.89500    147.000
43.91000    137.000
43.92500    140.000
43.94000    153.000
43.95500    143.000
43.97000    140.000
43.98500    146.000
44.00000    151.000
44.01500    144.000
44.03000    143.000
44.04500    147.000
44.06000    152.000
44.07500    129.000
44.09000    132.000
44.10500    146.000
44.12000    159.000
44.13500    165.000
44.15000    154.000
44.16500    157.000
44.18000    129.000
44.19500    134.000
44.21000    144.000
44.22500    146.000
44.24000    136.000
44.25500    139.000
44.27000    147.000
44.28500    160.000
44.30000    136.000
44.31500    139.000
44.33000    135.000
44.34500    135.000
44.36000    158.000
44.37500    142.000
44.39000    126.000
44.40500    134.000
44.42000    144.000
44.43500    142.000
44.45000    137.000
44.46500    135.000
44.48000    146.000
44.49500    157.000
44.51000    153.000
44.52500    150.000
44.54000    135.000
44.55500    134.000
44.57000    136.000
44.58500    136.000
44.60000    138.000
44.61500    163.000
44.63000    163.000
44.64500    140.000
44.66000    127.000
44.67500    152.000
44.69000    146.000
44.70500    147.000
44.72000    128.000
44.73500    137.000
44.75000    120.000
44.76500    136.000
44.78000    132.000
44.79500    142.000
44.81000    139.000
44.82500    140.000
44.84000    130.000
44.85500    125.000
44.87000    122.000
44.88500    145.000
44.90000    144.000
44.91500    148.000
44.93000    155.000
44.94500    156.000
44.96000    157.000
44.97500    132.000
44.99000    132.000
45.00500    133.000
45.02000    139.000
45.03500    130.000
45.05000    135.000
45.06500    141.000
45.08000    137.000
45.09500    147.000
45.11000    151.000
45.12500    113.000
45.14000    137.000
45.15500    156.000
45.17000    134.000
45.18500    126.000
45.20000    139.000
45.21500    120.000
45.23000    127.000
45.24500    137.000
45.26000    127.000
45.27500    140.000
45.29000    135.000
45.30500    139.000
45.32000    133.000
45.33500    120.000
45.35000    132.000
45.36500    134.000
45.38000    136.000
45.39500    132.000
45.41000    137.000
45.42500    133.000
45.44000    133.000
45.45500    128.000
45.47000    132.000
45.48500    130.000
45.50000    127.000
45.51500    135.000
45.53000    149.000
45.54500    123.000
45.56000    128.000
45.57500    129.000
45.59000    136.000
45.60500    147.000
45.62000    134.000
45.63500    129.000
45.65000    132.000
45.66500    144.000
45.68000    139.000
45.69500    141.000
45.71000    140.000
45.72500    123.000
45.74000    115.000
45.75500    112.000
45.77000    123.000
45.78500    131.000
45.80000    108.000
45.81500    112.000
45.83000    122.000
45.84500    124.000
45.86000    143.000
45.87500    125.000
45.89000    116.000
45.90500    134.000
45.92000    119.000
45.93500    112.000
45.95000    127.000
45.96500    121.000
45.98000    125.000
45.99500    143.000
46.01000    137.000
46.02500    127.000
46.04000    118.000
46.05500    119.000
46.07000    129.000
46.08500    128.000
46.10000    136.000
46.11500    131.000
46.13000    117.000
46.14500    132.000
46.16000    126.000
46.17500    133.000
46.19000    121.000
46.20500    129.000
46.22000    125.000
46.23500    127.000
46.25000    127.000
46.26500    126.000
46.28000    119.000
46.29500    135.000
46.31000    149.000
46.32500    119.000
46.34000    134.000
46.35500    125.000
46.37000    155.000
46.38500    125.000
46.40000    117.000
46.41500    115.000
46.43000    115.000
46.44500    118.000
46.46000    127.000
46.47500    115.000
46.49000    106.000
46.50500    116.000
46.52000    113.000
46.53500    126.000
46.55000    137.000
46.56500    115.000
46.58000    129.000
46.59500    131.000
46.61000    116.000
46.62500    122.000
46.64000    116.000
46.65500    125.000
46.67000    120.000
46.68500    135.000
46.70000    142.000
46.71500    132.000
46.73000    122.000
46.74500    117.000
46.76000    132.000
46.77500    120.000
46.79000    122.000
46.80500    134.000
46.82000    129.000
46.83500    115.000
46.85000    101.000
46.86500    122.000
46.88000    124.000
46.89500    124.000
46.91000    110.000
46.92500    118.000
46.94000    114.000
46.95500    126.000
46.97000    108.000
46.98500    113.000
47.00000    124.000
47.01500    111.000
47.03000    109.000
47.04500    130.000
47.06000    106.000
47.07500    126.000
47.09000    128.000
47.10500    132.000
47.12000    126.000
47.13500    124.000
47.15000    114.000
47.16500    124.000
47.18000    113.000
47.19500    119.000
47.21000    122.000
47.22500    110.000
47.24000    107.000
47.25500    118.000
47.27000    104.000
47.28500    116.000
47.30000    120.000
47.31500    118.000
47.33000    126.000
47.34500    107.000
47.36000    103.000
47.37500    107.000
47.39000    123.000
47.40500    116.000
47.42000    125.000
47.43500    121.000
47.45000    122.000
47.46500    112.000
47.48000    117.000
47.49500    116.000
47.51000    124.000
47.52500    121.000
47.54000    99.000
47.55500    105.000
47.57000    118.000
47.58500    128.000
47.60000    110.000
47.61500    111.000
47.63000    104.000
47.64500    117.000
47.66000    113.000
47.67500    110.000
47.69000    124.000
47.70500    119.000
47.72000    110.000
47.73500    114.000
47.75000    116.000
47.76500    115.000
47.78000    118.000
47.79500    114.000
47.81000    110.000
47.82500    105.000
47.84000    104.000
47.85500    104.000
47.87000    102.000
47.88500    112.000
47.90000    118.000
47.91500    111.000
47.93000    113.000
47.94500    107.000
47.96000    112.000
47.97500    119.000
47.99000    108.000
48.00500    107.000
48.02000    113.000
48.03500    117.000
48.05000    117.000
48.06500    105.000
48.08000    120.000
48.09500    107.000
48.11000    108.000
48.12500    104.000
48.14000    107.000
48.15500    102.000
48.17000    103.000
48.18500    118.000
48.20000    106.000
48.21500    111.000
48.23000    110.000
48.24500    112.000
48.26000    106.000
48.27500    106.000
48.29000    118.000
48.30500    111.000
48.32000    106.000
48.33500    102.000
48.35000    102.000
48.36500    103.000
48.38000    117.000
48.39500    125.000
48.41000    113.000
48.42500    91.000
48.44000    92.000
48.45500    98.000
48.47000    96.000
48.48500    103.000
48.50000    122.000
48.51500    105.000
48.53000    108.000
48.54500    105.000
48.56000    110.000
48.57500    116.000
48.59000    106.000
48.60500    117.000
48.62000    97.000
48.63500    114.000
48.65000    109.000
48.66500    102.000
48.68000    120.000
48.69500    113.000
48.71000    102.000
48.72500    105.000
48.74000    111.000
48.75500    115.000
48.77000    107.000
48.78500    121.000
48.80000    116.000
48.81500    99.000
48.83000    104.000
48.84500    117.000
48.86000    118.000
48.87500    109.000
48.89000    125.000
48.90500    104.000
48.92000    115.000
48.93500    114.000
48.95000    109.000
48.96500    116.000
48.98000    104.000
48.99500    97.000
49.01000    93.000
49.02500    108.000
49.04000    104.000
49.05500    102.000
49.07000    97.000
49.08500    97.000
49.10000    102.000
49.11500    95.000
49.13000    106.000
49.14500    106.000
49.16000    98.000
49.17500    103.000
49.19000    112.000
49.20500    117.000
49.22000    105.000
49.23500    115.000
49.25000    116.000
49.26500    116.000
49.28000    96.000
49.29500    93.000
49.31000    101.000
49.32500    102.000
49.34000    108.000
49.35500    111.000
49.37000    114.000
49.38500    110.000
49.40000    113.000
49.41500    102.000
49.43000    100.000
49.44500    110.000
49.46000    109.000
49.47500    98.000
49.49000    121.000
49.50500    99.000
49.52000    110.000
49.53500    105.000
49.55000    110.000
49.56500    95.000
49.58000    101.000
49.59500    97.000
49.61000    116.000
49.62500    129.000
49.64000    96.000
49.65500    99.000
49.67000    117.000
49.68500    98.000
49.70000    95.000
49.71500    102.000
49.73000    100.000
49.74500    90.000
49.76000    102.000
49.77500    92.000
49.79000    104.000
49.80500    93.000
49.82000    105.000
49.83500    112.000
49.85000    102.000
49.86500    92.000
49.88000    100.000
49.89500    112.000
49.91000    118.000
49.92500    104.000
49.94000    108.000
49.95500    120.000
49.97000    95.000
49.98500    106.000
50.00000    111.000
50.01500    99.000
50.03000    102.000
50.04500    103.000
50.06000    105.000
50.07500    106.000
50.09000    128.000
50.10500    114.000
50.12000    112.000
50.13500    116.000
50.15000    104.000
50.16500    112.000
50.18000    93.000
50.19500    100.000
50.21000    107.000
50.22500    106.000
50.24000    104.000
50.25500    88.000
50.27000    109.000
50.28500    116.000
50.30000    101.000
50.31500    97.000
50.33000    103.000
50.34500    89.000
50.36000    89.000
50.37500    94.000
50.39000    107.000
50.40500    110.000
50.42000    106.000
50.43500    105.000
50.45000    100.000
50.46500    101.000
50.48000    96.000
50.49500    113.000
50.51000    113.000
50.52500    100.000
50.54000    101.000
50.55500    105.000
50.57000    115.000
50.58500    106.000
50.60000    106.000
50.61500    100.000
50.63000    98.000
50.64500    112.000
50.66000    104.000
50.67500    89.000
50.69000    97.000
50.70500    93.000
50.72000    98.000
50.73500    103.000
50.75000    113.000
50.76500    93.000
50.78000    96.000
50.79500    122.000
50.81000    106.000
50.82500    111.000
50.84000    130.000
50.85500    122.000
50.87000    116.000
50.88500    109.000
50.90000    101.000
50.91500    108.000
50.93000    119.000
50.94500    102.000
50.96000    110.000
50.97500    114.000
50.99000    111.000
51.00500    101.000
51.02000    125.000
51.03500    124.000
51.05000    120.000
51.06500    122.000
51.08000    110.000
51.09500    107.000
51.11000    104.000
51.12500    113.000
51.14000    106.000
51.15500    103.000
51.17000    112.000
51.18500    111.000
51.20000    103.000
51.21500    120.000
51.23000    112.000
51.24500    103.000
51.26000    112.000
51.27500    95.000
51.29000    104.000
51.30500    107.000
51.32000    103.000
51.33500    114.000
51.35000    116.000
51.36500    113.000
51.38000    118.000
51.39500    101.000
51.41000    102.000
51.42500    112.000
51.44000    114.000
51.45500    102.000
51.47000    114.000
51.48500    111.000
51.50000    104.000
51.51500    117.000
51.53000    122.000
51.54500    125.000
51.56000    106.000
51.57500    98.000
51.59000    112.000
51.60500    109.000
51.62000    102.000
51.63500    123.000
51.65000    123.000
51.66500    105.000
51.68000    108.000
51.69500    119.000
51.71000    98.000
51.72500    96.000
51.74000    85.000
51.75500    109.000
51.77000    109.000
51.78500    106.000
51.80000    104.000
51.81500    114.000
51.83000    103.000
51.84500    91.000
51.86000    112.000
51.87500    119.000
51.89000    98.000
51.90500    98.000
51.92000    107.000
51.93500    117.000
51.95000    103.000
51.96500    107.000
51.98000    110.000
51.99500    110.000
52.01000    100.000
52.02500    109.000
52.04000    107.000
52.05500    99.000
52.07000    113.000
52.08500    106.000
52.10000    95.000
52.11500    100.000
52.13000    97.000
52.14500    96.000
52.16000    102.000
52.17500    101.000
52.19000    106.000
52.20500    97.000
52.22000    85.000
52.23500    103.000
52.25000    107.000
52.26500    102.000
52.28000    107.000
52.29500    103.000
52.31000    106.000
52.32500    102.000
52.34000    97.000
52.35500    97.000
52.37000    116.000
52.38500    112.000
52.40000    109.000
52.41500    102.000
52.43000    112.000
52.44500    106.000
52.46000    106.000
52.47500    95.000
52.49000    123.000
52.50500    103.000
52.52000    101.000
52.53500    112.000
52.55000    99.000
52.56500    99.000
52.58000    102.000
52.59500    99.000
52.61000    108.000
52.62500    87.000
52.64000    88.000
52.65500    102.000
52.67000    98.000
52.68500    98.000
52.70000    95.000
52.71500    103.000
52.73000    111.000
52.74500    94.000
52.76000    85.000
52.77500    111.000
52.79000    107.000
52.80500    99.000
52.82000    107.000
52.83500    99.000
52.85000    108.000
52.86500    109.000
52.88000    108.000
52.89500    99.000
52.91000    89.000
52.92500    93.000
52.94000    102.000
52.95500    95.000
52.97000    91.000
52.98500    95.000
53.00000    97.000
53.01500    103.000
53.03000    108.000
53.04500    108.000
53.06000    107.000
53.07500    105.000
53.09000    107.000
53.10500    96.000
53.12000    99.000
53.13500    93.000
53.15000    118.000
53.16500    123.000
53.18000    105.000
53.19500    98.000
53.21000    102.000
53.22500    93.000
53.24000    89.000
53.25500    108.000
53.27000    108.000
53.28500    103.000
53.30000    115.000
53.31500    97.000
53.33000    91.000
53.34500    96.000
53.36000    104.000
53.37500    103.000
53.39000    93.000
53.40500    101.000
53.42000    108.000
53.43500    91.000
53.45000    94.000
53.46500    99.000
53.48000    96.000
53.49500    119.000
53.51000    102.000
53.52500    112.000
53.54000    112.000
53.55500    115.000
53.57000    104.000
53.58500    113.000
53.60000    109.000
53.61500    101.000
53.63000    112.000
53.64500    106.000
53.66000    94.000
53.67500    100.000
53.69000    107.000
53.70500    89.000
53.72000    92.000
53.73500    89.000
53.75000    99.000
53.76500    99.000
53.78000    93.000
53.79500    96.000
53.81000    98.000
53.82500    104.000
53.84000    115.000
53.85500    117.000
53.87000    95.000
53.88500    99.000
53.90000    110.000
53.91500    101.000
53.93000    92.000
53.94500    92.000
53.96000    113.000
53.97500    106.000
53.99000    96.000
54.00500    96.000
54.02000    109.000
54.03500    99.000
54.05000    100.000
54.06500    103.000
54.08000    101.000
54.09500    95.000
54.11000    113.000
54.12500    119.000
54.14000    103.000
54.15500    96.000
54.17000    92.000
54.18500    103.000
54.20000    106.000
54.21500    118.000
54.23000    116.000
54.24500    110.000
54.26000    116.000
54.27500    116.000
54.29000    90.000
54.30500    94.000
54.32000    99.000
54.33500    91.000
54.35000    106.000
54.36500    115.000
54.38000    118.000
54.39500    103.000
54.41000    101.000
54.42500    121.000
54.44000    98.000
54.45500    105.000
54.47000    105.000
54.48500    104.000
54.50000    126.000
54.51500    101.000
54.53000    100.000
54.54500    96.000
54.56000    107.000
54.57500    117.000
54.59000    119.000
54.60500    104.000
54.62000    119.000
54.63500    102.000
54.65000    86.000
54.66500    102.000
54.68000    118.000
54.69500    119.000
54.71000    112.000
54.72500    107.000
54.74000    119.000
54.75500    105.000
54.77000    109.000
54.78500    110.000
54.80000    98.000
54.81500    111.000
54.83000    112.000
54.84500    125.000
54.86000    112.000
54.87500    114.000
54.89000    118.000
54.90500    114.000
54.92000    98.000
54.93500    97.000
54.95000    103.000
54.96500    91.000
54.98000    98.000
54.99500    110.000
55.01000    102.000
55.02500    121.000
55.04000    102.000
55.05500    103.000
55.07000    105.000
55.08500    107.000
55.10000    91.000
55.11500    96.000
55.13000    102.000
55.14500    106.000
55.16000    110.000
55.17500    112.000
55.19000    91.000
55.20500    92.000
55.22000    119.000
55.23500    108.000
55.25000    99.000
55.26500    110.000
55.28000    112.000
55.29500    117.000
55.31000    107.000
55.32500    109.000
55.34000    105.000
55.35500    101.000
55.37000    103.000
55.38500    103.000
55.40000    108.000
55.41500    116.000
55.43000    104.000
55.44500    96.000
55.46000    107.000
55.47500    103.000
55.49000    106.000
55.50500    108.000
55.52000    104.000
55.53500    100.000
55.55000    94.000
55.56500    100.000
55.58000    92.000
55.59500    112.000
55.61000    124.000
55.62500    102.000
55.64000    94.000
55.65500    107.000
55.67000    104.000
55.68500    106.000
55.70000    105.000
55.71500    119.000
55.73000    109.000
55.74500    88.000
55.76000    95.000
55.77500    109.000
55.79000    107.000
55.80500    104.000
55.82000    106.000
55.83500    102.000
55.85000    90.000
55.86500    84.000
55.88000    91.000
55.89500    94.000
55.91000    93.000
55.92500    99.000
55.94000    102.000
55.95500    95.000
55.97000    101.000
55.98500    99.000
56.00000    104.000
56.01500    116.000
56.03000    96.000
56.04500    95.000
56.06000    104.000
56.07500    95.000
56.09000    101.000
56.10500    114.000
56.12000    106.000
56.13500    84.000
56.15000    95.000
56.16500    97.000
56.18000    102.000
56.19500    116.000
56.21000    109.000
56.22500    104.000
56.24000    113.000
56.25500    96.000
56.27000    115.000
56.28500    108.000
56.30000    107.000
56.31500    103.000
56.33000    96.000
56.34500    102.000
56.36000    123.000
56.37500    107.000
56.39000    98.000
56.40500    91.000
56.42000    95.000
56.43500    96.000
56.45000    88.000
56.46500    102.000
56.48000    96.000
56.49500    103.000
56.51000    113.000
56.52500    110.000
56.54000    108.000
56.55500    95.000
56.57000    83.000
56.58500    89.000
56.60000    101.000
56.61500    105.000
56.63000    102.000
56.64500    102.000
56.66000    99.000
56.67500    98.000
56.69000    108.000
56.70500    101.000
56.72000    99.000
56.73500    100.000
56.75000    98.000
56.76500    91.000
56.78000    114.000
56.79500    96.000
56.81000    92.000
56.82500    101.000
56.84000    101.000
56.85500    100.000
56.87000    96.000
56.88500    98.000
56.90000    112.000
56.91500    105.000
56.93000    101.000
56.94500    92.000
56.96000    109.000
56.97500    101.000
56.99000    97.000
57.00500    98.000
57.02000    105.000
57.03500    104.000
57.05000    104.000
57.06500    99.000
57.08000    113.000
57.09500    104.000
57.11000    108.000
57.12500    89.000
57.14000    96.000
57.15500    111.000
57.17000    101.000
57.18500    94.000
57.20000    103.000
57.21500    109.000
57.23000    126.000
57.24500    103.000
57.26000    93.000
57.27500    108.000
57.29000    102.000
57.30500    102.000
57.32000    107.000
57.33500    106.000
57.35000    95.000
57.36500    86.000
57.38000    93.000
57.39500    92.000
57.41000    98.000
57.42500    101.000
57.44000    95.000
57.45500    105.000
57.47000    102.000
57.48500    115.000
57.50000    97.000
57.51500    98.000
57.53000    96.000
57.54500    94.000
57.56000    104.000
57.57500    92.000
57.59000    99.000
57.60500    97.000
57.62000    103.000
57.63500    96.000
57.65000    94.000
57.66500    92.000
57.68000    97.000
57.69500    97.000
57.71000    89.000
57.72500    94.000
57.74000    99.000
57.75500    100.000
57.77000    83.000
57.78500    97.000
57.80000    100.000
57.81500    101.000
57.83000    106.000
57.84500    103.000
57.86000    94.000
57.87500    87.000
57.89000    101.000
57.90500    115.000
57.92000    102.000
57.93500    99.000
57.95000    99.000
57.96500    101.000
57.98000    103.000
57.99500    100.000
58.01000    104.000
58.02500    94.000
58.04000    105.000
58.05500    95.000
58.07000    99.000
58.08500    103.000
58.10000    111.000
58.11500    99.000
58.13000    102.000
58.14500    87.000
58.16000    93.000
58.17500    94.000
58.19000    91.000
58.20500    103.000
58.22000    105.000
58.23500    102.000
58.25000    96.000
58.26500    103.000
58.28000    106.000
58.29500    95.000
58.31000    93.000
58.32500    90.000
58.34000    101.000
58.35500    107.000
58.37000    88.000
58.38500    101.000
58.40000    111.000
58.41500    105.000
58.43000    99.000
58.44500    99.000
58.46000    90.000
58.47500    84.000
58.49000    88.000
58.50500    98.000
58.52000    94.000
58.53500    90.000
58.55000    92.000
58.56500    87.000
58.58000    95.000
58.59500    109.000
58.61000    109.000
58.62500    89.000
58.64000    98.000
58.65500    92.000
58.67000    103.000
58.68500    98.000
58.70000    103.000
58.71500    93.000
58.73000    92.000
58.74500    88.000
58.76000    86.000
58.77500    88.000
58.79000    108.000
58.80500    101.000
58.82000    83.000
58.83500    98.000
58.85000    89.000
58.86500    86.000
58.88000    97.000
58.89500    88.000
58.91000    92.000
58.92500    89.000
58.94000    95.000
58.95500    99.000
58.97000    110.000
58.98500    102.000
59.00000    85.000
59.01500    92.000
59.03000    95.000
59.04500    85.000
59.06000    95.000
59.07500    85.000
59.09000    101.000
59.10500    100.000
59.12000    82.000
59.13500    84.000
59.15000    91.000
59.16500    101.000
59.18000    92.000
59.19500    103.000
59.21000    101.000
59.22500    118.000
59.24000    100.000
59.25500    100.000
59.27000    94.000
59.28500    100.000
59.30000    85.000
59.31500    95.000
59.33000    82.000
59.34500    105.000
59.36000    95.000
59.37500    95.000
59.39000    94.000
59.40500    87.000
59.42000    103.000
59.43500    105.000
59.45000    103.000
59.46500    78.000
59.48000    79.000
59.49500    98.000
59.51000    102.000
59.52500    96.000
59.54000    91.000
59.55500    78.000
59.57000    107.000
59.58500    101.000
59.60000    95.000
59.61500    90.000
59.63000    84.000
59.64500    80.000
59.66000    91.000
59.67500    91.000
59.69000    92.000
59.70500    94.000
59.72000    97.000
59.73500    96.000
59.75000    102.000
59.76500    91.000
59.78000    91.000
59.79500    96.000
59.81000    95.000
59.82500    85.000
59.84000    88.000
59.85500    99.000
59.87000    108.000
59.88500    94.000
59.90000    111.000
59.91500    100.000
59.93000    107.000
59.94500    96.000
59.96000    91.000
59.97500    80.000
59.99000    88.000
60.00500    93.000
60.02000    97.000
60.03500    88.000
60.05000    76.000
60.06500    90.000
60.08000    83.000
60.09500    88.000
60.11000    98.000
60.12500    84.000
60.14000    91.000
60.15500    88.000
60.17000    92.000
60.18500    93.000
60.20000    95.000
60.21500    105.000
60.23000    95.000
60.24500    100.000
60.26000    91.000
60.27500    92.000
60.29000    103.000
60.30500    99.000
60.32000    113.000
60.33500    97.000
60.35000    81.000
60.36500    79.000
60.38000    80.000
60.39500    92.000
60.41000    96.000
60.42500    93.000
60.44000    95.000
60.45500    81.000
60.47000    91.000
60.48500    93.000
60.50000    85.000
60.51500    94.000
60.53000    100.000
60.54500    86.000
60.56000    102.000
60.57500    103.000
60.59000    90.000
60.60500    86.000
60.62000    88.000
60.63500    87.000
60.65000    90.000
60.66500    97.000
60.68000    105.000
60.69500    98.000
60.71000    84.000
60.72500    96.000
60.74000    91.000
60.75500    94.000
60.77000    107.000
60.78500    104.000
60.80000    90.000
60.81500    99.000
60.83000    83.000
60.84500    93.000
60.86000    96.000
60.87500    94.000
60.89000    88.000
60.90500    82.000
60.92000    94.000
60.93500    101.000
60.95000    85.000
60.96500    87.000
60.98000    95.000
60.99500    94.000
61.01000    107.000
61.02500    88.000
61.04000    101.000
61.05500    102.000
61.07000    93.000
61.08500    88.000
61.10000    94.000
61.11500    85.000
61.13000    91.000
61.14500    97.000
61.16000    88.000
61.17500    94.000
61.19000    86.000
61.20500    86.000
61.22000    89.000
61.23500    102.000
61.25000    89.000
61.26500    89.000
61.28000    111.000
61.29500    86.000
61.31000    83.000
61.32500    85.000
61.34000    98.000
61.35500    100.000
61.37000    96.000
61.38500    111.000
61.40000    100.000
61.41500    97.000
61.43000    94.000
61.44500    110.000
61.46000    92.000
61.47500    87.000
61.49000    90.000
61.50500    75.000
61.52000    88.000
61.53500    89.000
61.55000    88.000
61.56500    89.000
61.58000    92.000
61.59500    106.000
61.61000    91.000
61.62500    87.000
61.64000    97.000
61.65500    96.000
61.67000    89.000
61.68500    94.000
61.70000    86.000
61.71500    86.000
61.73000    99.000
61.74500    95.000
61.76000    86.000
61.77500    80.000
61.79000    84.000
61.80500    105.000
61.82000    94.000
61.83500    90.000
61.85000    89.000
61.86500    95.000
61.88000    95.000
61.89500    90.000
61.91000    86.000
61.92500    84.000
61.94000    90.000
61.95500    92.000
61.97000    94.000
61.98500    94.000
