2.00000 4.000
2.01500 2.000
2.03000 1.000
2.04500 2.000
2.06000 2.000
2.07500 2.000
2.09000 3.000
2.10500 1.000
2.12000 3.000
2.13500 4.000
2.15000 2.000
2.16500 2.000
2.18000 4.000
2.19500 2.000
2.21000 1.000
2.22500 3.000
2.24000 2.000
2.25500 1.000
2.27000 2.000
2.28500 2.000
2.30000 3.000
2.31500 4.000
2.33000 1.000
2.34500 1.000
2.36000 1.000
2.37500 1.000
2.39000 2.000
2.40500 3.000
2.42000 3.000
2.43500 2.000
2.45000 2.000
2.46500 1.000
2.48000 1.000
2.49500 2.000
2.51000 4.000
2.52500 6.000
2.54000 3.000
2.55500 3.000
2.57000 3.000
2.58500 3.000
2.60000 2.000
2.61500 3.000
2.63000 3.000
2.64500 3.000
2.66000 4.000
2.67500 1.000
2.69000 2.000
2.70500 4.000
2.72000 3.000
2.73500 4.000
2.75000 5.000
2.76500 5.000
2.78000 2.000
2.79500 1.000
2.81000 2.000
2.82500 4.000
2.84000 2.000
2.85500 4.000
2.87000 4.000
2.88500 4.000
2.90000 5.000
2.91500 3.000
2.93000 3.000
2.94500 4.000
2.96000 4.000
2.97500 3.000
2.99000 4.000
3.00500 3.000
3.02000 3.000
3.03500 1.000
3.05000 2.000
3.06500 1.000
3.08000 4.000
3.09500 8.000
3.11000 11.000
3.12500 12.000
3.14000 17.000
3.15500 23.000
3.17000 27.000
3.18500 23.000
3.20000 27.000
3.21500 24.000
3.23000 37.000
3.24500 41.000
3.26000 41.000
3.27500 62.000
3.29000 55.000
3.30500 47.000
3.32000 61.000
3.33500 66.000
3.35000 60.000
3.36500 58.000
3.38000 68.000
3.39500 64.000
3.41000 64.000
3.42500 65.000
3.44000 67.000
3.45500 61.000
3.47000 60.000
3.48500 68.000
3.50000 78.000
3.51500 60.000
3.53000 71.000
3.54500 74.000
3.56000 71.000
3.57500 70.000
3.59000 80.000
3.60500 64.000
3.62000 71.000
3.63500 79.000
3.65000 78.000
3.66500 71.000
3.68000 80.000
3.69500 66.000
3.71000 78.000
3.72500 82.000
3.74000 81.000
3.75500 91.000
3.77000 84.000
3.78500 84.000
3.80000 79.000
3.81500 87.000
3.83000 68.000
3.84500 84.000
3.86000 80.000
3.87500 82.000
3.89000 91.000
3.90500 94.000
3.92000 70.000
3.93500 80.000
3.95000 79.000
3.96500 82.000
3.98000 92.000
3.99500 86.000
4.01000 104.000
4.02500 94.000
4.04000 85.000
4.05500 91.000
4.07000 108.000
4.08500 96.000
4.10000 100.000
4.11500 96.000
4.13000 98.000
4.14500 94.000
4.16000 81.000
4.17500 103.000
4.19000 97.000
4.20500 102.000
4.22000 90.000
4.23500 86.000
4.25000 104.000
4.26500 105.000
4.28000 108.000
4.29500 104.000
4.31000 98.000
4.32500 125.000
4.34000 116.000
4.35500 109.000
4.37000 102.000
4.38500 106.000
4.40000 126.000
4.41500 121.000
4.43000 111.000
4.44500 112.000
4.46000 108.000
4.47500 97.000
4.49000 105.000
4.50500 108.000
4.52000 101.000
4.53500 102.000
4.55000 118.000
4.56500 104.000
4.58000 99.000
4.59500 98.000
4.61000 121.000
4.62500 114.000
4.64000 119.000
4.65500 120.000
4.67000 109.000
4.68500 113.000
4.70000 98.000
4.71500 113.000
4.73000 137.000
4.74500 128.000
4.76000 123.000
4.77500 110.000
4.79000 109.000
4.80500 114.000
4.82000 114.000
4.83500 125.000
4.85000 108.000
4.86500 103.000
4.88000 109.000
4.89500 123.000
4.91000 131.000
4.92500 119.000
4.94000 139.000
4.95500 123.000
4.97000 113.000
4.98500 126.000
5.00000 120.000
5.01500 126.000
5.03000 129.000
5.04500 113.000
5.06000 117.000
5.07500 108.000
5.09000 111.000
5.10500 123.000
5.12000 115.000
5.13500 117.000
5.15000 130.000
5.16500 130.000
5.18000 125.000
5.19500 125.000
5.21000 122.000
5.22500 126.000
5.24000 133.000
5.25500 138.000
5.27000 121.000
5.28500 120.000
5.30000 119.000
5.31500 140.000
5.33000 111.000
5.34500 119.000
5.36000 134.000
5.37500 137.000
5.39000 121.000
5.40500 138.000
5.42000 142.000
5.43500 125.000
5.45000 124.000
5.46500 146.000
5.48000 146.000
5.49500 126.000
5.51000 123.000
5.52500 129.000
5.54000 126.000
5.55500 125.000
5.57000 136.000
5.58500 144.000
5.60000 128.000
5.61500 139.000
5.63000 136.000
5.64500 115.000
5.66000 130.000
5.67500 121.000
5.69000 134.000
5.70500 127.000
5.72000 137.000
5.73500 122.000
5.75000 120.000
5.76500 139.000
5.78000 136.000
5.79500 133.000
5.81000 136.000
5.82500 129.000
5.84000 123.000
5.85500 138.000
5.87000 136.000
5.88500 143.000
5.90000 128.000
5.91500 152.000
5.93000 143.000
5.94500 141.000
5.96000 151.000
5.97500 147.000
5.99000 146.000
6.00500 148.000
6.02000 135.000
6.03500 140.000
6.05000 154.000
6.06500 151.000
6.08000 140.000
6.09500 132.000
6.11000 141.000
6.12500 149.000
6.14000 145.000
6.15500 138.000
6.17000 127.000
6.18500 145.000
6.20000 137.000
6.21500 133.000
6.23000 140.000
6.24500 138.000
6.26000 154.000
6.27500 140.000
6.29000 139.000
6.30500 147.000
6.32000 140.000
6.33500 148.000
6.35000 157.000
6.36500 145.000
6.38000 140.000
6.39500 137.000
6.41000 162.000
6.42500 152.000
6.44000 161.000
6.45500 172.000
6.47000 145.000
6.48500 154.000
6.50000 146.000
6.51500 148.000
6.53000 148.000
6.54500 127.000
6.56000 139.000
6.57500 147.000
6.59000 155.000
6.60500 154.000
6.62000 163.000
6.63500 138.000
6.65000 144.000
6.66500 137.000
6.68000 131.000
6.69500 134.000
6.71000 152.000
6.72500 169.000
6.74000 152.000
6.75500 141.000
6.77000 148.000
6.78500 147.000
6.80000 157.000
6.81500 150.000
6.83000 141.000
6.84500 142.000
6.86000 155.000
6.87500 151.000
6.89000 138.000
6.90500 136.000
6.92000 137.000
6.93500 149.000
6.95000 154.000
6.96500 154.000
6.98000 157.000
6.99500 163.000
7.01000 156.000
7.02500 155.000
7.04000 147.000
7.05500 166.000
7.07000 164.000
7.08500 168.000
7.10000 142.000
7.11500 148.000
7.13000 163.000
7.14500 160.000
7.16000 153.000
7.17500 178.000
7.19000 168.000
7.20500 170.000
7.22000 154.000
7.23500 151.000
7.25000 135.000
7.26500 140.000
7.28000 139.000
7.29500 129.000
7.31000 150.000
7.32500 163.000
7.34000 174.000
7.35500 166.000
7.37000 158.000
7.38500 156.000
7.40000 166.000
7.41500 159.000
7.43000 166.000
7.44500 174.000
7.46000 159.000
7.47500 165.000
7.49000 175.000
7.50500 176.000
7.52000 172.000
7.53500 153.000
7.55000 176.000
7.56500 168.000
7.58000 180.000
7.59500 156.000
7.61000 155.000
7.62500 175.000
7.64000 170.000
7.65500 171.000
7.67000 177.000
7.68500 154.000
7.70000 143.000
7.71500 139.000
7.73000 153.000
7.74500 151.000
7.76000 156.000
7.77500 168.000
7.79000 160.000
7.80500 152.000
7.82000 172.000
7.83500 173.000
7.85000 153.000
7.86500 154.000
7.88000 160.000
7.89500 154.000
7.91000 157.000
7.92500 159.000
7.94000 162.000
7.95500 149.000
7.97000 160.000
7.98500 162.000
8.00000 161.000
8.01500 147.000
8.03000 167.000
8.04500 156.000
8.06000 154.000
8.07500 169.000
8.09000 160.000
8.10500 164.000
8.12000 170.000
8.13500 181.000
8.15000 164.000
8.16500 171.000
8.18000 192.000
8.19500 179.000
8.21000 172.000
8.22500 174.000
8.24000 170.000
8.25500 174.000
8.27000 180.000
8.28500 171.000
8.30000 177.000
8.31500 177.000
8.33000 165.000
8.34500 178.000
8.36000 162.000
8.37500 178.000
8.39000 207.000
8.40500 216.000
8.42000 218.000
8.43500 236.000
8.45000 247.000
8.46500 265.000
8.48000 295.000
8.49500 330.000
8.51000 356.000
8.52500 377.000
8.54000 372.000
8.55500 458.000
8.57000 513.000
8.58500 575.000
8.60000 634.000
8.61500 732.000
8.63000 863.000
8.64500 998.000
8.66000 1141.000
8.67500 1324.000
8.69000 1623.000
8.70500 1942.000
8.72000 2232.000
8.73500 2720.000
8.75000 3271.000
8.76500 3964.000
8.78000 4844.000
8.79500 5096.000
8.81000 4124.000
8.82500 2617.000
8.84000 1478.000
8.85500 798.000
8.87000 536.000
8.88500 371.000
8.90000 324.000
8.91500 274.000
8.93000 240.000
8.94500 198.000
8.96000 215.000
8.97500 215.000
8.99000 179.000
9.00500 185.000
9.02000 180.000
9.03500 193.000
9.05000 192.000
9.06500 190.000
9.08000 168.000
9.09500 162.000
9.11000 171.000
9.12500 165.000
9.14000 167.000
9.15500 173.000
9.17000 176.000
9.18500 192.000
9.20000 175.000
9.21500 177.000
9.23000 172.000
9.24500 166.000
9.26000 181.000
9.27500 185.000
9.29000 174.000
9.30500 177.000
9.32000 154.000
9.33500 169.000
9.35000 167.000
9.36500 149.000
9.38000 159.000
9.39500 188.000
9.41000 169.000
9.42500 146.000
9.44000 170.000
9.45500 180.000
9.47000 184.000
9.48500 192.000
9.50000 175.000
9.51500 182.000
9.53000 160.000
9.54500 177.000
9.56000 192.000
9.57500 167.000
9.59000 176.000
9.60500 164.000
9.62000 172.000
9.63500 168.000
9.65000 173.000
9.66500 156.000
9.68000 165.000
9.69500 188.000
9.71000 177.000
9.72500 159.000
9.74000 162.000
9.75500 159.000
9.77000 183.000
9.78500 181.000
9.80000 165.000
9.81500 152.000
9.83000 170.000
9.84500 175.000
9.86000 174.000
9.87500 185.000
9.89000 170.000
9.90500 177.000
9.92000 169.000
9.93500 175.000
9.95000 162.000
9.96500 159.000
9.98000 152.000
9.99500 150.000
10.01000 161.000
10.02500 177.000
10.04000 163.000
10.05500 172.000
10.07000 158.000
10.08500 199.000
10.10000 194.000
10.11500 177.000
10.13000 185.000
10.14500 168.000
10.16000 177.000
10.17500 179.000
10.19000 176.000
10.20500 176.000
10.22000 171.000
10.23500 177.000
10.25000 159.000
10.26500 167.000
10.28000 158.000
10.29500 141.000
10.31000 161.000
10.32500 159.000
10.34000 166.000
10.35500 172.000
10.37000 165.000
10.38500 156.000
10.40000 163.000
10.41500 173.000
10.43000 194.000
10.44500 188.000
10.46000 191.000
10.47500 195.000
10.49000 184.000
10.50500 188.000
10.52000 181.000
10.53500 194.000
10.55000 157.000
10.56500 161.000
10.58000 174.000
10.59500 198.000
10.61000 191.000
10.62500 165.000
10.64000 177.000
10.65500 183.000
10.67000 175.000
10.68500 171.000
10.70000 171.000
10.71500 150.000
10.73000 147.000
10.74500 161.000
10.76000 178.000
10.77500 177.000
10.79000 170.000
10.80500 165.000
10.82000 162.000
10.83500 188.000
10.85000 162.000
10.86500 167.000
10.88000 153.000
10.89500 176.000
10.91000 160.000
10.92500 172.000
10.94000 190.000
10.95500 167.000
10.97000 168.000
10.98500 174.000
11.00000 174.000
11.01500 168.000
11.03000 173.000
11.04500 167.000
11.06000 181.000
11.07500 183.000
11.09000 177.000
11.10500 182.000
11.12000 186.000
11.13500 165.000
11.15000 182.000
11.16500 170.000
11.18000 175.000
11.19500 175.000
11.21000 166.000
11.22500 161.000
11.24000 171.000
11.25500 161.000
11.27000 161.000
11.28500 151.000
11.30000 172.000
11.31500 177.000
11.33000 189.000
11.34500 184.000
11.36000 192.000
11.37500 182.000
11.39000 213.000
11.40500 200.000
11.42000 195.000
11.43500 171.000
11.45000 170.000
11.46500 171.000
11.48000 174.000
11.49500 174.000
11.51000 176.000
11.52500 188.000
11.54000 154.000
11.55500 171.000
11.57000 188.000
11.58500 155.000
11.60000 164.000
11.61500 182.000
11.63000 182.000
11.64500 173.000
11.66000 167.000
11.67500 152.000
11.69000 162.000
11.70500 156.000
11.72000 164.000
11.73500 170.000
11.75000 181.000
11.76500 165.000
11.78000 175.000
11.79500 163.000
11.81000 162.000
11.82500 157.000
11.84000 184.000
11.85500 177.000
11.87000 175.000
11.88500 197.000
11.90000 188.000
11.91500 181.000
11.93000 167.000
11.94500 170.000
11.96000 159.000
11.97500 175.000
11.99000 194.000
12.00500 164.000
12.02000 178.000
12.03500 177.000
12.05000 159.000
12.06500 152.000
12.08000 172.000
12.09500 176.000
12.11000 176.000
12.12500 192.000
12.14000 168.000
12.15500 164.000
12.17000 186.000
12.18500 183.000
12.20000 184.000
12.21500 165.000
12.23000 167.000
12.24500 187.000
12.26000 189.000
12.27500 172.000
12.29000 161.000
12.30500 169.000
12.32000 173.000
12.33500 179.000
12.35000 180.000
12.36500 182.000
12.38000 183.000
12.39500 178.000
12.41000 185.000
12.42500 181.000
12.44000 169.000
12.45500 179.000
12.47000 187.000
12.48500 175.000
12.50000 178.000
12.51500 166.000
12.53000 159.000
12.54500 159.000
12.56000 191.000
12.57500 186.000
12.59000 189.000
12.60500 199.000
12.62000 184.000
12.63500 183.000
12.65000 194.000
12.66500 200.000
12.68000 214.000
12.69500 204.000
12.71000 209.000
12.72500 237.000
12.74000 236.000
12.75500 224.000
12.77000 227.000
12.78500 209.000
12.80000 197.000
12.81500 187.000
12.83000 189.000
12.84500 201.000
12.86000 215.000
12.87500 211.000
12.89000 235.000
12.90500 256.000
12.92000 230.000
12.93500 266.000
12.95000 291.000
12.96500 295.000
12.98000 355.000
12.99500 406.000
13.01000 429.000
13.02500 523.000
13.04000 653.000
13.05500 771.000
13.07000 896.000
13.08500 1156.000
13.10000 1346.000
13.11500 1586.000
13.13000 1690.000
13.14500 1445.000
13.16000 879.000
13.17500 487.000
13.19000 304.000
13.20500 226.000
13.22000 202.000
13.23500 196.000
13.25000 193.000
13.26500 176.000
13.28000 173.000
13.29500 177.000
13.31000 185.000
13.32500 179.000
13.34000 176.000
13.35500 172.000
13.37000 174.000
13.38500 182.000
13.40000 185.000
13.41500 173.000
13.43000 174.000
13.44500 164.000
13.46000 178.000
13.47500 181.000
13.49000 166.000
13.50500 187.000
13.52000 173.000
13.53500 194.000
13.55000 181.000
13.56500 165.000
13.58000 169.000
13.59500 197.000
13.61000 191.000
13.62500 175.000
13.64000 157.000
13.65500 155.000
13.67000 182.000
13.68500 176.000
13.70000 174.000
13.71500 170.000
13.73000 170.000
13.74500 169.000
13.76000 173.000
13.77500 171.000
13.79000 178.000
13.80500 175.000
13.82000 176.000
13.83500 189.000
13.85000 177.000
13.86500 196.000
13.88000 194.000
13.89500 180.000
13.91000 171.000
13.92500 179.000
13.94000 165.000
13.95500 202.000
13.97000 185.000
13.98500 173.000
14.00000 179.000
14.01500 184.000
14.03000 177.000
14.04500 175.000
14.06000 176.000
14.07500 178.000
14.09000 176.000
14.10500 169.000
14.12000 184.000
14.13500 203.000
14.15000 177.000
14.16500 202.000
14.18000 198.000
14.19500 187.000
14.21000 165.000
14.22500 174.000
14.24000 183.000
14.25500 172.000
14.27000 189.000
14.28500 200.000
14.30000 191.000
14.31500 183.000
14.33000 174.000
14.34500 181.000
14.36000 174.000
14.37500 169.000
14.39000 175.000
14.40500 170.000
14.42000 169.000
14.43500 171.000
14.45000 170.000
14.46500 186.000
14.48000 183.000
14.49500 174.000
14.51000 184.000
14.52500 207.000
14.54000 198.000
14.55500 187.000
14.57000 174.000
14.58500 188.000
14.60000 205.000
14.61500 191.000
14.63000 196.000
14.64500 222.000
14.66000 207.000
14.67500 218.000
14.69000 250.000
14.70500 247.000
14.72000 265.000
14.73500 313.000
14.75000 350.000
14.76500 405.000
14.78000 434.000
14.79500 539.000
14.81000 668.000
14.82500 851.000
14.84000 1062.000
14.85500 1431.000
14.87000 1580.000
14.88500 1449.000
14.90000 1186.000
14.91500 753.000
14.93000 453.000
14.94500 308.000
14.96000 240.000
14.97500 256.000
14.99000 224.000
15.00500 239.000
15.02000 222.000
15.03500 253.000
15.05000 245.000
15.06500 268.000
15.08000 264.000
15.09500 307.000
15.11000 349.000
15.12500 400.000
15.14000 432.000
15.15500 482.000
15.17000 543.000
15.18500 608.000
15.20000 657.000
15.21500 698.000
15.23000 648.000
15.24500 527.000
15.26000 514.000
15.27500 395.000
15.29000 320.000
15.30500 283.000
15.32000 266.000
15.33500 261.000
15.35000 244.000
15.36500 221.000
15.38000 218.000
15.39500 204.000
15.41000 206.000
15.42500 222.000
15.44000 186.000
15.45500 191.000
15.47000 203.000
15.48500 189.000
15.50000 173.000
15.51500 173.000
15.53000 209.000
15.54500 178.000
15.56000 212.000
15.57500 190.000
15.59000 196.000
15.60500 195.000
15.62000 198.000
15.63500 202.000
15.65000 214.000
15.66500 198.000
15.68000 197.000
15.69500 187.000
15.71000 196.000
15.72500 188.000
15.74000 224.000
15.75500 229.000
15.77000 243.000
15.78500 257.000
15.80000 263.000
15.81500 289.000
15.83000 272.000
15.84500 291.000
15.86000 308.000
15.87500 274.000
15.89000 237.000
15.90500 234.000
15.92000 216.000
15.93500 189.000
15.95000 183.000
15.96500 185.000
15.98000 176.000
15.99500 201.000
16.01000 186.000
16.02500 187.000
16.04000 177.000
16.05500 199.000
16.07000 183.000
16.08500 190.000
16.10000 214.000
16.11500 202.000
16.13000 188.000
16.14500 165.000
16.16000 196.000
16.17500 191.000
16.19000 177.000
16.20500 193.000
16.22000 207.000
16.23500 172.000
16.25000 197.000
16.26500 174.000
16.28000 188.000
16.29500 181.000
16.31000 183.000
16.32500 181.000
16.34000 182.000
16.35500 205.000
16.37000 181.000
16.38500 172.000
16.40000 179.000
16.41500 188.000
16.43000 192.000
16.44500 176.000
16.46000 187.000
16.47500 183.000
16.49000 181.000
16.50500 183.000
16.52000 186.000
16.53500 186.000
16.55000 179.000
16.56500 188.000
16.58000 174.000
16.59500 173.000
16.61000 183.000
16.62500 194.000
16.64000 183.000
16.65500 178.000
16.67000 170.000
16.68500 174.000
16.70000 173.000
16.71500 185.000
16.73000 216.000
16.74500 179.000
16.76000 191.000
16.77500 179.000
16.79000 184.000
16.80500 184.000
16.82000 169.000
16.83500 189.000
16.85000 184.000
16.86500 173.000
16.88000 182.000
16.89500 187.000
16.91000 187.000
16.92500 174.000
16.94000 182.000
16.95500 195.000
16.97000 207.000
16.98500 197.000
17.00000 184.000
17.01500 171.000
17.03000 186.000
17.04500 191.000
17.06000 173.000
17.07500 179.000
17.09000 187.000
17.10500 194.000
17.12000 198.000
17.13500 200.000
17.15000 193.000
17.16500 217.000
17.18000 203.000
17.19500 199.000
17.21000 208.000
17.22500 196.000
17.24000 218.000
17.25500 203.000
17.27000 210.000
17.28500 228.000
17.30000 237.000
17.31500 274.000
17.33000 318.000
17.34500 323.000
17.36000 342.000
17.37500 419.000
17.39000 499.000
17.40500 643.000
17.42000 911.000
17.43500 1145.000
17.45000 1469.000
17.46500 1870.000
17.48000 1808.000
17.49500 1368.000
17.51000 1101.000
17.52500 1092.000
17.54000 1276.000
17.55500 1584.000
17.57000 2016.000
17.58500 2410.000
17.60000 2736.000
17.61500 2812.000
17.63000 2970.000
17.64500 3154.000
17.66000 3734.000
17.67500 4376.000
17.69000 5196.000
17.70500 5030.000
17.72000 3817.000
17.73500 2317.000
17.75000 1284.000
17.76500 831.000
17.78000 708.000
17.79500 700.000
17.81000 915.000
17.82500 1152.000
17.84000 1543.000
17.85500 2206.000
17.87000 3263.000
17.88500 4330.000
17.90000 4342.000
17.91500 2881.000
17.93000 1429.000
17.94500 595.000
17.96000 357.000
17.97500 285.000
17.99000 253.000
18.00500 250.000
18.02000 306.000
18.03500 307.000
18.05000 323.000
18.06500 351.000
18.08000 382.000
18.09500 353.000
18.11000 347.000
18.12500 280.000
18.14000 226.000
18.15500 211.000
18.17000 204.000
18.18500 199.000
18.20000 197.000
18.21500 187.000
18.23000 216.000
18.24500 193.000
18.26000 189.000
18.27500 182.000
18.29000 193.000
18.30500 192.000
18.32000 212.000
18.33500 208.000
18.35000 200.000
18.36500 192.000
18.38000 189.000
18.39500 187.000
18.41000 192.000
18.42500 185.000
18.44000 178.000
18.45500 192.000
18.47000 185.000
18.48500 198.000
18.50000 187.000
18.51500 191.000
18.53000 194.000
18.54500 173.000
18.56000 167.000
18.57500 173.000
18.59000 204.000
18.60500 195.000
18.62000 186.000
18.63500 217.000
18.65000 200.000
18.66500 188.000
18.68000 203.000
18.69500 200.000
18.71000 183.000
18.72500 198.000
18.74000 168.000
18.75500 197.000
18.77000 200.000
18.78500 190.000
18.80000 192.000
18.81500 198.000
18.83000 204.000
18.84500 197.000
18.86000 229.000
18.87500 242.000
18.89000 266.000
18.90500 265.000
18.92000 287.000
18.93500 326.000
18.95000 397.000
18.96500 497.000
18.98000 635.000
18.99500 759.000
19.01000 939.000
19.02500 1231.000
19.04000 1572.000
19.05500 1888.000
19.07000 1849.000
19.08500 1391.000
19.10000 901.000
19.11500 558.000
19.13000 377.000
19.14500 317.000
19.16000 267.000
19.17500 257.000
19.19000 213.000
19.20500 197.000
19.22000 215.000
19.23500 226.000
19.25000 210.000
19.26500 203.000
19.28000 204.000
19.29500 198.000
19.31000 196.000
19.32500 196.000
19.34000 214.000
19.35500 183.000
19.37000 171.000
19.38500 185.000
19.40000 182.000
19.41500 193.000
19.43000 203.000
19.44500 188.000
19.46000 170.000
19.47500 185.000
19.49000 205.000
19.50500 194.000
19.52000 199.000
19.53500 210.000
19.55000 208.000
19.56500 210.000
19.58000 201.000
19.59500 177.000
19.61000 207.000
19.62500 178.000
19.64000 192.000
19.65500 184.000
19.67000 167.000
19.68500 172.000
19.70000 181.000
19.71500 198.000
19.73000 212.000
19.74500 198.000
19.76000 194.000
19.77500 194.000
19.79000 193.000
19.80500 186.000
19.82000 193.000
19.83500 184.000
19.85000 183.000
19.86500 185.000
19.88000 183.000
19.89500 193.000
19.91000 191.000
19.92500 195.000
19.94000 189.000
19.95500 183.000
19.97000 204.000
19.98500 205.000
20.00000 200.000
20.01500 206.000
20.03000 212.000
20.04500 235.000
20.06000 236.000
20.07500 241.000
20.09000 269.000
20.10500 281.000
20.12000 295.000
20.13500 332.000
20.15000 330.000
20.16500 408.000
20.18000 501.000
20.19500 534.000
20.21000 526.000
20.22500 456.000
20.24000 332.000
20.25500 284.000
20.27000 244.000
20.28500 245.000
20.30000 226.000
20.31500 215.000
20.33000 221.000
20.34500 209.000
20.36000 191.000
20.37500 199.000
20.39000 193.000
20.40500 206.000
20.42000 191.000
20.43500 188.000
20.45000 195.000
20.46500 194.000
20.48000 192.000
20.49500 213.000
20.51000 194.000
20.52500 214.000
20.54000 205.000
20.55500 208.000
20.57000 196.000
20.58500 197.000
20.60000 192.000
20.61500 191.000
20.63000 179.000
20.64500 195.000
20.66000 189.000
20.67500 207.000
20.69000 226.000
20.70500 194.000
20.72000 189.000
20.73500 202.000
20.75000 193.000
20.76500 208.000
20.78000 194.000
20.79500 191.000
20.81000 195.000
20.82500 196.000
20.84000 186.000
20.85500 213.000
20.87000 190.000
20.88500 176.000
20.90000 198.000
20.91500 191.000
20.93000 192.000
20.94500 190.000
20.96000 222.000
20.97500 208.000
20.99000 187.000
21.00500 206.000
21.02000 187.000
21.03500 189.000
21.05000 204.000
21.06500 200.000
21.08000 199.000
21.09500 196.000
21.11000 196.000
21.12500 205.000
21.14000 202.000
21.15500 204.000
21.17000 200.000
21.18500 200.000
21.20000 205.000
21.21500 210.000
21.23000 200.000
21.24500 204.000
21.26000 204.000
21.27500 211.000
21.29000 225.000
21.30500 207.000
21.32000 216.000
21.33500 232.000
21.35000 219.000
21.36500 227.000
21.38000 230.000
21.39500 240.000
21.41000 259.000
21.42500 237.000
21.44000 252.000
21.45500 287.000
21.47000 330.000
21.48500 373.000
21.50000 443.000
21.51500 424.000
21.53000 473.000
21.54500 489.000
21.56000 659.000
21.57500 817.000
21.59000 1146.000
21.60500 1620.000
21.62000 2210.000
21.63500 3176.000
21.65000 4282.000
21.66500 4701.000
21.68000 4184.000
21.69500 2813.000
21.71000 1568.000
21.72500 836.000
21.74000 532.000
21.75500 379.000
21.77000 280.000
21.78500 255.000
21.80000 240.000
21.81500 237.000
21.83000 231.000
21.84500 235.000
21.86000 234.000
21.87500 236.000
21.89000 235.000
21.90500 241.000
21.92000 280.000
21.93500 337.000
21.95000 403.000
21.96500 492.000
21.98000 616.000
21.99500 710.000
22.01000 914.000
22.02500 1267.000
22.04000 1724.000
22.05500 2261.000
22.07000 2617.000
22.08500 2569.000
22.10000 1942.000
22.11500 1208.000
22.13000 732.000
22.14500 452.000
22.16000 376.000
22.17500 301.000
22.19000 271.000
22.20500 230.000
22.22000 226.000
22.23500 228.000
22.25000 213.000
22.26500 225.000
22.28000 220.000
22.29500 202.000
22.31000 179.000
22.32500 204.000
22.34000 221.000
22.35500 218.000
22.37000 208.000
22.38500 222.000
22.40000 199.000
22.41500 213.000
22.43000 215.000
22.44500 228.000
22.46000 212.000
22.47500 219.000
22.49000 192.000
22.50500 192.000
22.52000 213.000
22.53500 208.000
22.55000 195.000
22.56500 208.000
22.58000 203.000
22.59500 214.000
22.61000 230.000
22.62500 225.000
22.64000 219.000
22.65500 214.000
22.67000 197.000
22.68500 211.000
22.70000 207.000
22.71500 220.000
22.73000 222.000
22.74500 199.000
22.76000 215.000
22.77500 200.000
22.79000 209.000
22.80500 200.000
22.82000 219.000
22.83500 200.000
22.85000 215.000
22.86500 202.000
22.88000 207.000
22.89500 228.000
22.91000 203.000
22.92500 202.000
22.94000 207.000
22.95500 223.000
22.97000 202.000
22.98500 199.000
23.00000 178.000
23.01500 225.000
23.03000 207.000
23.04500 206.000
23.06000 199.000
23.07500 210.000
23.09000 205.000
23.10500 210.000
23.12000 217.000
23.13500 222.000
23.15000 212.000
23.16500 225.000
23.18000 242.000
23.19500 243.000
23.21000 238.000
23.22500 249.000
23.24000 267.000
23.25500 275.000
23.27000 313.000
23.28500 351.000
23.30000 404.000
23.31500 457.000
23.33000 551.000
23.34500 721.000
23.36000 845.000
23.37500 919.000
23.39000 920.000
23.40500 803.000
23.42000 643.000
23.43500 493.000
23.45000 397.000
23.46500 362.000
23.48000 305.000
23.49500 274.000
23.51000 273.000
23.52500 250.000
23.54000 222.000
23.55500 228.000
23.57000 247.000
23.58500 235.000
23.60000 237.000
23.61500 245.000
23.63000 241.000
23.64500 226.000
23.66000 235.000
23.67500 222.000
23.69000 234.000
23.70500 210.000
23.72000 228.000
23.73500 231.000
23.75000 225.000
23.76500 236.000
23.78000 242.000
23.79500 231.000
23.81000 226.000
23.82500 231.000
23.84000 257.000
23.85500 264.000
23.87000 274.000
23.88500 273.000
23.90000 291.000
23.91500 308.000
23.93000 359.000
23.94500 381.000
23.96000 444.000
23.97500 544.000
23.99000 648.000
24.00500 769.000
24.02000 893.000
24.03500 1106.000
24.05000 1097.000
24.06500 1076.000
24.08000 942.000
24.09500 755.000
24.11000 596.000
24.12500 494.000
24.14000 438.000
24.15500 322.000
24.17000 321.000
24.18500 293.000
24.20000 289.000
24.21500 298.000
24.23000 275.000
24.24500 268.000
24.26000 265.000
24.27500 291.000
24.29000 304.000
24.30500 303.000
24.32000 361.000
24.33500 392.000
24.35000 407.000
24.36500 478.000
24.38000 626.000
24.39500 786.000
24.41000 995.000
24.42500 1221.000
24.44000 1496.000
24.45500 1871.000
24.47000 2131.000
24.48500 2372.000
24.50000 2458.000
24.51500 2235.000
24.53000 1817.000
24.54500 1344.000
24.56000 867.000
24.57500 627.000
24.59000 467.000
24.60500 349.000
24.62000 323.000
24.63500 322.000
24.65000 284.000
24.66500 278.000
24.68000 261.000
24.69500 263.000
24.71000 244.000
24.72500 246.000
24.74000 269.000
24.75500 242.000
24.77000 253.000
24.78500 213.000
24.80000 245.000
24.81500 240.000
24.83000 228.000
24.84500 223.000
24.86000 224.000
24.87500 236.000
24.89000 249.000
24.90500 236.000
24.92000 231.000
24.93500 245.000
24.95000 264.000
24.96500 296.000
24.98000 304.000
24.99500 369.000
25.01000 444.000
25.02500 464.000
25.04000 542.000
25.05500 744.000
25.07000 946.000
25.08500 1255.000
25.10000 1512.000
25.11500 1553.000
25.13000 1405.000
25.14500 1034.000
25.16000 702.000
25.17500 532.000
25.19000 422.000
25.20500 342.000
25.22000 341.000
25.23500 356.000
25.25000 322.000
25.26500 354.000
25.28000 378.000
25.29500 391.000
25.31000 430.000
25.32500 580.000
25.34000 651.000
25.35500 825.000
25.37000 1011.000
25.38500 1250.000
25.40000 1605.000
25.41500 1999.000
25.43000 2189.000
25.44500 2255.000
25.46000 2187.000
25.47500 1955.000
25.49000 1677.000
25.50500 1424.000
25.52000 1251.000
25.53500 1027.000
25.55000 875.000
25.56500 872.000
25.58000 921.000
25.59500 1105.000
25.61000 1287.000
25.62500 1485.000
25.64000 1711.000
25.65500 1882.000
25.67000 1810.000
25.68500 1561.000
25.70000 1350.000
25.71500 1238.000
25.73000 1328.000
25.74500 1522.000
25.76000 2221.000
25.77500 3008.000
25.79000 3141.000
25.80500 2396.000
25.82000 1427.000
25.83500 734.000
25.85000 447.000
25.86500 306.000
25.88000 298.000
25.89500 277.000
25.91000 262.000
25.92500 273.000
25.94000 271.000
25.95500 265.000
25.97000 261.000
25.98500 263.000
26.00000 275.000
26.01500 279.000
26.03000 321.000
26.04500 378.000
26.06000 474.000
26.07500 631.000
26.09000 908.000
26.10500 1310.000
26.12000 1851.000
26.13500 2638.000
26.15000 3773.000
26.16500 5446.000
26.18000 7564.000
26.19500 9075.000
26.21000 8660.000
26.22500 6681.000
26.24000 4249.000
26.25500 2472.000
26.27000 1423.000
26.28500 875.000
26.30000 581.000
26.31500 443.000
26.33000 388.000
26.34500 381.000
26.36000 399.000
26.37500 420.000
26.39000 451.000
26.40500 482.000
26.42000 541.000
26.43500 576.000
26.45000 546.000
26.46500 475.000
26.48000 435.000
26.49500 413.000
26.51000 444.000
26.52500 462.000
26.54000 534.000
26.55500 676.000
26.57000 845.000
26.58500 1014.000
26.60000 1256.000
26.61500 1628.000
26.63000 1989.000
26.64500 2261.000
26.66000 2368.000
26.67500 2016.000
26.69000 1484.000
26.70500 998.000
26.72000 695.000
26.73500 495.000
26.75000 399.000
26.76500 354.000
26.78000 312.000
26.79500 281.000
26.81000 280.000
26.82500 274.000
26.84000 268.000
26.85500 282.000
26.87000 263.000
26.88500 278.000
26.90000 283.000
26.91500 310.000
26.93000 320.000
26.94500 295.000
26.96000 325.000
26.97500 364.000
26.99000 393.000
27.00500 446.000
27.02000 594.000
27.03500 787.000
27.05000 1107.000
27.06500 1835.000
27.08000 2721.000
27.09500 3405.000
27.11000 3023.000
27.12500 1979.000
27.14000 1039.000
27.15500 582.000
27.17000 430.000
27.18500 376.000
27.20000 410.000
27.21500 447.000
27.23000 507.000
27.24500 505.000
27.26000 513.000
27.27500 416.000
27.29000 333.000
27.30500 278.000
27.32000 281.000
27.33500 270.000
27.35000 258.000
27.36500 240.000
27.38000 273.000
27.39500 267.000
27.41000 279.000
27.42500 270.000
27.44000 306.000
27.45500 321.000
27.47000 380.000
27.48500 438.000
27.50000 490.000
27.51500 530.000
27.53000 567.000
27.54500 565.000
27.56000 506.000
27.57500 433.000
27.59000 393.000
27.60500 348.000
27.62000 312.000
27.63500 289.000
27.65000 276.000
27.66500 258.000
27.68000 241.000
27.69500 232.000
27.71000 245.000
27.72500 236.000
27.74000 257.000
27.75500 216.000
27.77000 236.000
27.78500 251.000
27.80000 246.000
27.81500 279.000
27.83000 266.000
27.84500 279.000
27.86000 269.000
27.87500 290.000
27.89000 318.000
27.90500 379.000
27.92000 437.000
27.93500 609.000
27.95000 700.000
27.96500 872.000
27.98000 1213.000
27.99500 1607.000
28.01000 2172.000
28.02500 2868.000
28.04000 3323.000
28.05500 3660.000
28.07000 3485.000
28.08500 2762.000
28.10000 1848.000
28.11500 1179.000
28.13000 813.000
28.14500 603.000
28.16000 455.000
28.17500 402.000
28.19000 343.000
28.20500 307.000
28.22000 281.000
28.23500 263.000
28.25000 246.000
28.26500 256.000
28.28000 251.000
28.29500 247.000
28.31000 231.000
28.32500 235.000
28.34000 235.000
28.35500 238.000
28.37000 226.000
28.38500 239.000
28.40000 252.000
28.41500 256.000
28.43000 279.000
28.44500 287.000
28.46000 271.000
28.47500 255.000
28.49000 229.000
28.50500 236.000
28.52000 222.000
28.53500 225.000
28.55000 214.000
28.56500 223.000
28.58000 232.000
28.59500 235.000
28.61000 238.000
28.62500 242.000
28.64000 240.000
28.65500 260.000
28.67000 284.000
28.68500 261.000
28.70000 350.000
28.71500 381.000
28.73000 485.000
28.74500 664.000
28.76000 953.000
28.77500 1300.000
28.79000 1828.000
28.80500 2368.000
28.82000 2993.000
28.83500 3248.000
28.85000 2935.000
28.86500 2240.000
28.88000 1541.000
28.89500 969.000
28.91000 662.000
28.92500 464.000
28.94000 374.000
28.95500 323.000
28.97000 278.000
28.98500 287.000
29.00000 315.000
29.01500 308.000
29.03000 319.000
29.04500 330.000
29.06000 278.000
29.07500 284.000
29.09000 268.000
29.10500 254.000
29.12000 247.000
29.13500 275.000
29.15000 255.000
29.16500 267.000
29.18000 271.000
29.19500 307.000
29.21000 318.000
29.22500 336.000
29.24000 326.000
29.25500 320.000
29.27000 316.000
29.28500 328.000
29.30000 302.000
29.31500 271.000
29.33000 249.000
29.34500 244.000
29.36000 235.000
29.37500 221.000
29.39000 203.000
29.40500 229.000
29.42000 190.000
29.43500 200.000
29.45000 210.000
29.46500 213.000
29.48000 206.000
29.49500 192.000
29.51000 201.000
29.52500 224.000
29.54000 218.000
29.55500 216.000
29.57000 227.000
29.58500 238.000
29.60000 250.000
29.61500 245.000
29.63000 262.000
29.64500 240.000
29.66000 290.000
29.67500 317.000
29.69000 392.000
29.70500 575.000
29.72000 768.000
29.73500 1038.000
29.75000 1453.000
29.76500 1990.000
29.78000 2624.000
29.79500 3393.000
29.81000 3919.000
29.82500 4068.000
29.84000 3662.000
29.85500 2840.000
29.87000 1900.000
29.88500 1233.000
29.90000 792.000
29.91500 551.000
29.93000 420.000
29.94500 346.000
29.96000 278.000
29.97500 252.000
29.99000 232.000
30.00500 213.000
30.02000 238.000
30.03500 207.000
30.05000 206.000
30.06500 220.000
30.08000 243.000
30.09500 219.000
30.11000 211.000
30.12500 209.000
30.14000 208.000
30.15500 217.000
30.17000 205.000
30.18500 188.000
30.20000 209.000
30.21500 230.000
30.23000 212.000
30.24500 228.000
30.26000 231.000
30.27500 268.000
30.29000 310.000
30.30500 368.000
30.32000 407.000
30.33500 460.000
30.35000 467.000
30.36500 413.000
30.38000 324.000
30.39500 285.000
30.41000 246.000
30.42500 236.000
30.44000 228.000
30.45500 255.000
30.47000 221.000
30.48500 218.000
30.50000 184.000
30.51500 205.000
30.53000 232.000
30.54500 220.000
30.56000 235.000
30.57500 247.000
30.59000 229.000
30.60500 248.000
30.62000 236.000
30.63500 264.000
30.65000 264.000
30.66500 284.000
30.68000 320.000
30.69500 376.000
30.71000 386.000
30.72500 405.000
30.74000 428.000
30.75500 463.000
30.77000 514.000
30.78500 518.000
30.80000 495.000
30.81500 460.000
30.83000 422.000
30.84500 418.000
30.86000 378.000
30.87500 355.000
30.89000 310.000
30.90500 285.000
30.92000 268.000
30.93500 228.000
30.95000 238.000
30.96500 225.000
30.98000 226.000
30.99500 231.000
31.01000 247.000
31.02500 250.000
31.04000 271.000
31.05500 294.000
31.07000 323.000
31.08500 347.000
31.10000 383.000
31.11500 446.000
31.13000 437.000
31.14500 388.000
31.16000 360.000
31.17500 328.000
31.19000 307.000
31.20500 301.000
31.22000 317.000
31.23500 338.000
31.25000 343.000
31.26500 368.000
31.28000 442.000
31.29500 461.000
31.31000 553.000
31.32500 631.000
31.34000 749.000
31.35500 754.000
31.37000 832.000
31.38500 882.000
31.40000 852.000
31.41500 733.000
31.43000 652.000
31.44500 553.000
31.46000 535.000
31.47500 489.000
31.49000 421.000
31.50500 417.000
31.52000 418.000
31.53500 435.000
31.55000 427.000
31.56500 483.000
31.58000 540.000
31.59500 651.000
31.61000 739.000
31.62500 840.000
31.64000 983.000
31.65500 1025.000
31.67000 1035.000
31.68500 994.000
31.70000 830.000
31.71500 642.000
31.73000 541.000
31.74500 440.000
31.76000 364.000
31.77500 317.000
31.79000 308.000
31.80500 299.000
31.82000 287.000
31.83500 264.000
31.85000 250.000
31.86500 240.000
31.88000 236.000
31.89500 257.000
31.91000 247.000
31.92500 245.000
31.94000 266.000
31.95500 260.000
31.97000 280.000
31.98500 295.000
32.00000 294.000
32.01500 293.000
32.03000 299.000
32.04500 271.000
32.06000 244.000
32.07500 280.000
32.09000 223.000
32.10500 210.000
32.12000 214.000
32.13500 214.000
32.15000 216.000
32.16500 217.000
32.18000 201.000
32.19500 202.000
32.21000 205.000
32.22500 177.000
32.24000 159.000
32.25500 166.000
32.27000 191.000
32.28500 195.000
32.30000 175.000
32.31500 180.000
32.33000 161.000
32.34500 171.000
32.36000 177.000
32.37500 190.000
32.39000 204.000
32.40500 182.000
32.42000 177.000
32.43500 193.000
32.45000 185.000
32.46500 183.000
32.48000 159.000
32.49500 192.000
32.51000 191.000
32.52500 170.000
32.54000 167.000
32.55500 192.000
32.57000 179.000
32.58500 179.000
32.60000 174.000
32.61500 144.000
32.63000 139.000
32.64500 169.000
32.66000 193.000
32.67500 172.000
32.69000 160.000
32.70500 162.000
32.72000 174.000
32.73500 177.000
32.75000 178.000
32.76500 175.000
32.78000 181.000
32.79500 186.000
32.81000 185.000
32.82500 177.000
32.84000 186.000
32.85500 180.000
32.87000 167.000
32.88500 196.000
32.90000 189.000
32.91500 169.000
32.93000 175.000
32.94500 190.000
32.96000 196.000
32.97500 195.000
32.99000 190.000
33.00500 163.000
33.02000 179.000
33.03500 157.000
33.05000 165.000
33.06500 162.000
33.08000 182.000
33.09500 183.000
33.11000 177.000
33.12500 177.000
33.14000 157.000
33.15500 164.000
33.17000 174.000
33.18500 167.000
33.20000 172.000
33.21500 179.000
33.23000 174.000
33.24500 171.000
33.26000 171.000
33.27500 186.000
33.29000 187.000
33.30500 200.000
33.32000 226.000
33.33500 253.000
33.35000 318.000
33.36500 355.000
33.38000 455.000
33.39500 516.000
33.41000 530.000
33.42500 543.000
33.44000 490.000
33.45500 434.000
33.47000 361.000
33.48500 305.000
33.50000 257.000
33.51500 231.000
33.53000 205.000
33.54500 192.000
33.56000 176.000
33.57500 177.000
33.59000 171.000
33.60500 171.000
33.62000 174.000
33.63500 188.000
33.65000 220.000
33.66500 209.000
33.68000 177.000
33.69500 185.000
33.71000 215.000
33.72500 225.000
33.74000 217.000
33.75500 236.000
33.77000 281.000
33.78500 357.000
33.80000 434.000
33.81500 596.000
33.83000 706.000
33.84500 711.000
33.86000 682.000
33.87500 516.000
33.89000 427.000
33.90500 349.000
33.92000 266.000
33.93500 219.000
33.95000 185.000
33.96500 186.000
33.98000 172.000
33.99500 185.000
34.01000 182.000
34.02500 154.000
34.04000 163.000
34.05500 178.000
34.07000 181.000
34.08500 194.000
34.10000 192.000
34.11500 174.000
34.13000 180.000
34.14500 160.000
34.16000 162.000
34.17500 173.000
34.19000 171.000
34.20500 170.000
34.22000 159.000
34.23500 159.000
34.25000 174.000
34.26500 168.000
34.28000 180.000
34.29500 192.000
34.31000 209.000
34.32500 252.000
34.34000 300.000
34.35500 347.000
34.37000 362.000
34.38500 359.000
34.40000 327.000
34.41500 323.000
34.43000 295.000
34.44500 309.000
34.46000 356.000
34.47500 432.000
34.49000 528.000
34.50500 660.000
34.52000 777.000
34.53500 880.000
34.55000 873.000
34.56500 772.000
34.58000 604.000
34.59500 465.000
34.61000 341.000
34.62500 282.000
34.64000 249.000
34.65500 199.000
34.67000 207.000
34.68500 197.000
34.70000 197.000
34.71500 194.000
34.73000 193.000
34.74500 201.000
34.76000 220.000
34.77500 222.000
34.79000 204.000
34.80500 248.000
34.82000 267.000
34.83500 256.000
34.85000 251.000
34.86500 236.000
34.88000 259.000
34.89500 261.000
34.91000 267.000
34.92500 272.000
34.94000 334.000
34.95500 382.000
34.97000 455.000
34.98500 536.000
35.00000 660.000
35.01500 819.000
35.03000 1032.000
35.04500 1243.000
35.06000 1312.000
35.07500 1365.000
35.09000 1225.000
35.10500 1044.000
35.12000 857.000
35.13500 636.000
35.15000 511.000
35.16500 445.000
35.18000 390.000
35.19500 309.000
35.21000 305.000
35.22500 282.000
35.24000 251.000
35.25500 226.000
35.27000 224.000
35.28500 244.000
35.30000 235.000
35.31500 217.000
35.33000 230.000
35.34500 192.000
35.36000 206.000
35.37500 211.000
35.39000 193.000
35.40500 179.000
35.42000 200.000
35.43500 218.000
35.45000 206.000
35.46500 217.000
35.48000 224.000
35.49500 230.000
35.51000 251.000
35.52500 287.000
35.54000 286.000
35.55500 310.000
35.57000 370.000
35.58500 407.000
35.60000 454.000
35.61500 445.000
35.63000 487.000
35.64500 524.000
35.66000 549.000
35.67500 585.000
35.69000 544.000
35.70500 571.000
35.72000 549.000
35.73500 526.000
35.75000 517.000
35.76500 520.000
35.78000 545.000
35.79500 628.000
35.81000 690.000
35.82500 752.000
35.84000 780.000
35.85500 756.000
35.87000 648.000
35.88500 544.000
35.90000 423.000
35.91500 359.000
35.93000 343.000
35.94500 314.000
35.96000 328.000
35.97500 295.000
35.99000 291.000
36.00500 261.000
36.02000 273.000
36.03500 214.000
36.05000 205.000
36.06500 209.000
36.08000 189.000
36.09500 229.000
36.11000 239.000
36.12500 255.000
36.14000 301.000
36.15500 349.000
36.17000 425.000
36.18500 523.000
36.20000 651.000
36.21500 866.000
36.23000 990.000
36.24500 1031.000
36.26000 924.000
36.27500 740.000
36.29000 503.000
36.30500 365.000
36.32000 258.000
36.33500 222.000
36.35000 217.000
36.36500 216.000
36.38000 240.000
36.39500 239.000
36.41000 270.000
36.42500 346.000
36.44000 421.000
36.45500 500.000
36.47000 594.000
36.48500 623.000
36.50000 609.000
36.51500 571.000
36.53000 480.000
36.54500 436.000
36.56000 364.000
36.57500 315.000
36.59000 269.000
36.60500 275.000
36.62000 305.000
36.63500 272.000
36.65000 300.000
36.66500 319.000
36.68000 279.000
36.69500 291.000
36.71000 299.000
36.72500 297.000
36.74000 289.000
36.75500 295.000
36.77000 300.000
36.78500 319.000
36.80000 345.000
36.81500 343.000
36.83000 332.000
36.84500 332.000
36.86000 353.000
36.87500 365.000
36.89000 356.000
36.90500 387.000
36.92000 398.000
36.93500 371.000
36.95000 360.000
36.96500 351.000
36.98000 357.000
36.99500 360.000
37.01000 314.000
37.02500 320.000
37.04000 306.000
37.05500 322.000
37.07000 338.000
37.08500 391.000
37.10000 482.000
37.11500 587.000
37.13000 789.000
37.14500 917.000
37.16000 941.000
37.17500 951.000
37.19000 774.000
37.20500 591.000
37.22000 455.000
37.23500 335.000
37.25000 255.000
37.26500 229.000
37.28000 203.000
37.29500 160.000
37.31000 168.000
37.32500 161.000
37.34000 162.000
37.35500 155.000
37.37000 150.000
37.38500 151.000
37.40000 131.000
37.41500 166.000
37.43000 180.000
37.44500 167.000
37.46000 168.000
37.47500 182.000
37.49000 215.000
37.50500 209.000
37.52000 240.000
37.53500 249.000
37.55000 248.000
37.56500 266.000
37.58000 265.000
37.59500 342.000
37.61000 381.000
37.62500 436.000
37.64000 450.000
37.65500 475.000
37.67000 468.000
37.68500 419.000
37.70000 341.000
37.71500 290.000
37.73000 268.000
37.74500 251.000
37.76000 232.000
37.77500 231.000
37.79000 240.000
37.80500 228.000
37.82000 215.000
37.83500 190.000
37.85000 180.000
37.86500 170.000
37.88000 160.000
37.89500 190.000
37.91000 185.000
37.92500 158.000
37.94000 149.000
37.95500 160.000
37.97000 155.000
37.98500 140.000
38.00000 151.000
38.01500 168.000
38.03000 158.000
38.04500 137.000
38.06000 139.000
38.07500 165.000
38.09000 190.000
38.10500 178.000
38.12000 199.000
38.13500 216.000
38.15000 221.000
38.16500 243.000
38.18000 259.000
38.19500 305.000
38.21000 354.000
38.22500 384.000
38.24000 405.000
38.25500 472.000
38.27000 469.000
38.28500 496.000
38.30000 617.000
38.31500 795.000
38.33000 1004.000
38.34500 1325.000
38.36000 1467.000
38.37500 1268.000
38.39000 988.000
38.40500 584.000
38.42000 412.000
38.43500 280.000
38.45000 227.000
38.46500 198.000
38.48000 189.000
38.49500 172.000
38.51000 161.000
38.52500 166.000
38.54000 182.000
38.55500 179.000
38.57000 188.000
38.58500 196.000
38.60000 224.000
38.61500 260.000
38.63000 280.000
38.64500 264.000
38.66000 255.000
38.67500 248.000
38.69000 225.000
38.70500 193.000
38.72000 195.000
38.73500 196.000
38.75000 178.000
38.76500 187.000
38.78000 195.000
38.79500 240.000
38.81000 217.000
38.82500 243.000
38.84000 271.000
38.85500 296.000
38.87000 353.000
38.88500 364.000
38.90000 395.000
38.91500 433.000
38.93000 429.000
38.94500 389.000
38.96000 383.000
38.97500 443.000
38.99000 426.000
39.00500 400.000
39.02000 407.000
39.03500 412.000
39.05000 354.000
39.06500 324.000
39.08000 280.000
39.09500 305.000
39.11000 267.000
39.12500 222.000
39.14000 219.000
39.15500 206.000
39.17000 194.000
39.18500 147.000
39.20000 150.000
39.21500 175.000
39.23000 163.000
39.24500 138.000
39.26000 147.000
39.27500 133.000
39.29000 130.000
39.30500 136.000
39.32000 154.000
39.33500 152.000
39.35000 147.000
39.36500 144.000
39.38000 137.000
39.39500 151.000
39.41000 144.000
39.42500 146.000
39.44000 131.000
39.45500 130.000
39.47000 153.000
39.48500 151.000
39.50000 144.000
39.51500 160.000
39.53000 156.000
39.54500 158.000
39.56000 180.000
39.57500 205.000
39.59000 183.000
39.60500 193.000
39.62000 198.000
39.63500 207.000
39.65000 200.000
39.66500 199.000
39.68000 202.000
39.69500 211.000
39.71000 214.000
39.72500 226.000
39.74000 233.000
39.75500 228.000
39.77000 218.000
39.78500 222.000
39.80000 183.000
39.81500 173.000
39.83000 176.000
39.84500 180.000
39.86000 174.000
39.87500 157.000
39.89000 163.000
39.90500 163.000
39.92000 160.000
39.93500 170.000
39.95000 157.000
39.96500 151.000
39.98000 168.000
39.99500 162.000
40.01000 165.000
40.02500 188.000
40.04000 189.000
40.05500 203.000
40.07000 233.000
40.08500 229.000
40.10000 262.000
40.11500 273.000
40.13000 292.000
40.14500 300.000
40.16000 319.000
40.17500 338.000
40.19000 385.000
40.20500 352.000
40.22000 418.000
40.23500 399.000
40.25000 379.000
40.26500 340.000
40.28000 314.000
40.29500 267.000
40.31000 262.000
40.32500 276.000
40.34000 249.000
40.35500 245.000
40.37000 264.000
40.38500 269.000
40.40000 290.000
40.41500 270.000
40.43000 333.000
40.44500 326.000
40.46000 343.000
40.47500 380.000
40.49000 432.000
40.50500 492.000
40.52000 623.000
40.53500 755.000
40.55000 826.000
40.56500 864.000
40.58000 888.000
40.59500 770.000
40.61000 646.000
40.62500 499.000
40.64000 399.000
40.65500 321.000
40.67000 287.000
40.68500 247.000
40.70000 237.000
40.71500 249.000
40.73000 215.000
40.74500 222.000
40.76000 217.000
40.77500 209.000
40.79000 195.000
40.80500 190.000
40.82000 186.000
40.83500 180.000
40.85000 161.000
40.86500 140.000
40.88000 172.000
40.89500 166.000
40.91000 163.000
40.92500 201.000
40.94000 212.000
40.95500 269.000
40.97000 352.000
40.98500 436.000
41.00000 412.000
41.01500 354.000
41.03000 307.000
41.04500 293.000
41.06000 243.000
41.07500 216.000
41.09000 169.000
41.10500 144.000
41.12000 161.000
41.13500 151.000
41.15000 168.000
41.16500 149.000
41.18000 172.000
41.19500 147.000
41.21000 148.000
41.22500 140.000
41.24000 138.000
41.25500 152.000
41.27000 145.000
41.28500 118.000
41.30000 135.000
41.31500 149.000
41.33000 148.000
41.34500 145.000
41.36000 144.000
41.37500 136.000
41.39000 130.000
41.40500 135.000
41.42000 138.000
41.43500 133.000
41.45000 136.000
41.46500 150.000
41.48000 138.000
41.49500 130.000
41.51000 149.000
41.52500 123.000
41.54000 135.000
41.55500 135.000
41.57000 129.000
41.58500 140.000
41.60000 141.000
41.61500 140.000
41.63000 154.000
41.64500 151.000
41.66000 170.000
41.67500 180.000
41.69000 163.000
41.70500 192.000
41.72000 230.000
41.73500 221.000
41.75000 240.000
41.76500 257.000
41.78000 265.000
41.79500 287.000
41.81000 255.000
41.82500 245.000
41.84000 229.000
41.85500 200.000
41.87000 191.000
41.88500 189.000
41.90000 198.000
41.91500 202.000
41.93000 221.000
41.94500 215.000
41.96000 210.000
41.97500 217.000
41.99000 202.000
42.00500 190.000
42.02000 195.000
42.03500 190.000
42.05000 215.000
42.06500 207.000
42.08000 225.000
42.09500 251.000
42.11000 288.000
42.12500 304.000
42.14000 300.000
42.15500 323.000
42.17000 297.000
42.18500 278.000
42.20000 264.000
42.21500 257.000
42.23000 262.000
42.24500 241.000
42.26000 249.000
42.27500 228.000
42.29000 239.000
42.30500 217.000
42.32000 220.000
42.33500 220.000
42.35000 213.000
42.36500 214.000
42.38000 260.000
42.39500 248.000
42.41000 245.000
42.42500 289.000
42.44000 317.000
42.45500 366.000
42.47000 401.000
42.48500 431.000
42.50000 441.000
42.51500 474.000
42.53000 460.000
42.54500 430.000
42.56000 381.000
42.57500 322.000
42.59000 315.000
42.60500 293.000
42.62000 280.000
42.63500 276.000
42.65000 302.000
42.66500 357.000
42.68000 414.000
42.69500 465.000
42.71000 492.000
42.72500 479.000
42.74000 441.000
42.75500 349.000
42.77000 290.000
42.78500 276.000
42.80000 234.000
42.81500 198.000
42.83000 172.000
42.84500 167.000
42.86000 167.000
42.87500 186.000
42.89000 199.000
42.90500 185.000
42.92000 181.000
42.93500 207.000
42.95000 220.000
42.96500 250.000
42.98000 232.000
42.99500 284.000
43.01000 295.000
43.02500 288.000
43.04000 293.000
43.05500 273.000
43.07000 271.000
43.08500 214.000
43.10000 194.000
43.11500 193.000
43.13000 167.000
43.14500 181.000
43.16000 167.000
43.17500 172.000
43.19000 151.000
43.20500 174.000
43.22000 175.000
43.23500 156.000
43.25000 159.000
43.26500 172.000
43.28000 167.000
43.29500 174.000
43.31000 156.000
43.32500 187.000
43.34000 205.000
43.35500 221.000
43.37000 226.000
43.38500 229.000
43.40000 248.000
43.41500 269.000
43.43000 285.000
43.44500 310.000
43.46000 322.000
43.47500 383.000
43.49000 429.000
43.50500 462.000
43.52000 430.000
43.53500 459.000
43.55000 403.000
43.56500 370.000
43.58000 360.000
43.59500 291.000
43.61000 254.000
43.62500 236.000
43.64000 229.000
43.65500 207.000
43.67000 191.000
43.68500 173.000
43.70000 181.000
43.71500 186.000
43.73000 193.000
43.74500 198.000
43.76000 233.000
43.77500 226.000
43.79000 224.000
43.80500 236.000
43.82000 245.000
43.83500 235.000
43.85000 242.000
43.86500 218.000
43.88000 242.000
43.89500 239.000
43.91000 260.000
43.92500 277.000
43.94000 301.000
43.95500 337.000
43.97000 393.000
43.98500 356.000
44.00000 381.000
44.01500 368.000
44.03000 361.000
44.04500 312.000
44.06000 313.000
44.07500 311.000
44.09000 323.000
44.10500 340.000
44.12000 374.000
44.13500 374.000
44.15000 391.000
44.16500 396.000
44.18000 387.000
44.19500 370.000
44.21000 354.000
44.22500 364.000
44.24000 339.000
44.25500 326.000
44.27000 319.000
44.28500 314.000
44.30000 328.000
44.31500 356.000
44.33000 345.000
44.34500 341.000
44.36000 324.000
44.37500 301.000
44.39000 274.000
44.40500 256.000
44.42000 248.000
44.43500 232.000
44.45000 225.000
44.46500 202.000
44.48000 196.000
44.49500 217.000
44.51000 208.000
44.52500 188.000
44.54000 182.000
44.55500 187.000
44.57000 205.000
44.58500 213.000
44.60000 205.000
44.61500 196.000
44.63000 189.000
44.64500 182.000
44.66000 189.000
44.67500 162.000
44.69000 168.000
44.70500 173.000
44.72000 182.000
44.73500 161.000
44.75000 194.000
44.76500 215.000
44.78000 244.000
44.79500 283.000
44.81000 380.000
44.82500 456.000
44.84000 523.000
44.85500 522.000
44.87000 474.000
44.88500 408.000
44.90000 352.000
44.91500 294.000
44.93000 270.000
44.94500 266.000
44.96000 250.000
44.97500 253.000
44.99000 255.000
45.00500 273.000
45.02000 307.000
45.03500 344.000
45.05000 369.000
45.06500 363.000
45.08000 380.000
45.09500 355.000
45.11000 360.000
45.12500 355.000
45.14000 336.000
45.15500 343.000
45.17000 335.000
45.18500 324.000
45.20000 293.000
45.21500 278.000
45.23000 292.000
45.24500 266.000
45.26000 235.000
45.27500 240.000
45.29000 259.000
45.30500 246.000
45.32000 245.000
45.33500 269.000
45.35000 272.000
45.36500 317.000
45.38000 309.000
45.39500 334.000
45.41000 363.000
45.42500 376.000
45.44000 359.000
45.45500 399.000
45.47000 356.000
45.48500 367.000
45.50000 399.000
45.51500 441.000
45.53000 429.000
45.54500 516.000
45.56000 523.000
45.57500 583.000
45.59000 613.000
45.60500 651.000
45.62000 666.000
45.63500 598.000
45.65000 584.000
45.66500 514.000
45.68000 421.000
45.69500 368.000
45.71000 324.000
45.72500 300.000
45.74000 298.000
45.75500 263.000
45.77000 258.000
45.78500 230.000
45.80000 225.000
45.81500 205.000
45.83000 189.000
45.84500 181.000
45.86000 170.000
45.87500 163.000
45.89000 145.000
45.90500 168.000
45.92000 164.000
45.93500 162.000
45.95000 151.000
45.96500 149.000
45.98000 132.000
45.99500 152.000
46.01000 143.000
46.02500 158.000
46.04000 180.000
46.05500 154.000
46.07000 164.000
46.08500 163.000
46.10000 160.000
46.11500 169.000
46.13000 167.000
46.14500 150.000
46.16000 180.000
46.17500 196.000
46.19000 194.000
46.20500 195.000
46.22000 179.000
46.23500 207.000
46.25000 219.000
46.26500 183.000
46.28000 192.000
46.29500 216.000
46.31000 209.000
46.32500 181.000
46.34000 195.000
46.35500 197.000
46.37000 167.000
46.38500 172.000
46.40000 158.000
46.41500 144.000
46.43000 158.000
46.44500 152.000
46.46000 157.000
46.47500 171.000
46.49000 165.000
46.50500 168.000
46.52000 163.000
46.53500 179.000
46.55000 146.000
46.56500 156.000
46.58000 155.000
46.59500 151.000
46.61000 173.000
46.62500 164.000
46.64000 150.000
46.65500 176.000
46.67000 171.000
46.68500 172.000
46.70000 186.000
46.71500 185.000
46.73000 200.000
46.74500 196.000
46.76000 223.000
46.77500 212.000
46.79000 218.000
46.80500 242.000
46.82000 293.000
46.83500 238.000
46.85000 257.000
46.86500 267.000
46.88000 268.000
46.89500 253.000
46.91000 262.000
46.92500 319.000
46.94000 349.000
46.95500 341.000
46.97000 382.000
46.98500 410.000
47.00000 448.000
47.01500 540.000
47.03000 526.000
47.04500 540.000
47.06000 562.000
47.07500 539.000
47.09000 505.000
47.10500 432.000
47.12000 386.000
47.13500 401.000
47.15000 362.000
47.16500 302.000
47.18000 293.000
47.19500 301.000
47.21000 271.000
47.22500 272.000
47.24000 239.000
47.25500 237.000
47.27000 222.000
47.28500 208.000
47.30000 221.000
47.31500 229.000
47.33000 234.000
47.34500 274.000
47.36000 282.000
47.37500 259.000
47.39000 269.000
47.40500 259.000
47.42000 268.000
47.43500 276.000
47.45000 268.000
47.46500 309.000
47.48000 386.000
47.49500 493.000
47.51000 620.000
47.52500 788.000
47.54000 918.000
47.55500 957.000
47.57000 957.000
47.58500 861.000
47.60000 706.000
47.61500 576.000
47.63000 488.000
47.64500 415.000
47.66000 420.000
47.67500 436.000
47.69000 448.000
47.70500 465.000
47.72000 481.000
47.73500 494.000
47.75000 485.000
47.76500 417.000
47.78000 401.000
47.79500 401.000
47.81000 399.000
47.82500 359.000
47.84000 370.000
47.85500 371.000
47.87000 372.000
47.88500 394.000
47.90000 412.000
47.91500 413.000
47.93000 432.000
47.94500 471.000
47.96000 483.000
47.97500 532.000
47.99000 519.000
48.00500 506.000
48.02000 493.000
48.03500 483.000
48.05000 437.000
48.06500 429.000
48.08000 426.000
48.09500 400.000
48.11000 407.000
48.12500 425.000
48.14000 412.000
48.15500 409.000
48.17000 421.000
48.18500 402.000
48.20000 421.000
48.21500 426.000
48.23000 393.000
48.24500 369.000
48.26000 423.000
48.27500 471.000
48.29000 474.000
48.30500 508.000
48.32000 538.000
48.33500 484.000
48.35000 455.000
48.36500 371.000
48.38000 333.000
48.39500 295.000
48.41000 245.000
48.42500 223.000
48.44000 217.000
48.45500 226.000
48.47000 209.000
48.48500 200.000
48.50000 201.000
48.51500 199.000
48.53000 217.000
48.54500 201.000
48.56000 200.000
48.57500 207.000
48.59000 199.000
48.60500 214.000
48.62000 209.000
48.63500 246.000
48.65000 240.000
48.66500 249.000
48.68000 271.000
48.69500 245.000
48.71000 230.000
48.72500 218.000
48.74000 225.000
48.75500 205.000
48.77000 216.000
48.78500 194.000
48.80000 207.000
48.81500 219.000
48.83000 209.000
48.84500 235.000
48.86000 211.000
48.87500 205.000
48.89000 221.000
48.90500 236.000
48.92000 239.000
48.93500 235.000
48.95000 240.000
48.96500 248.000
48.98000 267.000
48.99500 294.000
49.01000 308.000
49.02500 346.000
49.04000 399.000
49.05500 463.000
49.07000 453.000
49.08500 461.000
49.10000 468.000
49.11500 446.000
49.13000 415.000
49.14500 339.000
49.16000 316.000
49.17500 290.000
49.19000 216.000
49.20500 207.000
49.22000 208.000
49.23500 210.000
49.25000 175.000
49.26500 202.000
49.28000 195.000
49.29500 189.000
49.31000 178.000
49.32500 186.000
49.34000 171.000
49.35500 193.000
49.37000 172.000
49.38500 186.000
49.40000 200.000
49.41500 209.000
49.43000 250.000
49.44500 239.000
49.46000 248.000
49.47500 254.000
49.49000 254.000
49.50500 262.000
49.52000 282.000
49.53500 223.000
49.55000 220.000
49.56500 212.000
49.58000 215.000
49.59500 234.000
49.61000 203.000
49.62500 198.000
49.64000 194.000
49.65500 174.000
49.67000 181.000
49.68500 183.000
49.70000 176.000
49.71500 202.000
49.73000 204.000
49.74500 205.000
49.76000 188.000
49.77500 188.000
49.79000 206.000
49.80500 207.000
49.82000 188.000
49.83500 162.000
49.85000 162.000
49.86500 159.000
49.88000 160.000
49.89500 160.000
49.91000 155.000
49.92500 144.000
49.94000 148.000
49.95500 154.000
49.97000 153.000
49.98500 164.000
50.00000 166.000
50.01500 181.000
50.03000 207.000
50.04500 226.000
50.06000 220.000
50.07500 245.000
50.09000 286.000
50.10500 322.000
50.12000 370.000
50.13500 402.000
50.15000 431.000
50.16500 445.000
50.18000 435.000
50.19500 421.000
50.21000 379.000
50.22500 366.000
50.24000 341.000
50.25500 364.000
50.27000 370.000
50.28500 355.000
50.30000 389.000
50.31500 401.000
50.33000 381.000
50.34500 350.000
50.36000 297.000
50.37500 287.000
50.39000 271.000
50.40500 250.000
50.42000 271.000
50.43500 282.000
50.45000 248.000
50.46500 239.000
50.48000 226.000
50.49500 195.000
50.51000 174.000
50.52500 165.000
50.54000 158.000
50.55500 151.000
50.57000 148.000
50.58500 153.000
50.60000 152.000
50.61500 149.000
50.63000 157.000
50.64500 159.000
50.66000 139.000
50.67500 136.000
50.69000 152.000
50.70500 168.000
50.72000 162.000
50.73500 171.000
50.75000 160.000
50.76500 157.000
50.78000 155.000
50.79500 158.000
50.81000 154.000
50.82500 170.000
50.84000 159.000
50.85500 151.000
50.87000 167.000
50.88500 153.000
50.90000 150.000
50.91500 143.000
50.93000 150.000
50.94500 141.000
50.96000 166.000
50.97500 165.000
50.99000 139.000
51.00500 136.000
51.02000 151.000
51.03500 149.000
51.05000 130.000
51.06500 154.000
51.08000 141.000
51.09500 176.000
51.11000 163.000
51.12500 158.000
51.14000 150.000
51.15500 171.000
51.17000 169.000
51.18500 157.000
51.20000 182.000
51.21500 178.000
51.23000 201.000
51.24500 199.000
51.26000 177.000
51.27500 178.000
51.29000 187.000
51.30500 183.000
51.32000 184.000
51.33500 181.000
51.35000 170.000
51.36500 184.000
51.38000 170.000
51.39500 200.000
51.41000 194.000
51.42500 222.000
51.44000 244.000
51.45500 288.000
51.47000 309.000
51.48500 317.000
51.50000 328.000
51.51500 313.000
51.53000 333.000
51.54500 331.000
51.56000 343.000
51.57500 301.000
51.59000 313.000
51.60500 299.000
51.62000 292.000
51.63500 285.000
51.65000 270.000
51.66500 312.000
51.68000 345.000
51.69500 355.000
51.71000 357.000
51.72500 331.000
51.74000 308.000
51.75500 300.000
51.77000 342.000
51.78500 308.000
51.80000 291.000
51.81500 285.000
51.83000 279.000
51.84500 249.000
51.86000 251.000
51.87500 240.000
51.89000 240.000
51.90500 240.000
51.92000 261.000
51.93500 219.000
51.95000 218.000
51.96500 227.000
51.98000 219.000
51.99500 204.000
52.01000 199.000
52.02500 177.000
52.04000 198.000
52.05500 195.000
52.07000 202.000
52.08500 194.000
52.10000 204.000
52.11500 204.000
52.13000 207.000
52.14500 227.000
52.16000 242.000
52.17500 243.000
52.19000 245.000
52.20500 283.000
52.22000 292.000
52.23500 298.000
52.25000 310.000
52.26500 351.000
52.28000 353.000
52.29500 328.000
52.31000 320.000
52.32500 299.000
52.34000 293.000
52.35500 261.000
52.37000 274.000
52.38500 232.000
52.40000 228.000
52.41500 212.000
52.43000 227.000
52.44500 242.000
52.46000 210.000
52.47500 191.000
52.49000 208.000
52.50500 209.000
52.52000 199.000
52.53500 164.000
52.55000 192.000
52.56500 174.000
52.58000 173.000
52.59500 181.000
52.61000 188.000
52.62500 196.000
52.64000 197.000
52.65500 212.000
52.67000 230.000
52.68500 239.000
52.70000 225.000
52.71500 184.000
52.73000 196.000
52.74500 197.000
52.76000 195.000
52.77500 191.000
52.79000 186.000
52.80500 174.000
52.82000 196.000
52.83500 219.000
52.85000 250.000
52.86500 279.000
52.88000 308.000
52.89500 344.000
52.91000 397.000
52.92500 447.000
52.94000 518.000
52.95500 516.000
52.97000 611.000
52.98500 658.000
53.00000 609.000
53.01500 557.000
53.03000 504.000
53.04500 401.000
53.06000 370.000
53.07500 319.000
53.09000 289.000
53.10500 232.000
53.12000 213.000
53.13500 205.000
53.15000 199.000
53.16500 178.000
53.18000 170.000
53.19500 168.000
53.21000 177.000
53.22500 173.000
53.24000 189.000
53.25500 174.000
53.27000 170.000
53.28500 158.000
53.30000 148.000
53.31500 154.000
53.33000 153.000
53.34500 147.000
53.36000 154.000
53.37500 150.000
53.39000 133.000
53.40500 151.000
53.42000 169.000
53.43500 131.000
53.45000 133.000
53.46500 147.000
53.48000 167.000
53.49500 159.000
53.51000 147.000
53.52500 152.000
53.54000 142.000
53.55500 145.000
53.57000 180.000
53.58500 155.000
53.60000 172.000
53.61500 182.000
53.63000 173.000
53.64500 199.000
53.66000 187.000
53.67500 170.000
53.69000 186.000
53.70500 190.000
53.72000 152.000
53.73500 154.000
53.75000 153.000
53.76500 143.000
53.78000 124.000
53.79500 147.000
53.81000 143.000
53.82500 146.000
53.84000 154.000
53.85500 148.000
53.87000 164.000
53.88500 161.000
53.90000 147.000
53.91500 134.000
53.93000 136.000
53.94500 151.000
53.96000 153.000
53.97500 140.000
53.99000 144.000
54.00500 135.000
54.02000 127.000
54.03500 140.000
54.05000 135.000
54.06500 142.000
54.08000 146.000
54.09500 156.000
54.11000 165.000
54.12500 186.000
54.14000 202.000
54.15500 236.000
54.17000 269.000
54.18500 267.000
54.20000 310.000
54.21500 302.000
54.23000 301.000
54.24500 314.000
54.26000 263.000
54.27500 267.000
54.29000 250.000
54.30500 217.000
54.32000 205.000
54.33500 195.000
54.35000 170.000
54.36500 155.000
54.38000 164.000
54.39500 168.000
54.41000 179.000
54.42500 177.000
54.44000 191.000
54.45500 200.000
54.47000 244.000
54.48500 307.000
54.50000 338.000
54.51500 336.000
54.53000 317.000
54.54500 309.000
54.56000 276.000
54.57500 230.000
54.59000 201.000
54.60500 193.000
54.62000 195.000
54.63500 180.000
54.65000 183.000
54.66500 195.000
54.68000 203.000
54.69500 179.000
54.71000 208.000
54.72500 212.000
54.74000 233.000
54.75500 237.000
54.77000 271.000
54.78500 318.000
54.80000 358.000
54.81500 358.000
54.83000 404.000
54.84500 419.000
54.86000 423.000
54.87500 416.000
54.89000 429.000
54.90500 401.000
54.92000 402.000
54.93500 393.000
54.95000 370.000
54.96500 354.000
54.98000 340.000
54.99500 357.000
55.01000 299.000
55.02500 317.000
55.04000 323.000
55.05500 271.000
55.07000 262.000
55.08500 245.000
55.10000 254.000
55.11500 264.000
55.13000 251.000
55.14500 268.000
55.16000 304.000
55.17500 315.000
55.19000 328.000
55.20500 337.000
55.22000 288.000
55.23500 263.000
55.25000 234.000
55.26500 227.000
55.28000 197.000
55.29500 214.000
55.31000 241.000
55.32500 249.000
55.34000 254.000
55.35500 299.000
55.37000 339.000
55.38500 399.000
55.40000 392.000
55.41500 388.000
55.43000 381.000
55.44500 378.000
55.46000 366.000
55.47500 316.000
55.49000 307.000
55.50500 360.000
55.52000 386.000
55.53500 412.000
55.55000 435.000
55.56500 495.000
55.58000 598.000
55.59500 586.000
55.61000 594.000
55.62500 654.000
55.64000 591.000
55.65500 581.000
55.67000 537.000
55.68500 466.000
55.70000 394.000
55.71500 320.000
55.73000 245.000
55.74500 255.000
55.76000 230.000
55.77500 208.000
55.79000 202.000
55.80500 205.000
55.82000 226.000
55.83500 247.000
55.85000 264.000
55.86500 278.000
55.88000 287.000
55.89500 270.000
55.91000 280.000
55.92500 283.000
55.94000 237.000
55.95500 230.000
55.97000 221.000
55.98500 212.000
56.00000 230.000
56.01500 237.000
56.03000 235.000
56.04500 233.000
56.06000 260.000
56.07500 236.000
56.09000 235.000
56.10500 257.000
56.12000 247.000
56.13500 243.000
56.15000 263.000
56.16500 324.000
56.18000 327.000
56.19500 339.000
56.21000 373.000
56.22500 346.000
56.24000 334.000
56.25500 304.000
56.27000 299.000
56.28500 254.000
56.30000 225.000
56.31500 199.000
56.33000 173.000
56.34500 166.000
56.36000 157.000
56.37500 182.000
56.39000 186.000
56.40500 154.000
56.42000 125.000
56.43500 139.000
56.45000 127.000
56.46500 148.000
56.48000 148.000
56.49500 160.000
56.51000 170.000
56.52500 136.000
56.54000 150.000
56.55500 137.000
56.57000 151.000
56.58500 175.000
56.60000 187.000
56.61500 184.000
56.63000 187.000
56.64500 200.000
56.66000 213.000
56.67500 231.000
56.69000 211.000
56.70500 231.000
56.72000 221.000
56.73500 208.000
56.75000 202.000
56.76500 197.000
56.78000 193.000
56.79500 188.000
56.81000 163.000
56.82500 165.000
56.84000 178.000
56.85500 154.000
56.87000 153.000
56.88500 166.000
56.90000 159.000
56.91500 148.000
56.93000 143.000
56.94500 162.000
56.96000 152.000
56.97500 150.000
56.99000 148.000
57.00500 134.000
57.02000 132.000
57.03500 149.000
57.05000 157.000
57.06500 166.000
57.08000 173.000
57.09500 160.000
57.11000 198.000
57.12500 224.000
57.14000 215.000
57.15500 263.000
57.17000 261.000
57.18500 280.000
57.20000 250.000
57.21500 276.000
57.23000 267.000
57.24500 237.000
57.26000 214.000
57.27500 208.000
57.29000 201.000
57.30500 188.000
57.32000 186.000
57.33500 179.000
57.35000 171.000
57.36500 157.000
57.38000 176.000
57.39500 161.000
57.41000 168.000
57.42500 157.000
57.44000 165.000
57.45500 146.000
57.47000 150.000
57.48500 157.000
57.50000 150.000
57.51500 162.000
57.53000 146.000
57.54500 159.000
57.56000 142.000
57.57500 134.000
57.59000 145.000
57.60500 149.000
57.62000 153.000
57.63500 155.000
57.65000 161.000
57.66500 171.000
57.68000 200.000
57.69500 192.000
57.71000 202.000
57.72500 206.000
57.74000 190.000
57.75500 197.000
57.77000 208.000
57.78500 214.000
57.80000 186.000
57.81500 169.000
57.83000 194.000
57.84500 168.000
57.86000 173.000
57.87500 180.000
57.89000 172.000
57.90500 177.000
57.92000 175.000
57.93500 180.000
57.95000 180.000
57.96500 169.000
57.98000 199.000
57.99500 187.000
58.01000 182.000
58.02500 185.000
58.04000 190.000
58.05500 163.000
58.07000 173.000
58.08500 182.000
58.10000 191.000
58.11500 163.000
58.13000 150.000
58.14500 165.000
58.16000 146.000
58.17500 162.000
58.19000 160.000
58.20500 153.000
58.22000 136.000
58.23500 141.000
58.25000 146.000
58.26500 151.000
58.28000 141.000
58.29500 131.000
58.31000 150.000
58.32500 142.000
58.34000 143.000
58.35500 149.000
58.37000 149.000
58.38500 139.000
58.40000 151.000
58.41500 164.000
58.43000 159.000
58.44500 141.000
58.46000 141.000
58.47500 124.000
58.49000 138.000
58.50500 134.000
58.52000 128.000
58.53500 136.000
58.55000 130.000
58.56500 134.000
58.58000 127.000
58.59500 130.000
58.61000 143.000
58.62500 153.000
58.64000 148.000
58.65500 130.000
58.67000 128.000
58.68500 144.000
58.70000 133.000
58.71500 140.000
58.73000 150.000
58.74500 155.000
58.76000 166.000
58.77500 160.000
58.79000 175.000
58.80500 177.000
58.82000 182.000
58.83500 194.000
58.85000 210.000
58.86500 232.000
58.88000 211.000
58.89500 223.000
58.91000 219.000
58.92500 220.000
58.94000 226.000
58.95500 217.000
58.97000 195.000
58.98500 183.000
59.00000 163.000
59.01500 170.000
59.03000 176.000
59.04500 193.000
59.06000 190.000
59.07500 178.000
59.09000 201.000
59.10500 198.000
59.12000 213.000
59.13500 242.000
59.15000 261.000
59.16500 250.000
59.18000 227.000
59.19500 227.000
59.21000 210.000
59.22500 226.000
59.24000 209.000
59.25500 229.000
59.27000 230.000
59.28500 196.000
59.30000 222.000
59.31500 228.000
59.33000 210.000
59.34500 204.000
59.36000 206.000
59.37500 183.000
59.39000 203.000
59.40500 233.000
59.42000 226.000
59.43500 217.000
59.45000 209.000
59.46500 201.000
59.48000 211.000
59.49500 227.000
59.51000 234.000
59.52500 226.000
59.54000 235.000
59.55500 260.000
59.57000 254.000
59.58500 250.000
59.60000 249.000
59.61500 219.000
59.63000 197.000
59.64500 187.000
59.66000 186.000
59.67500 188.000
59.69000 172.000
59.70500 160.000
59.72000 161.000
59.73500 165.000
59.75000 163.000
59.76500 152.000
59.78000 162.000
59.79500 143.000
59.81000 144.000
59.82500 164.000
59.84000 171.000
59.85500 172.000
59.87000 169.000
59.88500 160.000
59.90000 168.000
59.91500 170.000
59.93000 171.000
59.94500 193.000
59.96000 188.000
59.97500 193.000
59.99000 184.000
60.00500 196.000
60.02000 181.000
60.03500 181.000
60.05000 176.000
60.06500 171.000
60.08000 179.000
60.09500 164.000
60.11000 173.000
60.12500 176.000
60.14000 189.000
60.15500 185.000
60.17000 201.000
60.18500 208.000
60.20000 186.000
60.21500 187.000
60.23000 192.000
60.24500 193.000
60.26000 198.000
60.27500 176.000
60.29000 163.000
60.30500 178.000
60.32000 166.000
60.33500 154.000
60.35000 173.000
60.36500 164.000
60.38000 168.000
60.39500 187.000
60.41000 166.000
60.42500 172.000
60.44000 168.000
60.45500 183.000
60.47000 187.000
60.48500 206.000
60.50000 233.000
60.51500 218.000
60.53000 220.000
60.54500 263.000
60.56000 281.000
60.57500 274.000
60.59000 311.000
60.60500 269.000
60.62000 242.000
60.63500 212.000
60.65000 219.000
60.66500 218.000
60.68000 213.000
60.69500 187.000
60.71000 171.000
60.72500 171.000
60.74000 163.000
60.75500 177.000
60.77000 161.000
60.78500 170.000
60.80000 151.000
60.81500 154.000
60.83000 147.000
60.84500 158.000
60.86000 166.000
60.87500 158.000
60.89000 155.000
60.90500 147.000
60.92000 148.000
60.93500 146.000
60.95000 128.000
60.96500 133.000
60.98000 160.000
60.99500 164.000
61.01000 170.000
61.02500 171.000
61.04000 174.000
61.05500 160.000
61.07000 164.000
61.08500 166.000
61.10000 195.000
61.11500 178.000
61.13000 187.000
61.14500 176.000
61.16000 164.000
61.17500 157.000
61.19000 180.000
61.20500 175.000
61.22000 192.000
61.23500 171.000
61.25000 163.000
61.26500 196.000
61.28000 200.000
61.29500 207.000
61.31000 192.000
61.32500 197.000
61.34000 185.000
61.35500 187.000
61.37000 172.000
61.38500 171.000
61.40000 165.000
61.41500 176.000
61.43000 183.000
61.44500 163.000
61.46000 169.000
61.47500 171.000
61.49000 161.000
61.50500 151.000
61.52000 150.000
61.53500 135.000
61.55000 154.000
61.56500 153.000
61.58000 143.000
61.59500 157.000
61.61000 151.000
61.62500 156.000
61.64000 163.000
61.65500 157.000
61.67000 155.000
61.68500 138.000
61.70000 140.000
61.71500 143.000
61.73000 150.000
61.74500 148.000
61.76000 163.000
61.77500 153.000
61.79000 165.000
61.80500 165.000
61.82000 155.000
61.83500 165.000
61.85000 163.000
61.86500 167.000
61.88000 160.000
61.89500 154.000
61.91000 192.000
61.92500 207.000
61.94000 206.000
61.95500 226.000
61.97000 199.000
61.98500 193.000
