2.00000 419.000
2.01500 425.000
2.03000 404.000
2.04500 425.000
2.06000 437.000
2.07500 431.000
2.09000 402.000
2.10500 406.000
2.12000 373.000
2.13500 374.000
2.15000 367.000
2.16500 378.000
2.18000 377.000
2.19500 365.000
2.21000 345.000
2.22500 323.000
2.24000 343.000
2.25500 324.000
2.27000 341.000
2.28500 319.000
2.30000 325.000
2.31500 321.000
2.33000 310.000
2.34500 320.000
2.36000 309.000
2.37500 295.000
2.39000 283.000
2.40500 293.000
2.42000 266.000
2.43500 272.000
2.45000 261.000
2.46500 279.000
2.48000 278.000
2.49500 275.000
2.51000 260.000
2.52500 247.000
2.54000 246.000
2.55500 224.000
2.57000 221.000
2.58500 245.000
2.60000 264.000
2.61500 251.000
2.63000 247.000
2.64500 233.000
2.66000 245.000
2.67500 223.000
2.69000 251.000
2.70500 227.000
2.72000 229.000
2.73500 234.000
2.75000 225.000
2.76500 229.000
2.78000 211.000
2.79500 205.000
2.81000 225.000
2.82500 213.000
2.84000 212.000
2.85500 222.000
2.87000 201.000
2.88500 226.000
2.90000 213.000
2.91500 184.000
2.93000 199.000
2.94500 202.000
2.96000 211.000
2.97500 234.000
2.99000 211.000
3.00500 193.000
3.02000 196.000
3.03500 183.000
3.05000 185.000
3.06500 183.000
3.08000 182.000
3.09500 197.000
3.11000 179.000
3.12500 165.000
3.14000 170.000
3.15500 170.000
3.17000 203.000
3.18500 176.000
3.20000 174.000
3.21500 197.000
3.23000 181.000
3.24500 175.000
3.26000 160.000
3.27500 171.000
3.29000 183.000
3.30500 165.000
3.32000 183.000
3.33500 176.000
3.35000 160.000
3.36500 189.000
3.38000 155.000
3.39500 159.000
3.41000 176.000
3.42500 162.000
3.44000 164.000
3.45500 156.000
3.47000 157.000
3.48500 163.000
3.50000 153.000
3.51500 180.000
3.53000 176.000
3.54500 156.000
3.56000 172.000
3.57500 171.000
3.59000 150.000
3.60500 172.000
3.62000 174.000
3.63500 173.000
3.65000 157.000
3.66500 140.000
3.68000 148.000
3.69500 151.000
3.71000 156.000
3.72500 164.000
3.74000 159.000
3.75500 147.000
3.77000 140.000
3.78500 144.000
3.80000 163.000
3.81500 147.000
3.83000 153.000
3.84500 152.000
3.86000 147.000
3.87500 140.000
3.89000 150.000
3.90500 160.000
3.92000 152.000
3.93500 142.000
3.95000 137.000
3.96500 142.000
3.98000 146.000
3.99500 141.000
4.01000 160.000
4.02500 140.000
4.04000 144.000
4.05500 155.000
4.07000 179.000
4.08500 157.000
4.10000 143.000
4.11500 162.000
4.13000 147.000
4.14500 155.000
4.16000 139.000
4.17500 151.000
4.19000 145.000
4.20500 142.000
4.22000 149.000
4.23500 136.000
4.25000 139.000
4.26500 144.000
4.28000 146.000
4.29500 169.000
4.31000 173.000
4.32500 154.000
4.34000 142.000
4.35500 148.000
4.37000 132.000
4.38500 136.000
4.40000 149.000
4.41500 135.000
4.43000 137.000
4.44500 146.000
4.46000 161.000
4.47500 170.000
4.49000 149.000
4.50500 147.000
4.52000 148.000
4.53500 144.000
4.55000 154.000
4.56500 136.000
4.58000 160.000
4.59500 160.000
4.61000 137.000
4.62500 162.000
4.64000 156.000
4.65500 132.000
4.67000 136.000
4.68500 139.000
4.70000 143.000
4.71500 152.000
4.73000 140.000
4.74500 143.000
4.76000 145.000
4.77500 148.000
4.79000 134.000
4.80500 134.000
4.82000 151.000
4.83500 134.000
4.85000 152.000
4.86500 127.000
4.88000 143.000
4.89500 142.000
4.91000 146.000
4.92500 126.000
4.94000 154.000
4.95500 152.000
4.97000 150.000
4.98500 159.000
5.00000 153.000
5.01500 140.000
5.03000 148.000
5.04500 143.000
5.06000 142.000
5.07500 139.000
5.09000 137.000
5.10500 130.000
5.12000 145.000
5.13500 129.000
5.15000 132.000
5.16500 130.000
5.18000 133.000
5.19500 124.000
5.21000 125.000
5.22500 123.000
5.24000 128.000
5.25500 151.000
5.27000 149.000
5.28500 142.000
5.30000 132.000
5.31500 138.000
5.33000 152.000
5.34500 147.000
5.36000 143.000
5.37500 149.000
5.39000 150.000
5.40500 142.000
5.42000 146.000
5.43500 141.000
5.45000 129.000
5.46500 137.000
5.48000 144.000
5.49500 132.000
5.51000 145.000
5.52500 126.000
5.54000 147.000
5.55500 180.000
5.57000 149.000
5.58500 151.000
5.60000 161.000
5.61500 147.000
5.63000 141.000
5.64500 152.000
5.66000 142.000
5.67500 143.000
5.69000 141.000
5.70500 143.000
5.72000 132.000
5.73500 135.000
5.75000 140.000
5.76500 147.000
5.78000 148.000
5.79500 150.000
5.81000 126.000
5.82500 137.000
5.84000 157.000
5.85500 155.000
5.87000 152.000
5.88500 149.000
5.90000 147.000
5.91500 147.000
5.93000 156.000
5.94500 160.000
5.96000 157.000
5.97500 152.000
5.99000 134.000
6.00500 149.000
6.02000 164.000
6.03500 153.000
6.05000 148.000
6.06500 152.000
6.08000 140.000
6.09500 145.000
6.11000 132.000
6.12500 132.000
6.14000 126.000
6.15500 154.000
6.17000 145.000
6.18500 159.000
6.20000 148.000
6.21500 156.000
6.23000 136.000
6.24500 134.000
6.26000 159.000
6.27500 169.000
6.29000 139.000
6.30500 144.000
6.32000 129.000
6.33500 141.000
6.35000 142.000
6.36500 142.000
6.38000 147.000
6.39500 147.000
6.41000 149.000
6.42500 128.000
6.44000 144.000
6.45500 154.000
6.47000 142.000
6.48500 151.000
6.50000 132.000
6.51500 154.000
6.53000 133.000
6.54500 143.000
6.56000 141.000
6.57500 131.000
6.59000 152.000
6.60500 145.000
6.62000 146.000
6.63500 153.000
6.65000 148.000
6.66500 143.000
6.68000 149.000
6.69500 137.000
6.71000 150.000
6.72500 143.000
6.74000 153.000
6.75500 151.000
6.77000 159.000
6.78500 156.000
6.80000 146.000
6.81500 145.000
6.83000 160.000
6.84500 146.000
6.86000 144.000
6.87500 138.000
6.89000 131.000
6.90500 144.000
6.92000 137.000
6.93500 143.000
6.95000 127.000
6.96500 135.000
6.98000 147.000
6.99500 113.000
7.01000 143.000
7.02500 156.000
7.04000 138.000
7.05500 143.000
7.07000 165.000
7.08500 148.000
7.10000 141.000
7.11500 138.000
7.13000 146.000
7.14500 139.000
7.16000 160.000
7.17500 159.000
7.19000 150.000
7.20500 126.000
7.22000 134.000
7.23500 151.000
7.25000 154.000
7.26500 150.000
7.28000 141.000
7.29500 139.000
7.31000 145.000
7.32500 155.000
7.34000 154.000
7.35500 152.000
7.37000 148.000
7.38500 146.000
7.40000 144.000
7.41500 144.000
7.43000 163.000
7.44500 151.000
7.46000 139.000
7.47500 168.000
7.49000 163.000
7.50500 151.000
7.52000 141.000
7.53500 156.000
7.55000 133.000
7.56500 136.000
7.58000 140.000
7.59500 157.000
7.61000 135.000
7.62500 142.000
7.64000 136.000
7.65500 125.000
7.67000 130.000
7.68500 141.000
7.70000 148.000
7.71500 138.000
7.73000 163.000
7.74500 136.000
7.76000 147.000
7.77500 143.000
7.79000 131.000
7.80500 146.000
7.82000 126.000
7.83500 132.000
7.85000 160.000
7.86500 161.000
7.88000 145.000
7.89500 149.000
7.91000 160.000
7.92500 166.000
7.94000 155.000
7.95500 151.000
7.97000 162.000
7.98500 152.000
8.00000 134.000
8.01500 151.000
8.03000 156.000
8.04500 154.000
8.06000 145.000
8.07500 149.000
8.09000 160.000
8.10500 159.000
8.12000 154.000
8.13500 174.000
8.15000 135.000
8.16500 147.000
8.18000 150.000
8.19500 151.000
8.21000 159.000
8.22500 160.000
8.24000 165.000
8.25500 152.000
8.27000 150.000
8.28500 167.000
8.30000 167.000
8.31500 184.000
8.33000 159.000
8.34500 175.000
8.36000 178.000
8.37500 168.000
8.39000 176.000
8.40500 171.000
8.42000 182.000
8.43500 171.000
8.45000 168.000
8.46500 171.000
8.48000 165.000
8.49500 183.000
8.51000 197.000
8.52500 203.000
8.54000 198.000
8.55500 186.000
8.57000 166.000
8.58500 168.000
8.60000 193.000
8.61500 221.000
8.63000 192.000
8.64500 192.000
8.66000 183.000
8.67500 184.000
8.69000 210.000
8.70500 183.000
8.72000 174.000
8.73500 180.000
8.75000 180.000
8.76500 167.000
8.78000 186.000
8.79500 184.000
8.81000 170.000
8.82500 176.000
8.84000 142.000
8.85500 144.000
8.87000 165.000
8.88500 174.000
8.90000 175.000
8.91500 158.000
8.93000 166.000
8.94500 146.000
8.96000 158.000
8.97500 147.000
8.99000 155.000
9.00500 162.000
9.02000 151.000
9.03500 157.000
9.05000 156.000
9.06500 145.000
9.08000 146.000
9.09500 158.000
9.11000 171.000
9.12500 145.000
9.14000 147.000
9.15500 157.000
9.17000 140.000
9.18500 151.000
9.20000 145.000
9.21500 159.000
9.23000 159.000
9.24500 140.000
9.26000 153.000
9.27500 150.000
9.29000 165.000
9.30500 149.000
9.32000 148.000
9.33500 150.000
9.35000 168.000
9.36500 166.000
9.38000 138.000
9.39500 150.000
9.41000 145.000
9.42500 137.000
9.44000 157.000
9.45500 149.000
9.47000 158.000
9.48500 168.000
9.50000 152.000
9.51500 140.000
9.53000 154.000
9.54500 152.000
9.56000 150.000
9.57500 159.000
9.59000 150.000
9.60500 141.000
9.62000 167.000
9.63500 143.000
9.65000 149.000
9.66500 118.000
9.68000 137.000
9.69500 149.000
9.71000 154.000
9.72500 167.000
9.74000 143.000
9.75500 151.000
9.77000 150.000
9.78500 153.000
9.80000 159.000
9.81500 137.000
9.83000 131.000
9.84500 136.000
9.86000 135.000
9.87500 140.000
9.89000 174.000
9.90500 148.000
9.92000 161.000
9.93500 164.000
9.95000 160.000
9.96500 155.000
9.98000 184.000
9.99500 189.000
10.01000 178.000
10.02500 151.000
10.04000 151.000
10.05500 179.000
10.07000 166.000
10.08500 159.000
10.10000 173.000
10.11500 178.000
10.13000 166.000
10.14500 153.000
10.16000 166.000
10.17500 148.000
10.19000 134.000
10.20500 144.000
10.22000 154.000
10.23500 148.000
10.25000 153.000
10.26500 158.000
10.28000 150.000
10.29500 132.000
10.31000 144.000
10.32500 141.000
10.34000 140.000
10.35500 168.000
10.37000 163.000
10.38500 159.000
10.40000 146.000
10.41500 164.000
10.43000 164.000
10.44500 169.000
10.46000 157.000
10.47500 136.000
10.49000 161.000
10.50500 144.000
10.52000 156.000
10.53500 168.000
10.55000 145.000
10.56500 145.000
10.58000 150.000
10.59500 154.000
10.61000 162.000
10.62500 144.000
10.64000 154.000
10.65500 168.000
10.67000 156.000
10.68500 154.000
10.70000 160.000
10.71500 160.000
10.73000 168.000
10.74500 157.000
10.76000 158.000
10.77500 146.000
10.79000 147.000
10.80500 160.000
10.82000 143.000
10.83500 162.000
10.85000 175.000
10.86500 166.000
10.88000 144.000
10.89500 151.000
10.91000 172.000
10.92500 176.000
10.94000 166.000
10.95500 180.000
10.97000 176.000
10.98500 157.000
11.00000 159.000
11.01500 150.000
11.03000 184.000
11.04500 163.000
11.06000 182.000
11.07500 173.000
11.09000 190.000
11.10500 191.000
11.12000 184.000
11.13500 192.000
11.15000 160.000
11.16500 201.000
11.18000 200.000
11.19500 193.000
11.21000 235.000
11.22500 221.000
11.24000 213.000
11.25500 210.000
11.27000 223.000
11.28500 245.000
11.30000 234.000
11.31500 252.000
11.33000 268.000
11.34500 270.000
11.36000 292.000
11.37500 318.000
11.39000 349.000
11.40500 363.000
11.42000 360.000
11.43500 403.000
11.45000 411.000
11.46500 409.000
11.48000 404.000
11.49500 463.000
11.51000 470.000
11.52500 468.000
11.54000 444.000
11.55500 457.000
11.57000 493.000
11.58500 466.000
11.60000 425.000
11.61500 392.000
11.63000 392.000
11.64500 409.000
11.66000 387.000
11.67500 347.000
11.69000 372.000
11.70500 358.000
11.72000 348.000
11.73500 350.000
11.75000 350.000
11.76500 336.000
11.78000 299.000
11.79500 310.000
11.81000 302.000
11.82500 283.000
11.84000 308.000
11.85500 307.000
11.87000 291.000
11.88500 285.000
11.90000 296.000
11.91500 264.000
11.93000 256.000
11.94500 251.000
11.96000 268.000
11.97500 254.000
11.99000 227.000
12.00500 232.000
12.02000 229.000
12.03500 222.000
12.05000 210.000
12.06500 190.000
12.08000 184.000
12.09500 187.000
12.11000 179.000
12.12500 163.000
12.14000 172.000
12.15500 169.000
12.17000 177.000
12.18500 150.000
12.20000 157.000
12.21500 175.000
12.23000 163.000
12.24500 156.000
12.26000 140.000
12.27500 155.000
12.29000 151.000
12.30500 145.000
12.32000 158.000
12.33500 155.000
12.35000 140.000
12.36500 156.000
12.38000 163.000
12.39500 167.000
12.41000 160.000
12.42500 155.000
12.44000 168.000
12.45500 154.000
12.47000 173.000
12.48500 167.000
12.50000 159.000
12.51500 145.000
12.53000 162.000
12.54500 150.000
12.56000 135.000
12.57500 163.000
12.59000 157.000
12.60500 160.000
12.62000 148.000
12.63500 163.000
12.65000 157.000
12.66500 148.000
12.68000 149.000
12.69500 152.000
12.71000 169.000
12.72500 175.000
12.74000 180.000
12.75500 190.000
12.77000 190.000
12.78500 195.000
12.80000 176.000
12.81500 196.000
12.83000 192.000
12.84500 185.000
12.86000 197.000
12.87500 182.000
12.89000 184.000
12.90500 173.000
12.92000 177.000
12.93500 190.000
12.95000 183.000
12.96500 194.000
12.98000 179.000
12.99500 166.000
13.01000 192.000
13.02500 179.000
13.04000 186.000
13.05500 176.000
13.07000 201.000
13.08500 190.000
13.10000 183.000
13.11500 187.000
13.13000 172.000
13.14500 185.000
13.16000 173.000
13.17500 192.000
13.19000 168.000
13.20500 181.000
13.22000 185.000
13.23500 174.000
13.25000 196.000
13.26500 187.000
13.28000 190.000
13.29500 171.000
13.31000 170.000
13.32500 183.000
13.34000 186.000
13.35500 162.000
13.37000 149.000
13.38500 188.000
13.40000 180.000
13.41500 174.000
13.43000 170.000
13.44500 171.000
13.46000 150.000
13.47500 154.000
13.49000 168.000
13.50500 155.000
13.52000 146.000
13.53500 149.000
13.55000 148.000
13.56500 130.000
13.58000 126.000
13.59500 148.000
13.61000 156.000
13.62500 162.000
13.64000 154.000
13.65500 165.000
13.67000 143.000
13.68500 163.000
13.70000 156.000
13.71500 143.000
13.73000 134.000
13.74500 168.000
13.76000 148.000
13.77500 139.000
13.79000 136.000
13.80500 152.000
13.82000 149.000
13.83500 144.000
13.85000 163.000
13.86500 156.000
13.88000 136.000
13.89500 141.000
13.91000 147.000
13.92500 158.000
13.94000 156.000
13.95500 142.000
13.97000 146.000
13.98500 148.000
14.00000 145.000
14.01500 151.000
14.03000 151.000
14.04500 149.000
14.06000 133.000
14.07500 138.000
14.09000 136.000
14.10500 152.000
14.12000 159.000
14.13500 159.000
14.15000 164.000
14.16500 150.000
14.18000 160.000
14.19500 160.000
14.21000 146.000
14.22500 167.000
14.24000 150.000
14.25500 160.000
14.27000 153.000
14.28500 154.000
14.30000 152.000
14.31500 137.000
14.33000 156.000
14.34500 157.000
14.36000 158.000
14.37500 139.000
14.39000 155.000
14.40500 162.000
14.42000 154.000
14.43500 161.000
14.45000 146.000
14.46500 149.000
14.48000 147.000
14.49500 140.000
14.51000 140.000
14.52500 164.000
14.54000 177.000
14.55500 150.000
14.57000 148.000
14.58500 148.000
14.60000 162.000
14.61500 160.000
14.63000 154.000
14.64500 180.000
14.66000 163.000
14.67500 142.000
14.69000 141.000
14.70500 137.000
14.72000 151.000
14.73500 146.000
14.75000 142.000
14.76500 149.000
14.78000 174.000
14.79500 162.000
14.81000 150.000
14.82500 157.000
14.84000 146.000
14.85500 153.000
14.87000 148.000
14.88500 149.000
14.90000 147.000
14.91500 149.000
14.93000 145.000
14.94500 148.000
14.96000 162.000
14.97500 149.000
14.99000 172.000
15.00500 155.000
15.02000 151.000
15.03500 155.000
15.05000 151.000
15.06500 161.000
15.08000 143.000
15.09500 158.000
15.11000 154.000
15.12500 156.000
15.14000 143.000
15.15500 144.000
15.17000 147.000
15.18500 166.000
15.20000 153.000
15.21500 137.000
15.23000 139.000
15.24500 160.000
15.26000 164.000
15.27500 169.000
15.29000 166.000
15.30500 156.000
15.32000 143.000
15.33500 145.000
15.35000 161.000
15.36500 156.000
15.38000 142.000
15.39500 126.000
15.41000 153.000
15.42500 166.000
15.44000 133.000
15.45500 145.000
15.47000 136.000
15.48500 146.000
15.50000 146.000
15.51500 143.000
15.53000 144.000
15.54500 164.000
15.56000 154.000
15.57500 125.000
15.59000 142.000
15.60500 155.000
15.62000 148.000
15.63500 143.000
15.65000 164.000
15.66500 166.000
15.68000 156.000
15.69500 160.000
15.71000 151.000
15.72500 164.000
15.74000 154.000
15.75500 141.000
15.77000 165.000
15.78500 159.000
15.80000 135.000
15.81500 155.000
15.83000 163.000
15.84500 158.000
15.86000 169.000
15.87500 156.000
15.89000 163.000
15.90500 157.000
15.92000 157.000
15.93500 148.000
15.95000 146.000
15.96500 157.000
15.98000 165.000
15.99500 152.000
16.01000 157.000
16.02500 172.000
16.04000 155.000
16.05500 143.000
16.07000 158.000
16.08500 159.000
16.10000 147.000
16.11500 151.000
16.13000 153.000
16.14500 154.000
16.16000 155.000
16.17500 161.000
16.19000 161.000
16.20500 180.000
16.22000 168.000
16.23500 153.000
16.25000 155.000
16.26500 180.000
16.28000 176.000
16.29500 147.000
16.31000 158.000
16.32500 155.000
16.34000 167.000
16.35500 144.000
16.37000 142.000
16.38500 170.000
16.40000 179.000
16.41500 171.000
16.43000 158.000
16.44500 138.000
16.46000 150.000
16.47500 165.000
16.49000 174.000
16.50500 163.000
16.52000 157.000
16.53500 162.000
16.55000 158.000
16.56500 133.000
16.58000 157.000
16.59500 157.000
16.61000 143.000
16.62500 140.000
16.64000 143.000
16.65500 153.000
16.67000 163.000
16.68500 161.000
16.70000 149.000
16.71500 158.000
16.73000 161.000
16.74500 179.000
16.76000 166.000
16.77500 146.000
16.79000 168.000
16.80500 151.000
16.82000 169.000
16.83500 160.000
16.85000 176.000
16.86500 172.000
16.88000 159.000
16.89500 161.000
16.91000 155.000
16.92500 154.000
16.94000 176.000
16.95500 161.000
16.97000 156.000
16.98500 152.000
17.00000 170.000
17.01500 165.000
17.03000 159.000
17.04500 152.000
17.06000 148.000
17.07500 157.000
17.09000 138.000
17.10500 163.000
17.12000 157.000
17.13500 149.000
17.15000 145.000
17.16500 170.000
17.18000 172.000
17.19500 169.000
17.21000 169.000
17.22500 172.000
17.24000 161.000
17.25500 188.000
17.27000 161.000
17.28500 158.000
17.30000 174.000
17.31500 177.000
17.33000 175.000
17.34500 169.000
17.36000 155.000
17.37500 146.000
17.39000 159.000
17.40500 171.000
17.42000 152.000
17.43500 165.000
17.45000 166.000
17.46500 162.000
17.48000 158.000
17.49500 181.000
17.51000 159.000
17.52500 143.000
17.54000 168.000
17.55500 164.000
17.57000 162.000
17.58500 167.000
17.60000 155.000
17.61500 159.000
17.63000 154.000
17.64500 163.000
17.66000 157.000
17.67500 162.000
17.69000 167.000
17.70500 160.000
17.72000 173.000
17.73500 168.000
17.75000 184.000
17.76500 183.000
17.78000 157.000
17.79500 153.000
17.81000 168.000
17.82500 172.000
17.84000 174.000
17.85500 168.000
17.87000 177.000
17.88500 192.000
17.90000 177.000
17.91500 162.000
17.93000 173.000
17.94500 182.000
17.96000 174.000
17.97500 175.000
17.99000 176.000
18.00500 157.000
18.02000 162.000
18.03500 180.000
18.05000 171.000
18.06500 192.000
18.08000 182.000
18.09500 158.000
18.11000 170.000
18.12500 171.000
18.14000 188.000
18.15500 192.000
18.17000 167.000
18.18500 193.000
18.20000 192.000
18.21500 175.000
18.23000 181.000
18.24500 180.000
18.26000 170.000
18.27500 176.000
18.29000 168.000
18.30500 180.000
18.32000 195.000
18.33500 215.000
18.35000 182.000
18.36500 170.000
18.38000 165.000
18.39500 183.000
18.41000 181.000
18.42500 188.000
18.44000 180.000
18.45500 194.000
18.47000 190.000
18.48500 187.000
18.50000 184.000
18.51500 188.000
18.53000 189.000
18.54500 192.000
18.56000 210.000
18.57500 180.000
18.59000 188.000
18.60500 179.000
18.62000 204.000
18.63500 188.000
18.65000 187.000
18.66500 183.000
18.68000 175.000
18.69500 194.000
18.71000 188.000
18.72500 177.000
18.74000 180.000
18.75500 201.000
18.77000 192.000
18.78500 195.000
18.80000 189.000
18.81500 203.000
18.83000 182.000
18.84500 193.000
18.86000 176.000
18.87500 188.000
18.89000 200.000
18.90500 185.000
18.92000 165.000
18.93500 185.000
18.95000 198.000
18.96500 193.000
18.98000 169.000
18.99500 180.000
19.01000 197.000
19.02500 191.000
19.04000 165.000
19.05500 174.000
19.07000 179.000
19.08500 179.000
19.10000 181.000
19.11500 190.000
19.13000 212.000
19.14500 215.000
19.16000 213.000
19.17500 196.000
19.19000 213.000
19.20500 186.000
19.22000 195.000
19.23500 190.000
19.25000 182.000
19.26500 177.000
19.28000 181.000
19.29500 186.000
19.31000 175.000
19.32500 176.000
19.34000 175.000
19.35500 172.000
19.37000 187.000
19.38500 199.000
19.40000 209.000
19.41500 195.000
19.43000 194.000
19.44500 184.000
19.46000 177.000
19.47500 166.000
19.49000 186.000
19.50500 182.000
19.52000 172.000
19.53500 193.000
19.55000 180.000
19.56500 193.000
19.58000 198.000
19.59500 196.000
19.61000 202.000
19.62500 193.000
19.64000 207.000
19.65500 214.000
19.67000 200.000
19.68500 190.000
19.70000 186.000
19.71500 194.000
19.73000 190.000
19.74500 186.000
19.76000 171.000
19.77500 183.000
19.79000 204.000
19.80500 222.000
19.82000 183.000
19.83500 186.000
19.85000 168.000
19.86500 182.000
19.88000 206.000
19.89500 207.000
19.91000 180.000
19.92500 192.000
19.94000 182.000
19.95500 187.000
19.97000 203.000
19.98500 181.000
20.00000 185.000
20.01500 181.000
20.03000 182.000
20.04500 198.000
20.06000 195.000
20.07500 200.000
20.09000 207.000
20.10500 205.000
20.12000 198.000
20.13500 194.000
20.15000 202.000
20.16500 202.000
20.18000 184.000
20.19500 198.000
20.21000 208.000
20.22500 218.000
20.24000 202.000
20.25500 209.000
20.27000 193.000
20.28500 192.000
20.30000 206.000
20.31500 216.000
20.33000 199.000
20.34500 203.000
20.36000 187.000
20.37500 180.000
20.39000 188.000
20.40500 202.000
20.42000 212.000
20.43500 200.000
20.45000 210.000
20.46500 188.000
20.48000 198.000
20.49500 205.000
20.51000 207.000
20.52500 215.000
20.54000 194.000
20.55500 181.000
20.57000 204.000
20.58500 202.000
20.60000 207.000
20.61500 217.000
20.63000 207.000
20.64500 188.000
20.66000 192.000
20.67500 181.000
20.69000 224.000
20.70500 218.000
20.72000 207.000
20.73500 187.000
20.75000 178.000
20.76500 201.000
20.78000 214.000
20.79500 209.000
20.81000 189.000
20.82500 201.000
20.84000 198.000
20.85500 200.000
20.87000 198.000
20.88500 203.000
20.90000 206.000
20.91500 201.000
20.93000 199.000
20.94500 210.000
20.96000 210.000
20.97500 182.000
20.99000 201.000
21.00500 194.000
21.02000 193.000
21.03500 215.000
21.05000 216.000
21.06500 213.000
21.08000 204.000
21.09500 188.000
21.11000 224.000
21.12500 205.000
21.14000 202.000
21.15500 221.000
21.17000 208.000
21.18500 213.000
21.20000 204.000
21.21500 190.000
21.23000 186.000
21.24500 187.000
21.26000 190.000
21.27500 209.000
21.29000 225.000
21.30500 209.000
21.32000 225.000
21.33500 205.000
21.35000 182.000
21.36500 197.000
21.38000 205.000
21.39500 222.000
21.41000 204.000
21.42500 212.000
21.44000 204.000
21.45500 222.000
21.47000 200.000
21.48500 205.000
21.50000 209.000
21.51500 204.000
21.53000 219.000
21.54500 198.000
21.56000 213.000
21.57500 209.000
21.59000 214.000
21.60500 215.000
21.62000 228.000
21.63500 215.000
21.65000 225.000
21.66500 219.000
21.68000 214.000
21.69500 221.000
21.71000 209.000
21.72500 219.000
21.74000 204.000
21.75500 208.000
21.77000 218.000
21.78500 209.000
21.80000 219.000
21.81500 227.000
21.83000 217.000
21.84500 201.000
21.86000 200.000
21.87500 202.000
21.89000 202.000
21.90500 195.000
21.92000 219.000
21.93500 236.000
21.95000 203.000
21.96500 210.000
21.98000 226.000
21.99500 215.000
22.01000 199.000
22.02500 189.000
22.04000 215.000
22.05500 208.000
22.07000 214.000
22.08500 207.000
22.10000 217.000
22.11500 197.000
22.13000 203.000
22.14500 211.000
22.16000 209.000
22.17500 187.000
22.19000 215.000
22.20500 214.000
22.22000 220.000
22.23500 219.000
22.25000 233.000
22.26500 231.000
22.28000 217.000
22.29500 210.000
22.31000 216.000
22.32500 216.000
22.34000 217.000
22.35500 239.000
22.37000 241.000
22.38500 194.000
22.40000 235.000
22.41500 229.000
22.43000 217.000
22.44500 209.000
22.46000 225.000
22.47500 256.000
22.49000 230.000
22.50500 233.000
22.52000 222.000
22.53500 249.000
22.55000 216.000
22.56500 205.000
22.58000 208.000
22.59500 216.000
22.61000 220.000
22.62500 232.000
22.64000 234.000
22.65500 244.000
22.67000 228.000
22.68500 242.000
22.70000 238.000
22.71500 211.000
22.73000 208.000
22.74500 197.000
22.76000 211.000
22.77500 209.000
22.79000 201.000
22.80500 199.000
22.82000 211.000
22.83500 204.000
22.85000 227.000
22.86500 245.000
22.88000 243.000
22.89500 223.000
22.91000 214.000
22.92500 220.000
22.94000 206.000
22.95500 215.000
22.97000 222.000
22.98500 242.000
23.00000 242.000
23.01500 267.000
23.03000 254.000
23.04500 214.000
23.06000 202.000
23.07500 238.000
23.09000 222.000
23.10500 243.000
23.12000 227.000
23.13500 234.000
23.15000 240.000
23.16500 256.000
23.18000 238.000
23.19500 225.000
23.21000 244.000
23.22500 218.000
23.24000 254.000
23.25500 246.000
23.27000 229.000
23.28500 236.000
23.30000 216.000
23.31500 241.000
23.33000 235.000
23.34500 205.000
23.36000 216.000
23.37500 235.000
23.39000 216.000
23.40500 213.000
23.42000 209.000
23.43500 214.000
23.45000 226.000
23.46500 241.000
23.48000 223.000
23.49500 222.000
23.51000 239.000
23.52500 236.000
23.54000 235.000
23.55500 260.000
23.57000 251.000
23.58500 240.000
23.60000 226.000
23.61500 229.000
23.63000 220.000
23.64500 241.000
23.66000 238.000
23.67500 217.000
23.69000 228.000
23.70500 224.000
23.72000 233.000
23.73500 218.000
23.75000 233.000
23.76500 223.000
23.78000 227.000
23.79500 243.000
23.81000 252.000
23.82500 245.000
23.84000 214.000
23.85500 237.000
23.87000 256.000
23.88500 248.000
23.90000 234.000
23.91500 223.000
23.93000 244.000
23.94500 254.000
23.96000 239.000
23.97500 235.000
23.99000 258.000
24.00500 250.000
24.02000 241.000
24.03500 239.000
24.05000 219.000
24.06500 250.000
24.08000 250.000
24.09500 253.000
24.11000 250.000
24.12500 254.000
24.14000 230.000
24.15500 229.000
24.17000 251.000
24.18500 244.000
24.20000 246.000
24.21500 258.000
24.23000 230.000
24.24500 222.000
24.26000 243.000
24.27500 281.000
24.29000 260.000
24.30500 233.000
24.32000 250.000
24.33500 266.000
24.35000 252.000
24.36500 233.000
24.38000 241.000
24.39500 250.000
24.41000 246.000
24.42500 244.000
24.44000 247.000
24.45500 272.000
24.47000 259.000
24.48500 233.000
24.50000 246.000
24.51500 252.000
24.53000 241.000
24.54500 266.000
24.56000 223.000
24.57500 257.000
24.59000 259.000
24.60500 255.000
24.62000 241.000
24.63500 242.000
24.65000 261.000
24.66500 252.000
24.68000 247.000
24.69500 248.000
24.71000 261.000
24.72500 269.000
24.74000 296.000
24.75500 255.000
24.77000 263.000
24.78500 253.000
24.80000 244.000
24.81500 258.000
24.83000 274.000
24.84500 248.000
24.86000 258.000
24.87500 261.000
24.89000 281.000
24.90500 277.000
24.92000 267.000
24.93500 275.000
24.95000 274.000
24.96500 293.000
24.98000 321.000
24.99500 316.000
25.01000 316.000
25.02500 313.000
25.04000 324.000
25.05500 327.000
25.07000 327.000
25.08500 313.000
25.10000 319.000
25.11500 298.000
25.13000 302.000
25.14500 301.000
25.16000 298.000
25.17500 306.000
25.19000 314.000
25.20500 305.000
25.22000 317.000
25.23500 328.000
25.25000 329.000
25.26500 341.000
25.28000 360.000
25.29500 360.000
25.31000 357.000
25.32500 354.000
25.34000 376.000
25.35500 372.000
25.37000 374.000
25.38500 376.000
25.40000 410.000
25.41500 385.000
25.43000 408.000
25.44500 408.000
25.46000 421.000
25.47500 451.000
25.49000 455.000
25.50500 443.000
25.52000 429.000
25.53500 468.000
25.55000 442.000
25.56500 476.000
25.58000 487.000
25.59500 432.000
25.61000 433.000
25.62500 433.000
25.64000 438.000
25.65500 458.000
25.67000 410.000
25.68500 388.000
25.70000 387.000
25.71500 372.000
25.73000 353.000
25.74500 320.000
25.76000 334.000
25.77500 337.000
25.79000 337.000
25.80500 332.000
25.82000 306.000
25.83500 319.000
25.85000 325.000
25.86500 311.000
25.88000 312.000
25.89500 338.000
25.91000 316.000
25.92500 304.000
25.94000 298.000
25.95500 294.000
25.97000 304.000
25.98500 314.000
26.00000 289.000
26.01500 289.000
26.03000 280.000
26.04500 309.000
26.06000 294.000
26.07500 295.000
26.09000 294.000
26.10500 292.000
26.12000 283.000
26.13500 268.000
26.15000 269.000
26.16500 287.000
26.18000 284.000
26.19500 279.000
26.21000 290.000
26.22500 274.000
26.24000 300.000
26.25500 272.000
26.27000 280.000
26.28500 284.000
26.30000 262.000
26.31500 256.000
26.33000 255.000
26.34500 252.000
26.36000 261.000
26.37500 284.000
26.39000 294.000
26.40500 282.000
26.42000 285.000
26.43500 284.000
26.45000 272.000
26.46500 296.000
26.48000 295.000
26.49500 296.000
26.51000 304.000
26.52500 286.000
26.54000 273.000
26.55500 287.000
26.57000 307.000
26.58500 314.000
26.60000 293.000
26.61500 295.000
26.63000 319.000
26.64500 280.000
26.66000 273.000
26.67500 292.000
26.69000 278.000
26.70500 289.000
26.72000 316.000
26.73500 308.000
26.75000 315.000
26.76500 303.000
26.78000 280.000
26.79500 277.000
26.81000 296.000
26.82500 301.000
26.84000 303.000
26.85500 316.000
26.87000 329.000
26.88500 301.000
26.90000 302.000
26.91500 318.000
26.93000 341.000
26.94500 323.000
26.96000 308.000
26.97500 328.000
26.99000 361.000
27.00500 357.000
27.02000 376.000
27.03500 356.000
27.05000 335.000
27.06500 370.000
27.08000 384.000
27.09500 407.000
27.11000 412.000
27.12500 398.000
27.14000 418.000
27.15500 417.000
27.17000 378.000
27.18500 385.000
27.20000 394.000
27.21500 381.000
27.23000 391.000
27.24500 401.000
27.26000 406.000
27.27500 433.000
27.29000 413.000
27.30500 417.000
27.32000 468.000
27.33500 453.000
27.35000 442.000
27.36500 449.000
27.38000 465.000
27.39500 505.000
27.41000 473.000
27.42500 463.000
27.44000 448.000
27.45500 486.000
27.47000 476.000
27.48500 466.000
27.50000 465.000
27.51500 481.000
27.53000 465.000
27.54500 455.000
27.56000 428.000
27.57500 447.000
27.59000 416.000
27.60500 418.000
27.62000 387.000
27.63500 402.000
27.65000 371.000
27.66500 384.000
27.68000 399.000
27.69500 358.000
27.71000 347.000
27.72500 306.000
27.74000 291.000
27.75500 322.000
27.77000 311.000
27.78500 297.000
27.80000 291.000
27.81500 289.000
27.83000 316.000
27.84500 306.000
27.86000 260.000
27.87500 240.000
27.89000 256.000
27.90500 257.000
27.92000 264.000
27.93500 278.000
27.95000 251.000
27.96500 242.000
27.98000 245.000
27.99500 226.000
28.01000 256.000
28.02500 256.000
28.04000 262.000
28.05500 263.000
28.07000 240.000
28.08500 230.000
28.10000 213.000
28.11500 226.000
28.13000 223.000
28.14500 231.000
28.16000 231.000
28.17500 219.000
28.19000 230.000
28.20500 222.000
28.22000 250.000
28.23500 211.000
28.25000 220.000
28.26500 230.000
28.28000 204.000
28.29500 208.000
28.31000 194.000
28.32500 218.000
28.34000 221.000
28.35500 235.000
28.37000 244.000
28.38500 217.000
28.40000 224.000
28.41500 218.000
28.43000 228.000
28.44500 220.000
28.46000 222.000
28.47500 206.000
28.49000 214.000
28.50500 210.000
28.52000 199.000
28.53500 213.000
28.55000 216.000
28.56500 229.000
28.58000 223.000
28.59500 202.000
28.61000 200.000
28.62500 188.000
28.64000 205.000
28.65500 213.000
28.67000 204.000
28.68500 211.000
28.70000 200.000
28.71500 195.000
28.73000 208.000
28.74500 205.000
28.76000 220.000
28.77500 207.000
28.79000 207.000
28.80500 223.000
28.82000 198.000
28.83500 206.000
28.85000 210.000
28.86500 203.000
28.88000 202.000
28.89500 202.000
28.91000 196.000
28.92500 208.000
28.94000 193.000
28.95500 186.000
28.97000 201.000
28.98500 204.000
29.00000 210.000
29.01500 190.000
29.03000 174.000
29.04500 176.000
29.06000 203.000
29.07500 202.000
29.09000 216.000
29.10500 193.000
29.12000 190.000
29.13500 191.000
29.15000 209.000
29.16500 180.000
29.18000 183.000
29.19500 194.000
29.21000 202.000
29.22500 189.000
29.24000 193.000
29.25500 181.000
29.27000 193.000
29.28500 211.000
29.30000 200.000
29.31500 204.000
29.33000 204.000
29.34500 206.000
29.36000 218.000
29.37500 190.000
29.39000 220.000
29.40500 186.000
29.42000 181.000
29.43500 182.000
29.45000 200.000
29.46500 196.000
29.48000 185.000
29.49500 219.000
29.51000 197.000
29.52500 202.000
29.54000 208.000
29.55500 215.000
29.57000 205.000
29.58500 190.000
29.60000 194.000
29.61500 180.000
29.63000 184.000
29.64500 198.000
29.66000 224.000
29.67500 198.000
29.69000 189.000
29.70500 192.000
29.72000 210.000
29.73500 212.000
29.75000 222.000
29.76500 205.000
29.78000 188.000
29.79500 202.000
29.81000 206.000
29.82500 178.000
29.84000 193.000
29.85500 198.000
29.87000 201.000
29.88500 186.000
29.90000 207.000
29.91500 210.000
29.93000 206.000
29.94500 196.000
29.96000 209.000
29.97500 179.000
29.99000 189.000
30.00500 195.000
30.02000 203.000
30.03500 221.000
30.05000 197.000
30.06500 207.000
30.08000 201.000
30.09500 195.000
30.11000 196.000
30.12500 207.000
30.14000 203.000
30.15500 210.000
30.17000 225.000
30.18500 228.000
30.20000 212.000
30.21500 217.000
30.23000 210.000
30.24500 212.000
30.26000 216.000
30.27500 202.000
30.29000 211.000
30.30500 227.000
30.32000 215.000
30.33500 214.000
30.35000 231.000
30.36500 227.000
30.38000 235.000
30.39500 223.000
30.41000 208.000
30.42500 219.000
30.44000 235.000
30.45500 215.000
30.47000 224.000
30.48500 214.000
30.50000 232.000
30.51500 222.000
30.53000 211.000
30.54500 230.000
30.56000 228.000
30.57500 208.000
30.59000 216.000
30.60500 206.000
30.62000 219.000
30.63500 219.000
30.65000 200.000
30.66500 208.000
30.68000 198.000
30.69500 189.000
30.71000 197.000
30.72500 194.000
30.74000 184.000
30.75500 197.000
30.77000 214.000
30.78500 198.000
30.80000 188.000
30.81500 186.000
30.83000 200.000
30.84500 175.000
30.86000 182.000
30.87500 184.000
30.89000 194.000
30.90500 212.000
30.92000 205.000
30.93500 192.000
30.95000 170.000
30.96500 184.000
30.98000 180.000
30.99500 164.000
31.01000 195.000
31.02500 189.000
31.04000 176.000
31.05500 169.000
31.07000 171.000
31.08500 171.000
31.10000 177.000
31.11500 178.000
31.13000 176.000
31.14500 180.000
31.16000 179.000
31.17500 172.000
31.19000 180.000
31.20500 173.000
31.22000 171.000
31.23500 169.000
31.25000 189.000
31.26500 173.000
31.28000 168.000
31.29500 172.000
31.31000 172.000
31.32500 188.000
31.34000 187.000
31.35500 181.000
31.37000 180.000
31.38500 184.000
31.40000 160.000
31.41500 156.000
31.43000 164.000
31.44500 133.000
31.46000 157.000
31.47500 164.000
31.49000 154.000
31.50500 176.000
31.52000 173.000
31.53500 161.000
31.55000 159.000
31.56500 178.000
31.58000 187.000
31.59500 173.000
31.61000 186.000
31.62500 149.000
31.64000 162.000
31.65500 160.000
31.67000 158.000
31.68500 167.000
31.70000 173.000
31.71500 178.000
31.73000 186.000
31.74500 163.000
31.76000 165.000
31.77500 146.000
31.79000 159.000
31.80500 157.000
31.82000 162.000
31.83500 180.000
31.85000 162.000
31.86500 155.000
31.88000 159.000
31.89500 156.000
31.91000 153.000
31.92500 157.000
31.94000 154.000
31.95500 168.000
31.97000 167.000
31.98500 166.000
32.00000 167.000
32.01500 162.000
32.03000 137.000
32.04500 150.000
32.06000 169.000
32.07500 142.000
32.09000 149.000
32.10500 177.000
32.12000 154.000
32.13500 158.000
32.15000 177.000
32.16500 169.000
32.18000 168.000
32.19500 173.000
32.21000 135.000
32.22500 148.000
32.24000 166.000
32.25500 159.000
32.27000 175.000
32.28500 179.000
32.30000 161.000
32.31500 159.000
32.33000 161.000
32.34500 166.000
32.36000 148.000
32.37500 159.000
32.39000 161.000
32.40500 161.000
32.42000 152.000
32.43500 152.000
32.45000 135.000
32.46500 141.000
32.48000 173.000
32.49500 164.000
32.51000 145.000
32.52500 173.000
32.54000 160.000
32.55500 140.000
32.57000 151.000
32.58500 161.000
32.60000 145.000
32.61500 139.000
32.63000 149.000
32.64500 163.000
32.66000 150.000
32.67500 145.000
32.69000 144.000
32.70500 158.000
32.72000 161.000
32.73500 169.000
32.75000 163.000
32.76500 155.000
32.78000 146.000
32.79500 150.000
32.81000 153.000
32.82500 140.000
32.84000 148.000
32.85500 141.000
32.87000 166.000
32.88500 152.000
32.90000 151.000
32.91500 146.000
32.93000 148.000
32.94500 138.000
32.96000 156.000
32.97500 159.000
32.99000 138.000
33.00500 138.000
33.02000 138.000
33.03500 153.000
33.05000 134.000
33.06500 148.000
33.08000 146.000
33.09500 151.000
33.11000 152.000
33.12500 159.000
33.14000 149.000
33.15500 155.000
33.17000 162.000
33.18500 174.000
33.20000 153.000
33.21500 136.000
33.23000 146.000
33.24500 134.000
33.26000 135.000
33.27500 129.000
33.29000 137.000
33.30500 147.000
33.32000 144.000
33.33500 135.000
33.35000 148.000
33.36500 160.000
33.38000 156.000
33.39500 149.000
33.41000 141.000
33.42500 145.000
33.44000 139.000
33.45500 131.000
33.47000 135.000
33.48500 138.000
33.50000 139.000
33.51500 130.000
33.53000 134.000
33.54500 146.000
33.56000 134.000
33.57500 140.000
33.59000 135.000
33.60500 138.000
33.62000 141.000
33.63500 139.000
33.65000 153.000
33.66500 147.000
33.68000 139.000
33.69500 130.000
33.71000 158.000
33.72500 140.000
33.74000 135.000
33.75500 147.000
33.77000 128.000
33.78500 114.000
33.80000 115.000
33.81500 148.000
33.83000 152.000
33.84500 138.000
33.86000 129.000
33.87500 152.000
33.89000 154.000
33.90500 143.000
33.92000 125.000
33.93500 119.000
33.95000 123.000
33.96500 146.000
33.98000 155.000
33.99500 149.000
34.01000 138.000
34.02500 131.000
34.04000 143.000
34.05500 138.000
34.07000 129.000
34.08500 131.000
34.10000 131.000
34.11500 145.000
34.13000 137.000
34.14500 134.000
34.16000 143.000
34.17500 122.000
34.19000 122.000
34.20500 130.000
34.22000 127.000
34.23500 137.000
34.25000 134.000
34.26500 131.000
34.28000 141.000
34.29500 134.000
34.31000 150.000
34.32500 151.000
34.34000 146.000
34.35500 119.000
34.37000 126.000
34.38500 118.000
34.40000 133.000
34.41500 127.000
34.43000 137.000
34.44500 143.000
34.46000 120.000
34.47500 130.000
34.49000 138.000
34.50500 139.000
34.52000 155.000
34.53500 135.000
34.55000 113.000
34.56500 134.000
34.58000 131.000
34.59500 127.000
34.61000 133.000
34.62500 138.000
34.64000 127.000
34.65500 118.000
34.67000 130.000
34.68500 128.000
34.70000 103.000
34.71500 135.000
34.73000 131.000
34.74500 122.000
34.76000 123.000
34.77500 123.000
34.79000 104.000
34.80500 141.000
34.82000 126.000
34.83500 122.000
34.85000 124.000
34.86500 134.000
34.88000 117.000
34.89500 118.000
34.91000 136.000
34.92500 139.000
34.94000 128.000
34.95500 115.000
34.97000 139.000
34.98500 143.000
35.00000 138.000
35.01500 134.000
35.03000 119.000
35.04500 127.000
35.06000 143.000
35.07500 127.000
35.09000 130.000
35.10500 120.000
35.12000 116.000
35.13500 110.000
35.15000 114.000
35.16500 131.000
35.18000 135.000
35.19500 112.000
35.21000 127.000
35.22500 116.000
35.24000 113.000
35.25500 116.000
35.27000 119.000
35.28500 123.000
35.30000 121.000
35.31500 128.000
35.33000 121.000
35.34500 124.000
35.36000 132.000
35.37500 133.000
35.39000 131.000
35.40500 131.000
35.42000 113.000
35.43500 109.000
35.45000 121.000
35.46500 126.000
35.48000 115.000
35.49500 126.000
35.51000 108.000
35.52500 114.000
35.54000 115.000
35.55500 112.000
35.57000 113.000
35.58500 122.000
35.60000 134.000
35.61500 123.000
35.63000 106.000
35.64500 119.000
35.66000 106.000
35.67500 122.000
35.69000 113.000
35.70500 111.000
35.72000 126.000
35.73500 121.000
35.75000 100.000
35.76500 112.000
35.78000 126.000
35.79500 129.000
35.81000 115.000
35.82500 122.000
35.84000 132.000
35.85500 126.000
35.87000 121.000
35.88500 113.000
35.90000 117.000
35.91500 111.000
35.93000 126.000
35.94500 122.000
35.96000 121.000
35.97500 121.000
35.99000 117.000
36.00500 101.000
36.02000 98.000
36.03500 98.000
36.05000 108.000
36.06500 102.000
36.08000 112.000
36.09500 122.000
36.11000 123.000
36.12500 114.000
36.14000 102.000
36.15500 111.000
36.17000 109.000
36.18500 118.000
36.20000 112.000
36.21500 109.000
36.23000 119.000
36.24500 105.000
36.26000 137.000
36.27500 112.000
36.29000 113.000
36.30500 115.000
36.32000 117.000
36.33500 124.000
36.35000 122.000
36.36500 100.000
36.38000 110.000
36.39500 115.000
36.41000 113.000
36.42500 110.000
36.44000 95.000
36.45500 104.000
36.47000 98.000
36.48500 115.000
36.50000 127.000
36.51500 96.000
36.53000 92.000
36.54500 109.000
36.56000 118.000
36.57500 104.000
36.59000 108.000
36.60500 106.000
36.62000 112.000
36.63500 110.000
36.65000 113.000
36.66500 113.000
36.68000 123.000
36.69500 112.000
36.71000 118.000
36.72500 129.000
36.74000 110.000
36.75500 103.000
36.77000 93.000
36.78500 94.000
36.80000 107.000
36.81500 107.000
36.83000 92.000
36.84500 95.000
36.86000 96.000
36.87500 108.000
36.89000 112.000
36.90500 127.000
36.92000 107.000
36.93500 108.000
36.95000 102.000
36.96500 106.000
36.98000 106.000
36.99500 126.000
37.01000 116.000
37.02500 107.000
37.04000 105.000
37.05500 117.000
37.07000 121.000
37.08500 106.000
37.10000 106.000
37.11500 113.000
37.13000 115.000
37.14500 113.000
37.16000 124.000
37.17500 108.000
37.19000 102.000
37.20500 111.000
37.22000 102.000
37.23500 119.000
37.25000 104.000
37.26500 98.000
37.28000 94.000
37.29500 109.000
37.31000 100.000
37.32500 120.000
37.34000 113.000
37.35500 106.000
37.37000 95.000
37.38500 100.000
37.40000 108.000
37.41500 124.000
37.43000 113.000
37.44500 94.000
37.46000 105.000
37.47500 104.000
37.49000 108.000
37.50500 99.000
37.52000 96.000
37.53500 90.000
37.55000 82.000
37.56500 103.000
37.58000 108.000
37.59500 116.000
37.61000 102.000
37.62500 95.000
37.64000 97.000
37.65500 92.000
37.67000 96.000
37.68500 107.000
37.70000 104.000
37.71500 101.000
37.73000 105.000
37.74500 108.000
37.76000 102.000
37.77500 99.000
37.79000 101.000
37.80500 92.000
37.82000 109.000
37.83500 123.000
37.85000 114.000
37.86500 99.000
37.88000 103.000
37.89500 96.000
37.91000 90.000
37.92500 91.000
37.94000 90.000
37.95500 101.000
37.97000 88.000
37.98500 89.000
38.00000 91.000
38.01500 106.000
38.03000 98.000
38.04500 93.000
38.06000 97.000
38.07500 108.000
38.09000 106.000
38.10500 94.000
38.12000 97.000
38.13500 88.000
38.15000 98.000
38.16500 95.000
38.18000 101.000
38.19500 105.000
38.21000 116.000
38.22500 111.000
38.24000 99.000
38.25500 91.000
38.27000 92.000
38.28500 97.000
38.30000 105.000
38.31500 100.000
38.33000 111.000
38.34500 108.000
38.36000 103.000
38.37500 96.000
38.39000 93.000
38.40500 88.000
38.42000 89.000
38.43500 115.000
38.45000 99.000
38.46500 99.000
38.48000 86.000
38.49500 84.000
38.51000 95.000
38.52500 92.000
38.54000 95.000
38.55500 100.000
38.57000 98.000
38.58500 102.000
38.60000 90.000
38.61500 95.000
38.63000 106.000
38.64500 97.000
38.66000 95.000
38.67500 98.000
38.69000 100.000
38.70500 92.000
38.72000 117.000
38.73500 99.000
38.75000 92.000
38.76500 106.000
38.78000 96.000
38.79500 89.000
38.81000 102.000
38.82500 99.000
38.84000 98.000
38.85500 96.000
38.87000 88.000
38.88500 110.000
38.90000 91.000
38.91500 84.000
38.93000 100.000
38.94500 88.000
38.96000 93.000
38.97500 97.000
38.99000 96.000
39.00500 95.000
39.02000 96.000
39.03500 104.000
39.05000 92.000
39.06500 87.000
39.08000 102.000
39.09500 103.000
39.11000 84.000
39.12500 102.000
39.14000 89.000
39.15500 93.000
39.17000 98.000
39.18500 107.000
39.20000 90.000
39.21500 91.000
39.23000 98.000
39.24500 98.000
39.26000 90.000
39.27500 93.000
39.29000 86.000
39.30500 93.000
39.32000 98.000
39.33500 105.000
39.35000 119.000
39.36500 107.000
39.38000 114.000
39.39500 98.000
39.41000 89.000
39.42500 97.000
39.44000 98.000
39.45500 101.000
39.47000 103.000
39.48500 118.000
39.50000 99.000
39.51500 104.000
39.53000 99.000
39.54500 94.000
39.56000 110.000
39.57500 108.000
39.59000 99.000
39.60500 86.000
39.62000 120.000
39.63500 119.000
39.65000 119.000
39.66500 101.000
39.68000 89.000
39.69500 106.000
39.71000 97.000
39.72500 104.000
39.74000 111.000
39.75500 106.000
39.77000 100.000
39.78500 102.000
39.80000 104.000
39.81500 111.000
39.83000 106.000
39.84500 89.000
39.86000 111.000
39.87500 93.000
39.89000 98.000
39.90500 102.000
39.92000 97.000
39.93500 95.000
39.95000 101.000
39.96500 105.000
39.98000 97.000
39.99500 96.000
40.01000 108.000
40.02500 94.000
40.04000 108.000
40.05500 104.000
40.07000 98.000
40.08500 105.000
40.10000 107.000
40.11500 98.000
40.13000 102.000
40.14500 93.000
40.16000 114.000
40.17500 115.000
40.19000 113.000
40.20500 111.000
40.22000 107.000
40.23500 106.000
40.25000 97.000
40.26500 114.000
40.28000 113.000
40.29500 111.000
40.31000 100.000
40.32500 110.000
40.34000 111.000
40.35500 119.000
40.37000 117.000
40.38500 103.000
40.40000 116.000
40.41500 111.000
40.43000 109.000
40.44500 92.000
40.46000 104.000
40.47500 108.000
40.49000 111.000
40.50500 103.000
40.52000 87.000
40.53500 100.000
40.55000 104.000
40.56500 99.000
40.58000 106.000
40.59500 107.000
40.61000 115.000
40.62500 101.000
40.64000 88.000
40.65500 92.000
40.67000 99.000
40.68500 113.000
40.70000 102.000
40.71500 96.000
40.73000 107.000
40.74500 109.000
40.76000 104.000
40.77500 110.000
40.79000 90.000
40.80500 89.000
40.82000 99.000
40.83500 87.000
40.85000 110.000
40.86500 94.000
40.88000 102.000
40.89500 103.000
40.91000 96.000
40.92500 86.000
40.94000 95.000
40.95500 111.000
40.97000 102.000
40.98500 109.000
41.00000 107.000
41.01500 115.000
41.03000 116.000
41.04500 88.000
41.06000 90.000
41.07500 97.000
41.09000 119.000
41.10500 103.000
41.12000 93.000
41.13500 104.000
41.15000 89.000
41.16500 99.000
41.18000 104.000
41.19500 120.000
41.21000 109.000
41.22500 95.000
41.24000 91.000
41.25500 108.000
41.27000 98.000
41.28500 103.000
41.30000 110.000
41.31500 108.000
41.33000 90.000
41.34500 101.000
41.36000 104.000
41.37500 93.000
41.39000 99.000
41.40500 84.000
41.42000 99.000
41.43500 92.000
41.45000 89.000
41.46500 110.000
41.48000 109.000
41.49500 108.000
41.51000 118.000
41.52500 99.000
41.54000 93.000
41.55500 99.000
41.57000 98.000
41.58500 106.000
41.60000 105.000
41.61500 104.000
41.63000 114.000
41.64500 103.000
41.66000 111.000
41.67500 100.000
41.69000 115.000
41.70500 97.000
41.72000 94.000
41.73500 110.000
41.75000 101.000
41.76500 89.000
41.78000 95.000
41.79500 78.000
41.81000 93.000
41.82500 91.000
41.84000 95.000
41.85500 93.000
41.87000 93.000
41.88500 98.000
41.90000 83.000
41.91500 98.000
41.93000 101.000
41.94500 104.000
41.96000 102.000
41.97500 99.000
41.99000 100.000
42.00500 100.000
42.02000 96.000
42.03500 98.000
42.05000 95.000
42.06500 102.000
42.08000 88.000
42.09500 102.000
42.11000 99.000
42.12500 91.000
42.14000 81.000
42.15500 90.000
42.17000 86.000
42.18500 92.000
42.20000 103.000
42.21500 94.000
42.23000 104.000
42.24500 94.000
42.26000 103.000
42.27500 95.000
42.29000 97.000
42.30500 97.000
42.32000 105.000
42.33500 92.000
42.35000 104.000
42.36500 97.000
42.38000 107.000
42.39500 88.000
42.41000 100.000
42.42500 99.000
42.44000 110.000
42.45500 99.000
42.47000 97.000
42.48500 97.000
42.50000 99.000
42.51500 103.000
42.53000 84.000
42.54500 103.000
42.56000 102.000
42.57500 93.000
42.59000 99.000
42.60500 96.000
42.62000 98.000
42.63500 106.000
42.65000 99.000
42.66500 100.000
42.68000 105.000
42.69500 90.000
42.71000 95.000
42.72500 91.000
42.74000 84.000
42.75500 115.000
42.77000 104.000
42.78500 97.000
42.80000 104.000
42.81500 87.000
42.83000 72.000
42.84500 82.000
42.86000 100.000
42.87500 91.000
42.89000 102.000
42.90500 91.000
42.92000 86.000
42.93500 92.000
42.95000 86.000
42.96500 92.000
42.98000 91.000
42.99500 85.000
43.01000 95.000
43.02500 105.000
43.04000 94.000
43.05500 101.000
43.07000 102.000
43.08500 92.000
43.10000 96.000
43.11500 85.000
43.13000 82.000
43.14500 92.000
43.16000 94.000
43.17500 94.000
43.19000 84.000
43.20500 88.000
43.22000 97.000
43.23500 109.000
43.25000 97.000
43.26500 93.000
43.28000 93.000
43.29500 94.000
43.31000 99.000
43.32500 95.000
43.34000 83.000
43.35500 95.000
43.37000 101.000
43.38500 100.000
43.40000 112.000
43.41500 88.000
43.43000 93.000
43.44500 109.000
43.46000 96.000
43.47500 99.000
43.49000 85.000
43.50500 89.000
43.52000 104.000
43.53500 88.000
43.55000 102.000
43.56500 103.000
43.58000 97.000
43.59500 86.000
43.61000 99.000
43.62500 102.000
43.64000 106.000
43.65500 95.000
43.67000 95.000
43.68500 89.000
43.70000 90.000
43.71500 112.000
43.73000 103.000
43.74500 100.000
43.76000 89.000
43.77500 103.000
43.79000 85.000
43.80500 84.000
43.82000 91.000
43.83500 108.000
43.85000 96.000
43.86500 87.000
43.88000 87.000
43.89500 88.000
43.91000 84.000
43.92500 91.000
43.94000 87.000
43.95500 79.000
43.97000 82.000
43.98500 85.000
44.00000 87.000
44.01500 89.000
44.03000 105.000
44.04500 91.000
44.06000 97.000
44.07500 95.000
44.09000 86.000
44.10500 89.000
44.12000 93.000
44.13500 86.000
44.15000 87.000
44.16500 101.000
44.18000 106.000
44.19500 97.000
44.21000 94.000
44.22500 95.000
44.24000 86.000
44.25500 89.000
44.27000 86.000
44.28500 98.000
44.30000 96.000
44.31500 99.000
44.33000 91.000
44.34500 91.000
44.36000 83.000
44.37500 92.000
44.39000 89.000
44.40500 99.000
44.42000 118.000
44.43500 91.000
44.45000 91.000
44.46500 91.000
44.48000 94.000
44.49500 89.000
44.51000 84.000
44.52500 94.000
44.54000 83.000
44.55500 85.000
44.57000 91.000
44.58500 104.000
44.60000 101.000
44.61500 89.000
44.63000 93.000
44.64500 98.000
44.66000 101.000
44.67500 82.000
44.69000 80.000
44.70500 87.000
44.72000 87.000
44.73500 93.000
44.75000 80.000
44.76500 80.000
44.78000 91.000
44.79500 87.000
44.81000 74.000
44.82500 86.000
44.84000 103.000
44.85500 88.000
44.87000 96.000
44.88500 87.000
44.90000 87.000
44.91500 78.000
44.93000 93.000
44.94500 92.000
44.96000 92.000
44.97500 86.000
44.99000 103.000
45.00500 100.000
45.02000 101.000
45.03500 95.000
45.05000 89.000
45.06500 94.000
45.08000 99.000
45.09500 90.000
45.11000 92.000
45.12500 91.000
45.14000 98.000
45.15500 102.000
45.17000 111.000
45.18500 92.000
45.20000 76.000
45.21500 84.000
45.23000 91.000
45.24500 79.000
45.26000 93.000
45.27500 93.000
45.29000 86.000
45.30500 91.000
45.32000 105.000
45.33500 100.000
45.35000 89.000
45.36500 74.000
45.38000 85.000
45.39500 94.000
45.41000 93.000
45.42500 108.000
45.44000 94.000
45.45500 96.000
45.47000 99.000
45.48500 89.000
45.50000 87.000
45.51500 86.000
45.53000 83.000
45.54500 89.000
45.56000 91.000
45.57500 96.000
45.59000 93.000
45.60500 87.000
45.62000 93.000
45.63500 100.000
45.65000 98.000
45.66500 90.000
45.68000 98.000
45.69500 99.000
45.71000 78.000
45.72500 82.000
45.74000 97.000
45.75500 99.000
45.77000 93.000
45.78500 93.000
45.80000 96.000
45.81500 95.000
45.83000 106.000
45.84500 102.000
45.86000 98.000
45.87500 80.000
45.89000 99.000
45.90500 90.000
45.92000 89.000
45.93500 119.000
45.95000 100.000
45.96500 94.000
45.98000 88.000
45.99500 86.000
46.01000 101.000
46.02500 79.000
46.04000 78.000
46.05500 76.000
46.07000 95.000
46.08500 90.000
46.10000 89.000
46.11500 93.000
46.13000 88.000
46.14500 87.000
46.16000 90.000
46.17500 89.000
46.19000 93.000
46.20500 80.000
46.22000 86.000
46.23500 90.000
46.25000 91.000
46.26500 78.000
46.28000 89.000
46.29500 91.000
46.31000 90.000
46.32500 94.000
46.34000 94.000
46.35500 85.000
46.37000 91.000
46.38500 98.000
46.40000 109.000
46.41500 94.000
46.43000 92.000
46.44500 101.000
46.46000 90.000
46.47500 88.000
46.49000 82.000
46.50500 72.000
46.52000 83.000
46.53500 86.000
46.55000 87.000
46.56500 84.000
46.58000 74.000
46.59500 91.000
46.61000 96.000
46.62500 89.000
46.64000 101.000
46.65500 110.000
46.67000 89.000
46.68500 92.000
46.70000 77.000
46.71500 82.000
46.73000 93.000
46.74500 81.000
46.76000 86.000
46.77500 84.000
46.79000 94.000
46.80500 84.000
46.82000 75.000
46.83500 79.000
46.85000 80.000
46.86500 75.000
46.88000 79.000
46.89500 94.000
46.91000 90.000
46.92500 85.000
46.94000 87.000
46.95500 78.000
46.97000 91.000
46.98500 76.000
47.00000 83.000
47.01500 84.000
47.03000 93.000
47.04500 79.000
47.06000 84.000
47.07500 96.000
47.09000 99.000
47.10500 83.000
47.12000 94.000
47.13500 84.000
47.15000 91.000
47.16500 89.000
47.18000 101.000
47.19500 94.000
47.21000 80.000
47.22500 88.000
47.24000 81.000
47.25500 69.000
47.27000 76.000
47.28500 77.000
47.30000 91.000
47.31500 100.000
47.33000 81.000
47.34500 81.000
47.36000 72.000
47.37500 86.000
47.39000 93.000
47.40500 87.000
47.42000 77.000
47.43500 87.000
47.45000 80.000
47.46500 80.000
47.48000 81.000
47.49500 81.000
47.51000 84.000
47.52500 87.000
47.54000 88.000
47.55500 88.000
47.57000 88.000
47.58500 88.000
47.60000 91.000
47.61500 82.000
47.63000 73.000
47.64500 82.000
47.66000 81.000
47.67500 75.000
47.69000 78.000
47.70500 78.000
47.72000 83.000
47.73500 91.000
47.75000 71.000
47.76500 74.000
47.78000 81.000
47.79500 86.000
47.81000 73.000
47.82500 84.000
47.84000 84.000
47.85500 92.000
47.87000 70.000
47.88500 84.000
47.90000 88.000
47.91500 86.000
47.93000 88.000
47.94500 94.000
47.96000 92.000
47.97500 81.000
47.99000 73.000
48.00500 79.000
48.02000 76.000
48.03500 81.000
48.05000 93.000
48.06500 88.000
48.08000 79.000
48.09500 75.000
48.11000 95.000
48.12500 91.000
48.14000 87.000
48.15500 98.000
48.17000 89.000
48.18500 84.000
48.20000 74.000
48.21500 82.000
48.23000 85.000
48.24500 90.000
48.26000 77.000
48.27500 84.000
48.29000 94.000
48.30500 91.000
48.32000 90.000
48.33500 89.000
48.35000 79.000
48.36500 79.000
48.38000 85.000
48.39500 97.000
48.41000 87.000
48.42500 73.000
48.44000 84.000
48.45500 74.000
48.47000 73.000
48.48500 72.000
48.50000 74.000
48.51500 82.000
48.53000 93.000
48.54500 102.000
48.56000 90.000
48.57500 85.000
48.59000 80.000
48.60500 83.000
48.62000 79.000
48.63500 80.000
48.65000 87.000
48.66500 83.000
48.68000 74.000
48.69500 84.000
48.71000 77.000
48.72500 82.000
48.74000 77.000
48.75500 75.000
48.77000 84.000
48.78500 74.000
48.80000 84.000
48.81500 80.000
48.83000 90.000
48.84500 84.000
48.86000 76.000
48.87500 74.000
48.89000 87.000
48.90500 82.000
48.92000 77.000
48.93500 78.000
48.95000 78.000
48.96500 71.000
48.98000 80.000
48.99500 87.000
49.01000 102.000
49.02500 94.000
49.04000 90.000
49.05500 79.000
49.07000 70.000
49.08500 72.000
49.10000 85.000
49.11500 76.000
49.13000 71.000
49.14500 84.000
49.16000 81.000
49.17500 82.000
49.19000 97.000
49.20500 92.000
49.22000 86.000
49.23500 74.000
49.25000 76.000
49.26500 70.000
49.28000 74.000
49.29500 90.000
49.31000 79.000
49.32500 72.000
49.34000 79.000
49.35500 85.000
49.37000 79.000
49.38500 81.000
49.40000 77.000
49.41500 76.000
49.43000 87.000
49.44500 72.000
49.46000 86.000
49.47500 90.000
49.49000 84.000
49.50500 92.000
49.52000 97.000
49.53500 82.000
49.55000 79.000
49.56500 83.000
49.58000 80.000
49.59500 68.000
49.61000 76.000
49.62500 81.000
49.64000 86.000
49.65500 82.000
49.67000 89.000
49.68500 84.000
49.70000 78.000
49.71500 77.000
49.73000 74.000
49.74500 79.000
49.76000 78.000
49.77500 92.000
49.79000 85.000
49.80500 86.000
49.82000 82.000
49.83500 84.000
49.85000 85.000
49.86500 69.000
49.88000 78.000
49.89500 82.000
49.91000 74.000
49.92500 76.000
49.94000 73.000
49.95500 82.000
49.97000 76.000
49.98500 82.000
50.00000 67.000
50.01500 81.000
50.03000 74.000
50.04500 80.000
50.06000 82.000
50.07500 75.000
50.09000 79.000
50.10500 79.000
50.12000 85.000
50.13500 90.000
50.15000 78.000
50.16500 81.000
50.18000 83.000
50.19500 82.000
50.21000 84.000
50.22500 90.000
50.24000 70.000
50.25500 80.000
50.27000 75.000
50.28500 67.000
50.30000 67.000
50.31500 77.000
50.33000 68.000
50.34500 68.000
50.36000 74.000
50.37500 83.000
50.39000 69.000
50.40500 85.000
50.42000 84.000
50.43500 93.000
50.45000 71.000
50.46500 67.000
50.48000 77.000
50.49500 84.000
50.51000 88.000
50.52500 90.000
50.54000 77.000
50.55500 75.000
50.57000 79.000
50.58500 80.000
50.60000 83.000
50.61500 87.000
50.63000 75.000
50.64500 78.000
50.66000 84.000
50.67500 76.000
50.69000 87.000
50.70500 86.000
50.72000 85.000
50.73500 79.000
50.75000 73.000
50.76500 81.000
50.78000 89.000
50.79500 74.000
50.81000 87.000
50.82500 78.000
50.84000 72.000
50.85500 80.000
50.87000 76.000
50.88500 91.000
50.90000 77.000
50.91500 65.000
50.93000 71.000
50.94500 72.000
50.96000 80.000
50.97500 83.000
50.99000 77.000
51.00500 74.000
51.02000 83.000
51.03500 80.000
51.05000 78.000
51.06500 78.000
51.08000 81.000
51.09500 86.000
51.11000 88.000
51.12500 84.000
51.14000 86.000
51.15500 79.000
51.17000 77.000
51.18500 72.000
51.20000 66.000
51.21500 100.000
51.23000 87.000
51.24500 78.000
51.26000 73.000
51.27500 84.000
51.29000 72.000
51.30500 79.000
51.32000 83.000
51.33500 68.000
51.35000 70.000
51.36500 78.000
51.38000 76.000
51.39500 74.000
51.41000 81.000
51.42500 79.000
51.44000 78.000
51.45500 87.000
51.47000 77.000
51.48500 90.000
51.50000 81.000
51.51500 92.000
51.53000 82.000
51.54500 76.000
51.56000 69.000
51.57500 81.000
51.59000 77.000
51.60500 84.000
51.62000 74.000
51.63500 75.000
51.65000 71.000
51.66500 64.000
51.68000 76.000
51.69500 79.000
51.71000 72.000
51.72500 84.000
51.74000 90.000
51.75500 85.000
51.77000 81.000
51.78500 86.000
51.80000 74.000
51.81500 89.000
51.83000 78.000
51.84500 71.000
51.86000 81.000
51.87500 78.000
51.89000 94.000
51.90500 77.000
51.92000 72.000
51.93500 95.000
51.95000 77.000
51.96500 74.000
51.98000 73.000
51.99500 77.000
52.01000 87.000
52.02500 90.000
52.04000 84.000
52.05500 71.000
52.07000 76.000
52.08500 84.000
52.10000 92.000
52.11500 74.000
52.13000 70.000
52.14500 80.000
52.16000 70.000
52.17500 84.000
52.19000 80.000
52.20500 75.000
52.22000 79.000
52.23500 78.000
52.25000 82.000
52.26500 60.000
52.28000 72.000
52.29500 70.000
52.31000 68.000
52.32500 85.000
52.34000 65.000
52.35500 74.000
52.37000 83.000
52.38500 78.000
52.40000 72.000
52.41500 65.000
52.43000 61.000
52.44500 69.000
52.46000 72.000
52.47500 63.000
52.49000 93.000
52.50500 87.000
52.52000 90.000
52.53500 88.000
52.55000 82.000
52.56500 75.000
52.58000 82.000
52.59500 91.000
52.61000 87.000
52.62500 77.000
52.64000 84.000
52.65500 81.000
52.67000 77.000
52.68500 91.000
52.70000 83.000
52.71500 77.000
52.73000 82.000
52.74500 69.000
52.76000 84.000
52.77500 74.000
52.79000 88.000
52.80500 68.000
52.82000 73.000
52.83500 74.000
52.85000 78.000
52.86500 86.000
52.88000 86.000
52.89500 71.000
52.91000 85.000
52.92500 90.000
52.94000 83.000
52.95500 80.000
52.97000 77.000
52.98500 78.000
53.00000 74.000
53.01500 69.000
53.03000 75.000
53.04500 79.000
53.06000 81.000
53.07500 76.000
53.09000 94.000
53.10500 83.000
53.12000 76.000
53.13500 70.000
53.15000 82.000
53.16500 81.000
53.18000 77.000
53.19500 65.000
53.21000 80.000
53.22500 74.000
53.24000 87.000
53.25500 74.000
53.27000 94.000
53.28500 86.000
53.30000 90.000
53.31500 83.000
53.33000 73.000
53.34500 67.000
53.36000 77.000
53.37500 76.000
53.39000 80.000
53.40500 82.000
53.42000 73.000
53.43500 75.000
53.45000 75.000
53.46500 87.000
53.48000 72.000
53.49500 68.000
53.51000 81.000
53.52500 71.000
53.54000 91.000
53.55500 83.000
53.57000 63.000
53.58500 82.000
53.60000 92.000
53.61500 81.000
53.63000 83.000
53.64500 86.000
53.66000 90.000
53.67500 79.000
53.69000 74.000
53.70500 74.000
53.72000 80.000
53.73500 88.000
53.75000 73.000
53.76500 83.000
53.78000 90.000
53.79500 83.000
53.81000 84.000
53.82500 86.000
53.84000 84.000
53.85500 79.000
53.87000 81.000
53.88500 73.000
53.90000 83.000
53.91500 79.000
53.93000 87.000
53.94500 91.000
53.96000 80.000
53.97500 84.000
53.99000 89.000
54.00500 89.000
54.02000 76.000
54.03500 74.000
54.05000 70.000
54.06500 62.000
54.08000 82.000
54.09500 71.000
54.11000 90.000
54.12500 75.000
54.14000 73.000
54.15500 77.000
54.17000 84.000
54.18500 71.000
54.20000 75.000
54.21500 86.000
54.23000 91.000
54.24500 79.000
54.26000 78.000
54.27500 74.000
54.29000 76.000
54.30500 93.000
54.32000 83.000
54.33500 83.000
54.35000 79.000
54.36500 80.000
54.38000 88.000
54.39500 92.000
54.41000 92.000
54.42500 83.000
54.44000 80.000
54.45500 73.000
54.47000 79.000
54.48500 85.000
54.50000 71.000
54.51500 81.000
54.53000 80.000
54.54500 76.000
54.56000 79.000
54.57500 76.000
54.59000 89.000
54.60500 74.000
54.62000 67.000
54.63500 66.000
54.65000 81.000
54.66500 78.000
54.68000 83.000
54.69500 76.000
54.71000 81.000
54.72500 76.000
54.74000 63.000
54.75500 70.000
54.77000 75.000
54.78500 77.000
54.80000 85.000
54.81500 62.000
54.83000 77.000
54.84500 82.000
54.86000 82.000
54.87500 83.000
54.89000 76.000
54.90500 73.000
54.92000 68.000
54.93500 78.000
54.95000 70.000
54.96500 82.000
54.98000 71.000
54.99500 84.000
55.01000 85.000
55.02500 72.000
55.04000 75.000
55.05500 63.000
55.07000 72.000
55.08500 89.000
55.10000 85.000
55.11500 92.000
55.13000 77.000
55.14500 83.000
55.16000 93.000
55.17500 91.000
55.19000 70.000
55.20500 71.000
55.22000 74.000
55.23500 79.000
55.25000 74.000
55.26500 75.000
55.28000 83.000
55.29500 67.000
55.31000 75.000
55.32500 77.000
55.34000 80.000
55.35500 78.000
55.37000 80.000
55.38500 83.000
55.40000 75.000
55.41500 73.000
55.43000 66.000
55.44500 73.000
55.46000 81.000
55.47500 80.000
55.49000 72.000
55.50500 65.000
55.52000 69.000
55.53500 75.000
55.55000 73.000
55.56500 84.000
55.58000 79.000
55.59500 75.000
55.61000 88.000
55.62500 77.000
55.64000 77.000
55.65500 68.000
55.67000 76.000
55.68500 82.000
55.70000 79.000
55.71500 69.000
55.73000 76.000
55.74500 95.000
55.76000 65.000
55.77500 64.000
55.79000 71.000
55.80500 77.000
55.82000 76.000
55.83500 62.000
55.85000 69.000
55.86500 74.000
55.88000 70.000
55.89500 72.000
55.91000 84.000
55.92500 76.000
55.94000 66.000
55.95500 69.000
55.97000 81.000
55.98500 73.000
56.00000 80.000
56.01500 67.000
56.03000 76.000
56.04500 73.000
56.06000 79.000
56.07500 81.000
56.09000 76.000
56.10500 74.000
56.12000 73.000
56.13500 78.000
56.15000 73.000
56.16500 75.000
56.18000 66.000
56.19500 76.000
56.21000 82.000
56.22500 73.000
56.24000 73.000
56.25500 93.000
56.27000 81.000
56.28500 75.000
56.30000 76.000
56.31500 72.000
56.33000 91.000
56.34500 90.000
56.36000 83.000
56.37500 74.000
56.39000 85.000
56.40500 91.000
56.42000 83.000
56.43500 71.000
56.45000 65.000
56.46500 79.000
56.48000 76.000
56.49500 60.000
56.51000 60.000
56.52500 74.000
56.54000 68.000
56.55500 73.000
56.57000 79.000
56.58500 76.000
56.60000 81.000
56.61500 77.000
56.63000 77.000
56.64500 81.000
56.66000 83.000
56.67500 78.000
56.69000 67.000
56.70500 80.000
56.72000 85.000
56.73500 74.000
56.75000 76.000
56.76500 73.000
56.78000 79.000
56.79500 69.000
56.81000 74.000
56.82500 82.000
56.84000 67.000
56.85500 59.000
56.87000 82.000
56.88500 74.000
56.90000 74.000
56.91500 80.000
56.93000 89.000
56.94500 61.000
56.96000 66.000
56.97500 80.000
56.99000 89.000
57.00500 70.000
57.02000 53.000
57.03500 73.000
57.05000 74.000
57.06500 81.000
57.08000 76.000
57.09500 79.000
57.11000 87.000
57.12500 84.000
57.14000 62.000
57.15500 76.000
57.17000 77.000
57.18500 74.000
57.20000 77.000
57.21500 69.000
57.23000 71.000
57.24500 73.000
57.26000 67.000
57.27500 88.000
57.29000 86.000
57.30500 75.000
57.32000 86.000
57.33500 83.000
57.35000 77.000
57.36500 76.000
57.38000 90.000
57.39500 68.000
57.41000 81.000
57.42500 80.000
57.44000 85.000
57.45500 68.000
57.47000 85.000
57.48500 79.000
57.50000 77.000
57.51500 74.000
57.53000 69.000
57.54500 63.000
57.56000 73.000
57.57500 72.000
57.59000 89.000
57.60500 66.000
57.62000 73.000
57.63500 72.000
57.65000 70.000
57.66500 78.000
57.68000 73.000
57.69500 79.000
57.71000 73.000
57.72500 89.000
57.74000 83.000
57.75500 78.000
57.77000 73.000
57.78500 80.000
57.80000 71.000
57.81500 80.000
57.83000 85.000
57.84500 64.000
57.86000 66.000
57.87500 74.000
57.89000 71.000
57.90500 74.000
57.92000 68.000
57.93500 77.000
57.95000 64.000
57.96500 67.000
57.98000 76.000
57.99500 73.000
58.01000 81.000
58.02500 72.000
58.04000 63.000
58.05500 78.000
58.07000 77.000
58.08500 53.000
58.10000 69.000
58.11500 69.000
58.13000 71.000
58.14500 60.000
58.16000 73.000
58.17500 70.000
58.19000 65.000
58.20500 84.000
58.22000 72.000
58.23500 70.000
58.25000 74.000
58.26500 69.000
58.28000 62.000
58.29500 81.000
58.31000 70.000
58.32500 80.000
58.34000 80.000
58.35500 69.000
58.37000 86.000
58.38500 84.000
58.40000 68.000
58.41500 71.000
58.43000 82.000
58.44500 71.000
58.46000 78.000
58.47500 72.000
58.49000 69.000
58.50500 74.000
58.52000 77.000
58.53500 82.000
58.55000 69.000
58.56500 66.000
58.58000 70.000
58.59500 67.000
58.61000 74.000
58.62500 70.000
58.64000 68.000
58.65500 70.000
58.67000 83.000
58.68500 70.000
58.70000 70.000
58.71500 73.000
58.73000 79.000
58.74500 86.000
58.76000 79.000
58.77500 81.000
58.79000 79.000
58.80500 71.000
58.82000 69.000
58.83500 64.000
58.85000 66.000
58.86500 78.000
58.88000 79.000
58.89500 67.000
58.91000 63.000
58.92500 77.000
58.94000 76.000
58.95500 68.000
58.97000 80.000
58.98500 80.000
59.00000 71.000
59.01500 62.000
59.03000 73.000
59.04500 66.000
59.06000 68.000
59.07500 83.000
59.09000 73.000
59.10500 62.000
59.12000 63.000
59.13500 78.000
59.15000 69.000
59.16500 76.000
59.18000 71.000
59.19500 80.000
59.21000 73.000
59.22500 76.000
59.24000 65.000
59.25500 83.000
59.27000 71.000
59.28500 72.000
59.30000 72.000
59.31500 70.000
59.33000 70.000
59.34500 80.000
59.36000 79.000
59.37500 71.000
59.39000 80.000
59.40500 69.000
59.42000 68.000
59.43500 69.000
59.45000 83.000
59.46500 82.000
59.48000 73.000
59.49500 67.000
59.51000 62.000
59.52500 78.000
59.54000 69.000
59.55500 79.000
59.57000 62.000
59.58500 70.000
59.60000 65.000
59.61500 75.000
59.63000 86.000
59.64500 67.000
59.66000 71.000
59.67500 75.000
59.69000 76.000
59.70500 73.000
59.72000 70.000
59.73500 65.000
59.75000 67.000
59.76500 81.000
59.78000 90.000
59.79500 79.000
59.81000 81.000
59.82500 82.000
59.84000 78.000
59.85500 79.000
59.87000 68.000
59.88500 73.000
59.90000 71.000
59.91500 63.000
59.93000 72.000
59.94500 75.000
59.96000 69.000
59.97500 79.000
59.99000 64.000
60.00500 76.000
60.02000 76.000
60.03500 74.000
60.05000 74.000
60.06500 72.000
60.08000 74.000
60.09500 76.000
60.11000 72.000
60.12500 60.000
60.14000 64.000
60.15500 66.000
60.17000 76.000
60.18500 69.000
60.20000 68.000
60.21500 68.000
60.23000 82.000
60.24500 76.000
60.26000 67.000
60.27500 60.000
60.29000 74.000
60.30500 66.000
60.32000 65.000
60.33500 73.000
60.35000 74.000
60.36500 65.000
60.38000 64.000
60.39500 73.000
60.41000 77.000
60.42500 75.000
60.44000 64.000
60.45500 64.000
60.47000 66.000
60.48500 72.000
60.50000 72.000
60.51500 80.000
60.53000 77.000
60.54500 74.000
60.56000 56.000
60.57500 62.000
60.59000 76.000
60.60500 78.000
60.62000 85.000
60.63500 65.000
60.65000 70.000
60.66500 63.000
60.68000 75.000
60.69500 75.000
60.71000 65.000
60.72500 67.000
60.74000 64.000
60.75500 71.000
60.77000 68.000
60.78500 56.000
60.80000 67.000
60.81500 59.000
60.83000 72.000
60.84500 86.000
60.86000 68.000
60.87500 78.000
60.89000 78.000
60.90500 75.000
60.92000 63.000
60.93500 70.000
60.95000 69.000
60.96500 63.000
60.98000 65.000
60.99500 60.000
61.01000 68.000
61.02500 77.000
61.04000 76.000
61.05500 74.000
61.07000 71.000
61.08500 85.000
61.10000 79.000
61.11500 68.000
61.13000 67.000
61.14500 71.000
61.16000 72.000
61.17500 82.000
61.19000 90.000
61.20500 68.000
61.22000 66.000
61.23500 74.000
61.25000 89.000
61.26500 74.000
61.28000 70.000
61.29500 73.000
61.31000 68.000
61.32500 64.000
61.34000 62.000
61.35500 68.000
61.37000 72.000
61.38500 80.000
61.40000 77.000
61.41500 76.000
61.43000 77.000
61.44500 65.000
61.46000 73.000
61.47500 60.000
61.49000 66.000
61.50500 60.000
61.52000 63.000
61.53500 68.000
61.55000 69.000
61.56500 68.000
61.58000 72.000
61.59500 66.000
61.61000 72.000
61.62500 76.000
61.64000 66.000
61.65500 70.000
61.67000 67.000
61.68500 59.000
61.70000 54.000
61.71500 62.000
61.73000 73.000
61.74500 67.000
61.76000 68.000
61.77500 66.000
61.79000 62.000
61.80500 66.000
61.82000 74.000
61.83500 74.000
61.85000 83.000
61.86500 80.000
61.88000 75.000
61.89500 70.000
61.91000 78.000
61.92500 80.000
61.94000 69.000
61.95500 67.000
61.97000 71.000
61.98500 69.000
