2.0 8.0
2.015 6.0
2.03 5.0
2.045 6.0
2.06 3.0
2.075 3.0
2.09 4.0
2.105 7.0
2.12 5.0
2.135 6.0
2.15 4.0
2.165 7.0
2.18 7.0
2.195 8.0
2.21 8.0
2.225 5.0
2.24 5.0
2.255 4.0
2.27 1.0
2.285 6.0
2.3 2.0
2.315 1.0
2.33 4.0
2.345 5.0
2.36 8.0
2.375 6.0
2.39 4.0
2.405 4.0
2.42 8.0
2.435 6.0
2.45 10.0
2.465 8.0
2.48 6.0
2.495 8.0
2.51 4.0
2.525 8.0
2.54 9.0
2.555 4.0
2.57 7.0
2.585 8.0
2.6 5.0
2.615 5.0
2.63 5.0
2.645 6.0
2.66 5.0
2.675 7.0
2.69 10.0
2.705 6.0
2.72 9.0
2.735 11.0
2.75 6.0
2.765 5.0
2.78 5.0
2.795 6.0
2.81 5.0
2.825 7.0
2.84 10.0
2.855 6.0
2.87 7.0
2.885 6.0
2.9 5.0
2.915 4.0
2.93 6.0
2.945 6.0
2.96 4.0
2.975 4.0
2.99 11.0
3.005 12.0
3.02 27.0
3.035 38.0
3.05 34.0
3.065 52.0
3.08 87.0
3.095 124.0
3.11 202.0
3.125 258.0
3.14 315.0
3.155 361.0
3.17 422.0
3.185 445.0
3.2 460.0
3.215 452.0
3.23 468.0
3.245 488.0
3.26 469.0
3.275 432.0
3.29 434.0
3.305 451.0
3.32 452.0
3.335 459.0
3.35 462.0
3.365 437.0
3.38 434.0
3.395 434.0
3.41 427.0
3.425 419.0
3.44 416.0
3.455 412.0
3.47 432.0
3.485 440.0
3.5 444.0
3.515 418.0
3.53 400.0
3.545 409.0
3.56 413.0
3.575 385.0
3.59 371.0
3.605 389.0
3.62 371.0
3.635 415.0
3.65 396.0
3.665 396.0
3.68 379.0
3.695 377.0
3.71 364.0
3.725 392.0
3.74 400.0
3.755 380.0
3.77 388.0
3.785 379.0
3.8 381.0
3.815 402.0
3.83 371.0
3.845 386.0
3.86 378.0
3.875 373.0
3.89 363.0
3.905 382.0
3.92 375.0
3.935 387.0
3.95 375.0
3.965 376.0
3.98 379.0
3.995 370.0
4.01 364.0
4.025 377.0
4.04 381.0
4.055 376.0
4.07 368.0
4.085 353.0
4.1 351.0
4.115 354.0
4.13 367.0
4.145 373.0
4.16 361.0
4.175 366.0
4.19 353.0
4.205 342.0
4.22 356.0
4.235 366.0
4.25 366.0
4.265 335.0
4.28 331.0
4.295 388.0
4.31 364.0
4.325 340.0
4.34 325.0
4.355 347.0
4.37 353.0
4.385 361.0
4.4 372.0
4.415 359.0
4.43 356.0
4.445 378.0
4.46 373.0
4.475 353.0
4.49 353.0
4.505 340.0
4.52 347.0
4.535 355.0
4.55 337.0
4.565 374.0
4.58 347.0
4.595 349.0
4.61 355.0
4.625 329.0
4.64 342.0
4.655 378.0
4.67 357.0
4.685 351.0
4.7 349.0
4.715 332.0
4.73 347.0
4.745 334.0
4.76 339.0
4.775 355.0
4.79 358.0
4.805 367.0
4.82 352.0
4.835 340.0
4.85 358.0
4.865 337.0
4.88 323.0
4.895 355.0
4.91 349.0
4.925 370.0
4.94 345.0
4.955 351.0
4.97 352.0
4.985 356.0
5.0 332.0
5.015 352.0
5.03 379.0
5.045 366.0
5.06 370.0
5.075 327.0
5.09 355.0
5.105 349.0
5.12 353.0
5.135 320.0
5.15 330.0
5.165 379.0
5.18 373.0
5.195 381.0
5.21 362.0
5.225 373.0
5.24 375.0
5.255 373.0
5.27 354.0
5.285 348.0
5.3 355.0
5.315 341.0
5.33 322.0
5.345 330.0
5.36 362.0
5.375 363.0
5.39 357.0
5.405 385.0
5.42 374.0
5.435 339.0
5.45 331.0
5.465 345.0
5.48 333.0
5.495 324.0
5.51 363.0
5.525 356.0
5.54 345.0
5.555 347.0
5.57 335.0
5.585 344.0
5.6 363.0
5.615 375.0
5.63 369.0
5.645 358.0
5.66 346.0
5.675 334.0
5.69 375.0
5.705 351.0
5.72 360.0
5.735 368.0
5.75 361.0
5.765 377.0
5.78 378.0
5.795 359.0
5.81 349.0
5.825 373.0
5.84 356.0
5.855 381.0
5.87 348.0
5.885 335.0
5.9 335.0
5.915 391.0
5.93 387.0
5.945 371.0
5.96 379.0
5.975 381.0
5.99 343.0
6.005 345.0
6.02 357.0
6.035 345.0
6.05 334.0
6.065 349.0
6.08 352.0
6.095 379.0
6.11 378.0
6.125 380.0
6.14 358.0
6.155 344.0
6.17 345.0
6.185 347.0
6.2 360.0
6.215 390.0
6.23 357.0
6.245 369.0
6.26 371.0
6.275 368.0
6.29 346.0
6.305 351.0
6.32 389.0
6.335 385.0
6.35 382.0
6.365 354.0
6.38 381.0
6.395 369.0
6.41 353.0
6.425 333.0
6.44 365.0
6.455 364.0
6.47 353.0
6.485 359.0
6.5 372.0
6.515 403.0
6.53 358.0
6.545 361.0
6.56 345.0
6.575 356.0
6.59 400.0
6.605 378.0
6.62 361.0
6.635 372.0
6.65 359.0
6.665 401.0
6.68 373.0
6.695 373.0
6.71 373.0
6.725 387.0
6.74 379.0
6.755 363.0
6.77 393.0
6.785 382.0
6.8 407.0
6.815 403.0
6.83 370.0
6.845 385.0
6.86 368.0
6.875 365.0
6.89 355.0
6.905 403.0
6.92 383.0
6.935 388.0
6.95 378.0
6.965 378.0
6.98 378.0
6.995 388.0
7.01 405.0
7.025 429.0
7.04 391.0
7.055 390.0
7.07 384.0
7.085 402.0
7.1 406.0
7.115 408.0
7.13 400.0
7.145 379.0
7.16 381.0
7.175 387.0
7.19 391.0
7.205 373.0
7.22 365.0
7.235 393.0
7.25 359.0
7.265 371.0
7.28 395.0
7.295 375.0
7.31 386.0
7.325 378.0
7.34 395.0
7.355 370.0
7.37 358.0
7.385 381.0
7.4 412.0
7.415 397.0
7.43 389.0
7.445 390.0
7.46 411.0
7.475 408.0
7.49 428.0
7.505 412.0
7.52 385.0
7.535 396.0
7.55 416.0
7.565 399.0
7.58 416.0
7.595 435.0
7.61 417.0
7.625 406.0
7.64 398.0
7.655 416.0
7.67 432.0
7.685 387.0
7.7 404.0
7.715 441.0
7.73 427.0
7.745 459.0
7.76 429.0
7.775 411.0
7.79 438.0
7.805 440.0
7.82 449.0
7.835 420.0
7.85 392.0
7.865 399.0
7.88 422.0
7.895 413.0
7.91 386.0
7.925 383.0
7.94 383.0
7.955 407.0
7.97 411.0
7.985 409.0
8.0 403.0
8.015 423.0
8.03 407.0
8.045 408.0
8.06 398.0
8.075 394.0
8.09 395.0
8.105 406.0
8.12 408.0
8.135 428.0
8.15 396.0
8.165 397.0
8.18 458.0
8.195 427.0
8.21 414.0
8.225 441.0
8.24 418.0
8.255 429.0
8.27 431.0
8.285 456.0
8.3 437.0
8.315 436.0
8.33 456.0
8.345 461.0
8.36 423.0
8.375 432.0
8.39 429.0
8.405 460.0
8.42 452.0
8.435 444.0
8.45 473.0
8.465 488.0
8.48 488.0
8.495 492.0
8.51 508.0
8.525 515.0
8.54 511.0
8.555 506.0
8.57 524.0
8.585 513.0
8.6 508.0
8.615 526.0
8.63 524.0
8.645 524.0
8.66 560.0
8.675 568.0
8.69 574.0
8.705 667.0
8.72 640.0
8.735 695.0
8.75 758.0
8.765 816.0
8.78 876.0
8.795 986.0
8.81 1070.0
8.825 1162.0
8.84 1260.0
8.855 1447.0
8.87 1647.0
8.885 1899.0
8.9 2161.0
8.915 2376.0
8.93 2818.0
8.945 3271.0
8.96 3986.0
8.975 4957.0
8.99 5973.0
9.005 6576.0
9.02 6429.0
9.035 5242.0
9.05 3358.0
9.065 2016.0
9.08 1315.0
9.095 1016.0
9.11 878.0
9.125 747.0
9.14 692.0
9.155 672.0
9.17 566.0
9.185 561.0
9.2 540.0
9.215 531.0
9.23 522.0
9.245 492.0
9.26 479.0
9.275 455.0
9.29 459.0
9.305 498.0
9.32 463.0
9.335 488.0
9.35 479.0
9.365 456.0
9.38 457.0
9.395 453.0
9.41 488.0
9.425 460.0
9.44 448.0
9.455 451.0
9.47 444.0
9.485 454.0
9.5 430.0
9.515 429.0
9.53 427.0
9.545 421.0
9.56 447.0
9.575 428.0
9.59 448.0
9.605 431.0
9.62 441.0
9.635 447.0
9.65 438.0
9.665 430.0
9.68 409.0
9.695 429.0
9.71 468.0
9.725 459.0
9.74 454.0
9.755 408.0
9.77 400.0
9.785 408.0
9.8 438.0
9.815 455.0
9.83 438.0
9.845 428.0
9.86 448.0
9.875 441.0
9.89 442.0
9.905 433.0
9.92 472.0
9.935 479.0
9.95 408.0
9.965 427.0
9.98 471.0
9.995 444.0
10.01 409.0
10.025 439.0
10.04 463.0
10.055 429.0
10.07 441.0
10.085 465.0
10.1 458.0
10.115 455.0
10.13 459.0
10.145 470.0
10.16 432.0
10.175 472.0
10.19 498.0
10.205 494.0
10.22 510.0
10.235 569.0
10.25 574.0
10.265 613.0
10.28 619.0
10.295 634.0
10.31 696.0
10.325 741.0
10.34 836.0
10.355 910.0
10.37 975.0
10.385 1064.0
10.4 1198.0
10.415 1380.0
10.43 1607.0
10.445 1872.0
10.46 2215.0
10.475 2498.0
10.49 2912.0
10.505 3476.0
10.52 4161.0
10.535 5151.0
10.55 5652.0
10.565 5633.0
10.58 4545.0
10.595 3119.0
10.61 2083.0
10.625 1486.0
10.64 1169.0
10.655 966.0
10.67 859.0
10.685 758.0
10.7 700.0
10.715 668.0
10.73 625.0
10.745 607.0
10.76 650.0
10.775 652.0
10.79 667.0
10.805 706.0
10.82 698.0
10.835 614.0
10.85 525.0
10.865 495.0
10.88 479.0
10.895 479.0
10.91 473.0
10.925 447.0
10.94 495.0
10.955 505.0
10.97 470.0
10.985 462.0
11.0 471.0
11.015 457.0
11.03 428.0
11.045 448.0
11.06 448.0
11.075 475.0
11.09 495.0
11.105 488.0
11.12 497.0
11.135 467.0
11.15 500.0
11.165 490.0
11.18 486.0
11.195 509.0
11.21 533.0
11.225 544.0
11.24 511.0
11.255 506.0
11.27 561.0
11.285 525.0
11.3 564.0
11.315 584.0
11.33 573.0
11.345 611.0
11.36 635.0
11.375 671.0
11.39 734.0
11.405 804.0
11.42 831.0
11.435 873.0
11.45 933.0
11.465 1063.0
11.48 1177.0
11.495 1350.0
11.51 1564.0
11.525 1733.0
11.54 1980.0
11.555 2372.0
11.57 2709.0
11.585 3233.0
11.6 3793.0
11.615 4433.0
11.63 5427.0
11.645 6603.0
11.66 8095.0
11.675 9553.0
11.69 10202.0
11.705 8735.0
11.72 6477.0
11.735 4644.0
11.75 3174.0
11.765 2535.0
11.78 1993.0
11.795 1747.0
11.81 1467.0
11.825 1388.0
11.84 1249.0
11.855 1091.0
11.87 994.0
11.885 979.0
11.9 942.0
11.915 830.0
11.93 791.0
11.945 748.0
11.96 753.0
11.975 733.0
11.99 714.0
12.005 657.0
12.02 630.0
12.035 596.0
12.05 575.0
12.065 552.0
12.08 555.0
12.095 534.0
12.11 528.0
12.125 551.0
12.14 527.0
12.155 511.0
12.17 497.0
12.185 510.0
12.2 513.0
12.215 490.0
12.23 506.0
12.245 488.0
12.26 491.0
12.275 491.0
12.29 525.0
12.305 512.0
12.32 518.0
12.335 536.0
12.35 550.0
12.365 561.0
12.38 570.0
12.395 524.0
12.41 476.0
12.425 450.0
12.44 463.0
12.455 468.0
12.47 474.0
12.485 462.0
12.5 474.0
12.515 467.0
12.53 458.0
12.545 466.0
12.56 452.0
12.575 447.0
12.59 478.0
12.605 459.0
12.62 446.0
12.635 446.0
12.65 453.0
12.665 419.0
12.68 430.0
12.695 430.0
12.71 473.0
12.725 469.0
12.74 507.0
12.755 539.0
12.77 550.0
12.785 559.0
12.8 586.0
12.815 636.0
12.83 698.0
12.845 800.0
12.86 893.0
12.875 1017.0
12.89 1150.0
12.905 1340.0
12.92 1569.0
12.935 1849.0
12.95 2280.0
12.965 2871.0
12.98 3757.0
12.995 4851.0
13.01 6007.0
13.025 5970.0
13.04 4399.0
13.055 2639.0
13.07 1701.0
13.085 1161.0
13.1 951.0
13.115 887.0
13.13 858.0
13.145 834.0
13.16 684.0
13.175 595.0
13.19 629.0
13.205 676.0
13.22 699.0
13.235 762.0
13.25 832.0
13.265 888.0
13.28 964.0
13.295 1144.0
13.31 1354.0
13.325 1714.0
13.34 2041.0
13.355 2494.0
13.37 2966.0
13.385 3534.0
13.4 3722.0
13.415 3069.0
13.43 1852.0
13.445 1072.0
13.46 702.0
13.475 589.0
13.49 517.0
13.505 507.0
13.52 466.0
13.535 452.0
13.55 443.0
13.565 453.0
13.58 434.0
13.595 436.0
13.61 419.0
13.625 421.0
13.64 407.0
13.655 418.0
13.67 441.0
13.685 410.0
13.7 433.0
13.715 463.0
13.73 452.0
13.745 426.0
13.76 414.0
13.775 439.0
13.79 408.0
13.805 430.0
13.82 426.0
13.835 418.0
13.85 439.0
13.865 434.0
13.88 455.0
13.895 461.0
13.91 468.0
13.925 522.0
13.94 529.0
13.955 596.0
13.97 606.0
13.985 654.0
14.0 591.0
14.015 564.0
14.03 492.0
14.045 490.0
14.06 461.0
14.075 423.0
14.09 419.0
14.105 411.0
14.12 410.0
14.135 417.0
14.15 408.0
14.165 424.0
14.18 445.0
14.195 434.0
14.21 434.0
14.225 411.0
14.24 449.0
14.255 422.0
14.27 419.0
14.285 441.0
14.3 408.0
14.315 408.0
14.33 405.0
14.345 417.0
14.36 445.0
14.375 436.0
14.39 410.0
14.405 443.0
14.42 405.0
14.435 441.0
14.45 433.0
14.465 425.0
14.48 433.0
14.495 399.0
14.51 438.0
14.525 427.0
14.54 423.0
14.555 434.0
14.57 448.0
14.585 454.0
14.6 449.0
14.615 452.0
14.63 432.0
14.645 447.0
14.66 465.0
14.675 446.0
14.69 473.0
14.705 482.0
14.72 512.0
14.735 539.0
14.75 530.0
14.765 562.0
14.78 652.0
14.795 720.0
14.81 753.0
14.825 870.0
14.84 1019.0
14.855 1238.0
14.87 1387.0
14.885 1696.0
14.9 2046.0
14.915 2535.0
14.93 3214.0
14.945 4113.0
14.96 5433.0
14.975 7171.0
14.99 8324.0
15.005 7777.0
15.02 5481.0
15.035 3313.0
15.05 1780.0
15.065 1152.0
15.08 864.0
15.095 720.0
15.11 628.0
15.125 602.0
15.14 549.0
15.155 538.0
15.17 474.0
15.185 473.0
15.2 477.0
15.215 452.0
15.23 452.0
15.245 499.0
15.26 448.0
15.275 478.0
15.29 481.0
15.305 455.0
15.32 459.0
15.335 478.0
15.35 455.0
15.365 488.0
15.38 496.0
15.395 513.0
15.41 522.0
15.425 530.0
15.44 572.0
15.455 535.0
15.47 478.0
15.485 477.0
15.5 467.0
15.515 447.0
15.53 453.0
15.545 448.0
15.56 479.0
15.575 476.0
15.59 475.0
15.605 471.0
15.62 500.0
15.635 552.0
15.65 541.0
15.665 567.0
15.68 593.0
15.695 703.0
15.71 741.0
15.725 693.0
15.74 624.0
15.755 545.0
15.77 538.0
15.785 482.0
15.8 494.0
15.815 462.0
15.83 443.0
15.845 479.0
15.86 509.0
15.875 526.0
15.89 548.0
15.905 550.0
15.92 618.0
15.935 665.0
15.95 693.0
15.965 779.0
15.98 851.0
15.995 953.0
16.01 1118.0
16.025 1224.0
16.04 1376.0
16.055 1537.0
16.07 1745.0
16.085 1818.0
16.1 1758.0
16.115 1470.0
16.13 1170.0
16.145 1048.0
16.16 866.0
16.175 781.0
16.19 682.0
16.205 627.0
16.22 616.0
16.235 588.0
16.25 572.0
16.265 561.0
16.28 525.0
16.295 542.0
16.31 528.0
16.325 535.0
16.34 526.0
16.355 486.0
16.37 529.0
16.385 542.0
16.4 508.0
16.415 469.0
16.43 510.0
16.445 536.0
16.46 561.0
16.475 598.0
16.49 650.0
16.505 681.0
16.52 720.0
16.535 853.0
16.55 977.0
16.565 1086.0
16.58 1306.0
16.595 1570.0
16.61 1911.0
16.625 2318.0
16.64 2860.0
16.655 3444.0
16.67 3633.0
16.685 3255.0
16.7 2535.0
16.715 1942.0
16.73 1405.0
16.745 1082.0
16.76 915.0
16.775 755.0
16.79 683.0
16.805 661.0
16.82 620.0
16.835 565.0
16.85 539.0
16.865 504.0
16.88 495.0
16.895 445.0
16.91 478.0
16.925 470.0
16.94 493.0
16.955 455.0
16.97 448.0
16.985 449.0
17.0 444.0
17.015 468.0
17.03 475.0
17.045 474.0
17.06 463.0
17.075 458.0
17.09 445.0
17.105 441.0
17.12 418.0
17.135 443.0
17.15 431.0
17.165 438.0
17.18 469.0
17.195 442.0
17.21 445.0
17.225 450.0
17.24 450.0
17.255 444.0
17.27 460.0
17.285 433.0
17.3 438.0
17.315 461.0
17.33 435.0
17.345 424.0
17.36 423.0
17.375 430.0
17.39 415.0
17.405 410.0
17.42 430.0
17.435 427.0
17.45 430.0
17.465 448.0
17.48 416.0
17.495 425.0
17.51 416.0
17.525 439.0
17.54 434.0
17.555 437.0
17.57 433.0
17.585 454.0
17.6 469.0
17.615 469.0
17.63 439.0
17.645 459.0
17.66 462.0
17.675 455.0
17.69 475.0
17.705 461.0
17.72 483.0
17.735 492.0
17.75 496.0
17.765 449.0
17.78 474.0
17.795 484.0
17.81 518.0
17.825 520.0
17.84 550.0
17.855 585.0
17.87 602.0
17.885 674.0
17.9 655.0
17.915 716.0
17.93 820.0
17.945 924.0
17.96 1029.0
17.975 1227.0
17.99 1433.0
18.005 1682.0
18.02 2075.0
18.035 2467.0
18.05 2870.0
18.065 3399.0
18.08 3782.0
18.095 3922.0
18.11 3590.0
18.125 3002.0
18.14 2443.0
18.155 1956.0
18.17 1502.0
18.185 1234.0
18.2 1023.0
18.215 904.0
18.23 773.0
18.245 752.0
18.26 679.0
18.275 621.0
18.29 602.0
18.305 603.0
18.32 586.0
18.335 560.0
18.35 539.0
18.365 503.0
18.38 527.0
18.395 497.0
18.41 510.0
18.425 527.0
18.44 549.0
18.455 548.0
18.47 539.0
18.485 564.0
18.5 593.0
18.515 617.0
18.53 559.0
18.545 498.0
18.56 494.0
18.575 446.0
18.59 470.0
18.605 473.0
18.62 486.0
18.635 490.0
18.65 487.0
18.665 452.0
18.68 464.0
18.695 486.0
18.71 473.0
18.725 477.0
18.74 484.0
18.755 460.0
18.77 460.0
18.785 434.0
18.8 501.0
18.815 465.0
18.83 458.0
18.845 503.0
18.86 554.0
18.875 554.0
18.89 531.0
18.905 496.0
18.92 470.0
18.935 459.0
18.95 499.0
18.965 432.0
18.98 422.0
18.995 452.0
19.01 435.0
19.025 447.0
19.04 440.0
19.055 488.0
19.07 473.0
19.085 446.0
19.1 455.0
19.115 454.0
19.13 471.0
19.145 446.0
19.16 410.0
19.175 400.0
19.19 419.0
19.205 463.0
19.22 459.0
19.235 465.0
19.25 434.0
19.265 467.0
19.28 446.0
19.295 451.0
19.31 443.0
19.325 429.0
19.34 459.0
19.355 463.0
19.37 478.0
19.385 436.0
19.4 468.0
19.415 499.0
19.43 535.0
19.445 626.0
19.46 691.0
19.475 798.0
19.49 881.0
19.505 1031.0
19.52 1310.0
19.535 1668.0
19.55 2091.0
19.565 2771.0
19.58 3760.0
19.595 4964.0
19.61 5990.0
19.625 5709.0
19.64 4120.0
19.655 2563.0
19.67 1520.0
19.685 980.0
19.7 730.0
19.715 666.0
19.73 592.0
19.745 554.0
19.76 532.0
19.775 494.0
19.79 505.0
19.805 482.0
19.82 468.0
19.835 485.0
19.85 446.0
19.865 451.0
19.88 456.0
19.895 500.0
19.91 471.0
19.925 494.0
19.94 488.0
19.955 484.0
19.97 463.0
19.985 505.0
20.0 443.0
20.015 486.0
20.03 483.0
20.045 471.0
20.06 484.0
20.075 497.0
20.09 491.0
20.105 457.0
20.12 467.0
20.135 494.0
20.15 521.0
20.165 502.0
20.18 562.0
20.195 581.0
20.21 603.0
20.225 683.0
20.24 736.0
20.255 873.0
20.27 1055.0
20.285 1360.0
20.3 1683.0
20.315 1814.0
20.33 1550.0
20.345 1167.0
20.36 818.0
20.375 648.0
20.39 593.0
20.405 535.0
20.42 544.0
20.435 525.0
20.45 533.0
20.465 526.0
20.48 509.0
20.495 518.0
20.51 488.0
20.525 524.0
20.54 501.0
20.555 499.0
20.57 555.0
20.585 594.0
20.6 582.0
20.615 579.0
20.63 624.0
20.645 664.0
20.66 784.0
20.675 780.0
20.69 880.0
20.705 829.0
20.72 739.0
20.735 619.0
20.75 596.0
20.765 557.0
20.78 568.0
20.795 563.0
20.81 598.0
20.825 554.0
20.84 555.0
20.855 591.0
20.87 566.0
20.885 581.0
20.9 607.0
20.915 619.0
20.93 635.0
20.945 640.0
20.96 696.0
20.975 741.0
20.99 786.0
21.005 832.0
21.02 884.0
21.035 1007.0
21.05 1132.0
21.065 1272.0
21.08 1406.0
21.095 1618.0
21.11 1823.0
21.125 1840.0
21.14 1735.0
21.155 1741.0
21.17 1670.0
21.185 1721.0
21.2 1809.0
21.215 1825.0
21.23 1706.0
21.245 1564.0
21.26 1387.0
21.275 1268.0
21.29 1203.0
21.305 1184.0
21.32 1141.0
21.335 1190.0
21.35 1228.0
21.365 1259.0
21.38 1327.0
21.395 1488.0
21.41 1635.0
21.425 1809.0
21.44 2105.0
21.455 2397.0
21.47 2830.0
21.485 3472.0
21.5 4202.0
21.515 5062.0
21.53 6076.0
21.545 7425.0
21.56 8811.0
21.575 10077.0
21.59 11232.0
21.605 11553.0
21.62 10428.0
21.635 8501.0
21.65 6235.0
21.665 4665.0
21.68 3561.0
21.695 2820.0
21.71 2315.0
21.725 1988.0
21.74 1722.0
21.755 1543.0
21.77 1425.0
21.785 1330.0
21.8 1293.0
21.815 1198.0
21.83 1062.0
21.845 1006.0
21.86 984.0
21.875 934.0
21.89 890.0
21.905 933.0
21.92 890.0
21.935 842.0
21.95 801.0
21.965 771.0
21.98 761.0
21.995 787.0
22.01 766.0
22.025 763.0
22.04 722.0
22.055 707.0
22.07 727.0
22.085 714.0
22.1 693.0
22.115 677.0
22.13 669.0
22.145 664.0
22.16 637.0
22.175 662.0
22.19 663.0
22.205 630.0
22.22 653.0
22.235 657.0
22.25 644.0
22.265 697.0
22.28 733.0
22.295 759.0
22.31 748.0
22.325 725.0
22.34 794.0
22.355 820.0
22.37 885.0
22.385 920.0
22.4 1015.0
22.415 1178.0
22.43 1317.0
22.445 1581.0
22.46 1817.0
22.475 1753.0
22.49 1648.0
22.505 1425.0
22.52 1154.0
22.535 968.0
22.55 835.0
22.565 749.0
22.58 722.0
22.595 706.0
22.61 658.0
22.625 590.0
22.64 566.0
22.655 580.0
22.67 590.0
22.685 577.0
22.7 587.0
22.715 617.0
22.73 660.0
22.745 672.0
22.76 648.0
22.775 727.0
22.79 828.0
22.805 891.0
22.82 986.0
22.835 936.0
22.85 837.0
22.865 784.0
22.88 762.0
22.895 725.0
22.91 678.0
22.925 607.0
22.94 594.0
22.955 544.0
22.97 548.0
22.985 563.0
23.0 529.0
23.015 506.0
23.03 511.0
23.045 512.0
23.06 499.0
23.075 511.0
23.09 508.0
23.105 486.0
23.12 523.0
23.135 516.0
23.15 499.0
23.165 505.0
23.18 530.0
23.195 503.0
23.21 527.0
23.225 532.0
23.24 557.0
23.255 530.0
23.27 570.0
23.285 594.0
23.3 621.0
23.315 598.0
23.33 585.0
23.345 651.0
23.36 717.0
23.375 772.0
23.39 777.0
23.405 822.0
23.42 896.0
23.435 869.0
23.45 851.0
23.465 892.0
23.48 867.0
23.495 877.0
23.51 856.0
23.525 774.0
23.54 744.0
23.555 698.0
23.57 647.0
23.585 632.0
23.6 577.0
23.615 534.0
23.63 535.0
23.645 531.0
23.66 545.0
23.675 516.0
23.69 494.0
23.705 519.0
23.72 511.0
23.735 523.0
23.75 519.0
23.765 511.0
23.78 492.0
23.795 513.0
23.81 512.0
23.825 473.0
23.84 495.0
23.855 487.0
23.87 498.0
23.885 515.0
23.9 514.0
23.915 481.0
23.93 491.0
23.945 479.0
23.96 475.0
23.975 445.0
23.99 440.0
24.005 480.0
24.02 494.0
24.035 502.0
24.05 480.0
24.065 477.0
24.08 470.0
24.095 499.0
24.11 465.0
24.125 462.0
24.14 459.0
24.155 472.0
24.17 498.0
24.185 526.0
24.2 526.0
24.215 481.0
24.23 475.0
24.245 444.0
24.26 465.0
24.275 487.0
24.29 481.0
24.305 496.0
24.32 457.0
24.335 455.0
24.35 442.0
24.365 469.0
24.38 476.0
24.395 484.0
24.41 469.0
24.425 487.0
24.44 490.0
24.455 499.0
24.47 487.0
24.485 494.0
24.5 477.0
24.515 482.0
24.53 509.0
24.545 498.0
24.56 475.0
24.575 465.0
24.59 492.0
24.605 530.0
24.62 532.0
24.635 488.0
24.65 461.0
24.665 487.0
24.68 484.0
24.695 485.0
24.71 507.0
24.725 495.0
24.74 472.0
24.755 491.0
24.77 462.0
24.785 470.0
24.8 465.0
24.815 465.0
24.83 444.0
24.845 462.0
24.86 481.0
24.875 480.0
24.89 505.0
24.905 501.0
24.92 459.0
24.935 465.0
24.95 440.0
24.965 450.0
24.98 452.0
24.995 483.0
25.01 473.0
25.025 472.0
25.04 462.0
25.055 438.0
25.07 449.0
25.085 453.0
25.1 468.0
25.115 444.0
25.13 422.0
25.145 458.0
25.16 448.0
25.175 437.0
25.19 480.0
25.205 448.0
25.22 437.0
25.235 442.0
25.25 446.0
25.265 450.0
25.28 459.0
25.295 451.0
25.31 474.0
25.325 443.0
25.34 433.0
25.355 424.0
25.37 436.0
25.385 443.0
25.4 444.0
25.415 447.0
25.43 476.0
25.445 482.0
25.46 447.0
25.475 483.0
25.49 449.0
25.505 438.0
25.52 459.0
25.535 479.0
25.55 484.0
25.565 504.0
25.58 475.0
25.595 491.0
25.61 502.0
25.625 492.0
25.64 447.0
25.655 452.0
25.67 454.0
25.685 467.0
25.7 464.0
25.715 431.0
25.73 438.0
25.745 462.0
25.76 453.0
25.775 427.0
25.79 457.0
25.805 458.0
25.82 486.0
25.835 462.0
25.85 476.0
25.865 440.0
25.88 472.0
25.895 469.0
25.91 458.0
25.925 453.0
25.94 473.0
25.955 478.0
25.97 445.0
25.985 486.0
26.0 468.0
26.015 494.0
26.03 478.0
26.045 497.0
26.06 508.0
26.075 561.0
26.09 578.0
26.105 609.0
26.12 674.0
26.135 801.0
26.15 940.0
26.165 1148.0
26.18 1330.0
26.195 1618.0
26.21 1704.0
26.225 1513.0
26.24 1232.0
26.255 1013.0
26.27 748.0
26.285 651.0
26.3 638.0
26.315 582.0
26.33 561.0
26.345 526.0
26.36 511.0
26.375 533.0
26.39 514.0
26.405 552.0
26.42 526.0
26.435 539.0
26.45 537.0
26.465 545.0
26.48 553.0
26.495 577.0
26.51 595.0
26.525 596.0
26.54 614.0
26.555 583.0
26.57 562.0
26.585 564.0
26.6 540.0
26.615 605.0
26.63 590.0
26.645 642.0
26.66 690.0
26.675 722.0
26.69 768.0
26.705 846.0
26.72 941.0
26.735 1178.0
26.75 1365.0
26.765 1480.0
26.78 1409.0
26.795 1315.0
26.81 1167.0
26.825 1043.0
26.84 916.0
26.855 925.0
26.87 818.0
26.885 826.0
26.9 831.0
26.915 825.0
26.93 795.0
26.945 823.0
26.96 828.0
26.975 845.0
26.99 885.0
27.005 854.0
27.02 913.0
27.035 918.0
27.05 993.0
27.065 1066.0
27.08 1275.0
27.095 1399.0
27.11 1609.0
27.125 1894.0
27.14 1964.0
27.155 1986.0
27.17 1738.0
27.185 1444.0
27.2 1167.0
27.215 994.0
27.23 847.0
27.245 744.0
27.26 695.0
27.275 683.0
27.29 655.0
27.305 650.0
27.32 646.0
27.335 606.0
27.35 623.0
27.365 606.0
27.38 657.0
27.395 650.0
27.41 695.0
27.425 717.0
27.44 813.0
27.455 879.0
27.47 976.0
27.485 1087.0
27.5 1261.0
27.515 1587.0
27.53 1916.0
27.545 2414.0
27.56 3054.0
27.575 3724.0
27.59 4050.0
27.605 3727.0
27.62 2967.0
27.635 2133.0
27.65 1597.0
27.665 1234.0
27.68 1082.0
27.695 988.0
27.71 939.0
27.725 889.0
27.74 886.0
27.755 899.0
27.77 942.0
27.785 937.0
27.8 1006.0
27.815 998.0
27.83 914.0
27.845 836.0
27.86 781.0
27.875 674.0
27.89 669.0
27.905 634.0
27.92 603.0
27.935 620.0
27.95 618.0
27.965 629.0
27.98 629.0
27.995 657.0
28.01 700.0
28.025 774.0
28.04 837.0
28.055 948.0
28.07 1069.0
28.085 1153.0
28.1 1081.0
28.115 959.0
28.13 798.0
28.145 669.0
28.16 564.0
28.175 543.0
28.19 515.0
28.205 477.0
28.22 506.0
28.235 540.0
28.25 496.0
28.265 507.0
28.28 509.0
28.295 518.0
28.31 539.0
28.325 531.0
28.34 506.0
28.355 524.0
28.37 544.0
28.385 549.0
28.4 548.0
28.415 583.0
28.43 650.0
28.445 639.0
28.46 736.0
28.475 809.0
28.49 905.0
28.505 1062.0
28.52 1196.0
28.535 1483.0
28.55 1805.0
28.565 2136.0
28.58 2424.0
28.595 2376.0
28.61 2126.0
28.625 1737.0
28.64 1429.0
28.655 1164.0
28.67 1053.0
28.685 984.0
28.7 963.0
28.715 1024.0
28.73 1053.0
28.745 991.0
28.76 952.0
28.775 937.0
28.79 920.0
28.805 907.0
28.82 939.0
28.835 918.0
28.85 857.0
28.865 818.0
28.88 760.0
28.895 736.0
28.91 691.0
28.925 626.0
28.94 653.0
28.955 627.0
28.97 619.0
28.985 593.0
29.0 632.0
29.015 620.0
29.03 569.0
29.045 597.0
29.06 643.0
29.075 709.0
29.09 786.0
29.105 876.0
29.12 917.0
29.135 864.0
29.15 802.0
29.165 690.0
29.18 581.0
29.195 530.0
29.21 513.0
29.225 522.0
29.24 515.0
29.255 475.0
29.27 499.0
29.285 489.0
29.3 486.0
29.315 476.0
29.33 506.0
29.345 485.0
29.36 514.0
29.375 520.0
29.39 548.0
29.405 584.0
29.42 577.0
29.435 575.0
29.45 545.0
29.465 517.0
29.48 511.0
29.495 484.0
29.51 497.0
29.525 473.0
29.54 502.0
29.555 511.0
29.57 494.0
29.585 511.0
29.6 496.0
29.615 487.0
29.63 466.0
29.645 480.0
29.66 489.0
29.675 488.0
29.69 493.0
29.705 477.0
29.72 459.0
29.735 491.0
29.75 476.0
29.765 451.0
29.78 477.0
29.795 486.0
29.81 473.0
29.825 461.0
29.84 483.0
29.855 504.0
29.87 486.0
29.885 481.0
29.9 497.0
29.915 482.0
29.93 507.0
29.945 512.0
29.96 532.0
29.975 511.0
29.99 554.0
30.005 554.0
30.02 646.0
30.035 648.0
30.05 606.0
30.065 648.0
30.08 659.0
30.095 723.0
30.11 745.0
30.125 833.0
30.14 894.0
30.155 1044.0
30.17 1194.0
30.185 1445.0
30.2 1710.0
30.215 2113.0
30.23 2616.0
30.245 3115.0
30.26 3709.0
30.275 3952.0
30.29 3832.0
30.305 3738.0
30.32 3803.0
30.335 3950.0
30.35 4249.0
30.365 4451.0
30.38 4314.0
30.395 3822.0
30.41 3108.0
30.425 2395.0
30.44 1894.0
30.455 1517.0
30.47 1259.0
30.485 1096.0
30.5 964.0
30.515 817.0
30.53 764.0
30.545 708.0
30.56 660.0
30.575 632.0
30.59 599.0
30.605 602.0
30.62 573.0
30.635 562.0
30.65 511.0
30.665 563.0
30.68 543.0
30.695 498.0
30.71 541.0
30.725 531.0
30.74 534.0
30.755 529.0
30.77 480.0
30.785 493.0
30.8 503.0
30.815 514.0
30.83 498.0
30.845 485.0
30.86 469.0
30.875 524.0
30.89 503.0
30.905 486.0
30.92 521.0
30.935 524.0
30.95 509.0
30.965 478.0
30.98 490.0
30.995 488.0
31.01 526.0
31.025 492.0
31.04 480.0
31.055 553.0
31.07 569.0
31.085 544.0
31.1 552.0
31.115 600.0
31.13 608.0
31.145 647.0
31.16 673.0
31.175 632.0
31.19 613.0
31.205 568.0
31.22 581.0
31.235 565.0
31.25 563.0
31.265 535.0
31.28 543.0
31.295 592.0
31.31 573.0
31.325 553.0
31.34 597.0
31.355 605.0
31.37 624.0
31.385 630.0
31.4 615.0
31.415 625.0
31.43 671.0
31.445 700.0
31.46 711.0
31.475 683.0
31.49 732.0
31.505 761.0
31.52 785.0
31.535 863.0
31.55 892.0
31.565 970.0
31.58 1105.0
31.595 1175.0
31.61 1271.0
31.625 1429.0
31.64 1602.0
31.655 1805.0
31.67 2152.0
31.685 2562.0
31.7 2994.0
31.715 3445.0
31.73 3753.0
31.745 3976.0
31.76 4001.0
31.775 4220.0
31.79 4401.0
31.805 4758.0
31.82 5240.0
31.835 5546.0
31.85 5726.0
31.865 5431.0
31.88 4897.0
31.895 4067.0
31.91 3253.0
31.925 2612.0
31.94 2169.0
31.955 1834.0
31.97 1569.0
31.985 1366.0
32.0 1268.0
32.015 1157.0
32.03 1019.0
32.045 994.0
32.06 908.0
32.075 862.0
32.09 803.0
32.105 767.0
32.12 750.0
32.135 709.0
32.15 696.0
32.165 711.0
32.18 694.0
32.195 700.0
32.21 666.0
32.225 637.0
32.24 609.0
32.255 624.0
32.27 615.0
32.285 590.0
32.3 597.0
32.315 607.0
32.33 634.0
32.345 681.0
32.36 696.0
32.375 724.0
32.39 813.0
32.405 881.0
32.42 1065.0
32.435 1255.0
32.45 1528.0
32.465 1889.0
32.48 2496.0
32.495 3329.0
32.51 4366.0
32.525 5323.0
32.54 5638.0
32.555 5098.0
32.57 3923.0
32.585 2673.0
32.6 1877.0
32.615 1405.0
32.63 1183.0
32.645 1121.0
32.66 1019.0
32.675 1075.0
32.69 1069.0
32.705 1019.0
32.72 989.0
32.735 943.0
32.75 814.0
32.765 769.0
32.78 702.0
32.795 673.0
32.81 669.0
32.825 631.0
32.84 626.0
32.855 580.0
32.87 522.0
32.885 513.0
32.9 491.0
32.915 469.0
32.93 452.0
32.945 451.0
32.96 465.0
32.975 456.0
32.99 467.0
33.005 459.0
33.02 433.0
33.035 422.0
33.05 416.0
33.065 432.0
33.08 428.0
33.095 479.0
33.11 441.0
33.125 427.0
33.14 464.0
33.155 485.0
33.17 462.0
33.185 492.0
33.2 545.0
33.215 583.0
33.23 552.0
33.245 587.0
33.26 634.0
33.275 625.0
33.29 569.0
33.305 508.0
33.32 495.0
33.335 449.0
33.35 483.0
33.365 459.0
33.38 443.0
33.395 440.0
33.41 443.0
33.425 459.0
33.44 465.0
33.455 544.0
33.47 596.0
33.485 672.0
33.5 774.0
33.515 928.0
33.53 1098.0
33.545 1141.0
33.56 996.0
33.575 776.0
33.59 609.0
33.605 564.0
33.62 531.0
33.635 542.0
33.65 539.0
33.665 589.0
33.68 609.0
33.695 593.0
33.71 632.0
33.725 577.0
33.74 536.0
33.755 483.0
33.77 497.0
33.785 482.0
33.8 459.0
33.815 421.0
33.83 413.0
33.845 451.0
33.86 449.0
33.875 419.0
33.89 412.0
33.905 398.0
33.92 386.0
33.935 385.0
33.95 381.0
33.965 389.0
33.98 417.0
33.995 406.0
34.01 374.0
34.025 362.0
34.04 400.0
34.055 409.0
34.07 393.0
34.085 388.0
34.1 367.0
34.115 379.0
34.13 367.0
34.145 363.0
34.16 385.0
34.175 382.0
34.19 383.0
34.205 383.0
34.22 348.0
34.235 376.0
34.25 370.0
34.265 389.0
34.28 383.0
34.295 390.0
34.31 360.0
34.325 353.0
34.34 384.0
34.355 388.0
34.37 363.0
34.385 373.0
34.4 401.0
34.415 358.0
34.43 351.0
34.445 347.0
34.46 375.0
34.475 371.0
34.49 368.0
34.505 364.0
34.52 355.0
34.535 366.0
34.55 369.0
34.565 379.0
34.58 379.0
34.595 349.0
34.61 353.0
34.625 370.0
34.64 360.0
34.655 348.0
34.67 337.0
34.685 370.0
34.7 370.0
34.715 348.0
34.73 366.0
34.745 376.0
34.76 378.0
34.775 360.0
34.79 341.0
34.805 370.0
34.82 400.0
34.835 348.0
34.85 389.0
34.865 384.0
34.88 386.0
34.895 380.0
34.91 424.0
34.925 460.0
34.94 452.0
34.955 438.0
34.97 466.0
34.985 530.0
35.0 560.0
35.015 664.0
35.03 678.0
35.045 792.0
35.06 901.0
35.075 1026.0
35.09 1123.0
35.105 1010.0
35.12 933.0
35.135 761.0
35.15 682.0
35.165 590.0
35.18 577.0
35.195 527.0
35.21 529.0
35.225 505.0
35.24 516.0
35.255 480.0
35.27 487.0
35.285 481.0
35.3 530.0
35.315 537.0
35.33 539.0
35.345 582.0
35.36 606.0
35.375 665.0
35.39 687.0
35.405 736.0
35.42 788.0
35.435 870.0
35.45 944.0
35.465 1139.0
35.48 1293.0
35.495 1665.0
35.51 2090.0
35.525 2471.0
35.54 2618.0
35.555 2534.0
35.57 2207.0
35.585 1735.0
35.6 1372.0
35.615 1095.0
35.63 878.0
35.645 810.0
35.66 730.0
35.675 668.0
35.69 623.0
35.705 576.0
35.72 514.0
35.735 504.0
35.75 510.0
35.765 491.0
35.78 475.0
35.795 447.0
35.81 444.0
35.825 441.0
35.84 443.0
35.855 440.0
35.87 440.0
35.885 464.0
35.9 484.0
35.915 489.0
35.93 486.0
35.945 485.0
35.96 479.0
35.975 468.0
35.99 474.0
36.005 535.0
36.02 503.0
36.035 516.0
36.05 530.0
36.065 580.0
36.08 617.0
36.095 749.0
36.11 865.0
36.125 959.0
36.14 1131.0
36.155 1315.0
36.17 1592.0
36.185 1796.0
36.2 1827.0
36.215 1784.0
36.23 1735.0
36.245 1705.0
36.26 1679.0
36.275 1790.0
36.29 1907.0
36.305 1944.0
36.32 1789.0
36.335 1563.0
36.35 1265.0
36.365 1027.0
36.38 892.0
36.395 757.0
36.41 678.0
36.425 562.0
36.44 530.0
36.455 514.0
36.47 490.0
36.485 483.0
36.5 519.0
36.515 518.0
36.53 528.0
36.545 522.0
36.56 505.0
36.575 529.0
36.59 527.0
36.605 591.0
36.62 600.0
36.635 652.0
36.65 678.0
36.665 665.0
36.68 637.0
36.695 601.0
36.71 588.0
36.725 565.0
36.74 549.0
36.755 554.0
36.77 569.0
36.785 605.0
36.8 604.0
36.815 571.0
36.83 608.0
36.845 636.0
36.86 586.0
36.875 570.0
36.89 540.0
36.905 509.0
36.92 508.0
36.935 443.0
36.95 429.0
36.965 430.0
36.98 440.0
36.995 443.0
37.01 462.0
37.025 442.0
37.04 446.0
37.055 442.0
37.07 445.0
37.085 467.0
37.1 461.0
37.115 394.0
37.13 429.0
37.145 438.0
37.16 436.0
37.175 394.0
37.19 444.0
37.205 507.0
37.22 538.0
37.235 565.0
37.25 585.0
37.265 578.0
37.28 580.0
37.295 579.0
37.31 596.0
37.325 664.0
37.34 703.0
37.355 781.0
37.37 894.0
37.385 1048.0
37.4 1214.0
37.415 1455.0
37.43 1794.0
37.445 1995.0
37.46 2154.0
37.475 2201.0
37.49 2033.0
37.505 1809.0
37.52 1552.0
37.535 1313.0
37.55 1088.0
37.565 1015.0
37.58 925.0
37.595 836.0
37.61 804.0
37.625 777.0
37.64 808.0
37.655 813.0
37.67 881.0
37.685 961.0
37.7 1041.0
37.715 1084.0
37.73 1120.0
37.745 1136.0
37.76 1069.0
37.775 940.0
37.79 795.0
37.805 734.0
37.82 673.0
37.835 613.0
37.85 558.0
37.865 528.0
37.88 458.0
37.895 432.0
37.91 414.0
37.925 414.0
37.94 410.0
37.955 392.0
37.97 396.0
37.985 408.0
38.0 396.0
38.015 386.0
38.03 383.0
38.045 401.0
38.06 343.0
38.075 350.0
38.09 366.0
38.105 365.0
38.12 340.0
38.135 388.0
38.15 355.0
38.165 357.0
38.18 379.0
38.195 427.0
38.21 420.0
38.225 506.0
38.24 530.0
38.255 549.0
38.27 547.0
38.285 555.0
38.3 475.0
38.315 460.0
38.33 409.0
38.345 402.0
38.36 395.0
38.375 404.0
38.39 414.0
38.405 442.0
38.42 483.0
38.435 474.0
38.45 459.0
38.465 517.0
38.48 572.0
38.495 551.0
38.51 536.0
38.525 551.0
38.54 510.0
38.555 520.0
38.57 480.0
38.585 441.0
38.6 397.0
38.615 417.0
38.63 374.0
38.645 378.0
38.66 344.0
38.675 336.0
38.69 329.0
38.705 340.0
38.72 328.0
38.735 321.0
38.75 309.0
38.765 347.0
38.78 322.0
38.795 320.0
38.81 322.0
38.825 330.0
38.84 341.0
38.855 332.0
38.87 338.0
38.885 319.0
38.9 307.0
38.915 292.0
38.93 312.0
38.945 323.0
38.96 304.0
38.975 335.0
38.99 330.0
39.005 336.0
39.02 302.0
39.035 312.0
39.05 308.0
39.065 323.0
39.08 297.0
39.095 296.0
39.11 341.0
39.125 347.0
39.14 354.0
39.155 385.0
39.17 356.0
39.185 368.0
39.2 338.0
39.215 336.0
39.23 355.0
39.245 382.0
39.26 392.0
39.275 366.0
39.29 373.0
39.305 374.0
39.32 393.0
39.335 412.0
39.35 379.0
39.365 380.0
39.38 415.0
39.395 428.0
39.41 457.0
39.425 479.0
39.44 446.0
39.455 437.0
39.47 415.0
39.485 395.0
39.5 390.0
39.515 367.0
39.53 345.0
39.545 357.0
39.56 383.0
39.575 384.0
39.59 371.0
39.605 401.0
39.62 387.0
39.635 413.0
39.65 410.0
39.665 429.0
39.68 406.0
39.695 463.0
39.71 502.0
39.725 534.0
39.74 534.0
39.755 598.0
39.77 667.0
39.785 690.0
39.8 777.0
39.815 887.0
39.83 959.0
39.845 939.0
39.86 876.0
39.875 786.0
39.89 749.0
39.905 708.0
39.92 757.0
39.935 788.0
39.95 823.0
39.965 753.0
39.98 645.0
39.995 565.0
40.01 521.0
40.025 453.0
40.04 387.0
40.055 385.0
40.07 390.0
40.085 385.0
40.1 325.0
40.115 334.0
40.13 324.0
40.145 350.0
40.16 337.0
40.175 328.0
40.19 323.0
40.205 354.0
40.22 340.0
40.235 352.0
40.25 348.0
40.265 348.0
40.28 334.0
40.295 351.0
40.31 380.0
40.325 361.0
40.34 377.0
40.355 378.0
40.37 392.0
40.385 418.0
40.4 423.0
40.415 435.0
40.43 460.0
40.445 465.0
40.46 478.0
40.475 506.0
40.49 508.0
40.505 469.0
40.52 448.0
40.535 457.0
40.55 443.0
40.565 423.0
40.58 422.0
40.595 419.0
40.61 415.0
40.625 405.0
40.64 407.0
40.655 414.0
40.67 431.0
40.685 432.0
40.7 486.0
40.715 496.0
40.73 507.0
40.745 509.0
40.76 588.0
40.775 678.0
40.79 727.0
40.805 812.0
40.82 925.0
40.835 1027.0
40.85 1058.0
40.865 1141.0
40.88 1133.0
40.895 1173.0
40.91 1203.0
40.925 1197.0
40.94 1323.0
40.955 1376.0
40.97 1344.0
40.985 1222.0
41.0 1048.0
41.015 862.0
41.03 685.0
41.045 591.0
41.06 524.0
41.075 488.0
41.09 476.0
41.105 464.0
41.12 433.0
41.135 441.0
41.15 417.0
41.165 421.0
41.18 438.0
41.195 468.0
41.21 498.0
41.225 494.0
41.24 554.0
41.255 577.0
41.27 611.0
41.285 628.0
41.3 632.0
41.315 606.0
41.33 582.0
41.345 523.0
41.36 482.0
41.375 447.0
41.39 435.0
41.405 388.0
41.42 400.0
41.435 410.0
41.45 397.0
41.465 421.0
41.48 414.0
41.495 426.0
41.51 437.0
41.525 453.0
41.54 446.0
41.555 443.0
41.57 480.0
41.585 438.0
41.6 422.0
41.615 425.0
41.63 413.0
41.645 447.0
41.66 473.0
41.675 510.0
41.69 503.0
41.705 542.0
41.72 573.0
41.735 653.0
41.75 696.0
41.765 711.0
41.78 774.0
41.795 823.0
41.81 826.0
41.825 862.0
41.84 952.0
41.855 1009.0
41.87 994.0
41.885 1028.0
41.9 1047.0
41.915 1002.0
41.93 1001.0
41.945 991.0
41.96 897.0
41.975 908.0
41.99 977.0
42.005 959.0
42.02 962.0
42.035 927.0
42.05 814.0
42.065 741.0
42.08 684.0
42.095 616.0
42.11 601.0
42.125 567.0
42.14 524.0
42.155 546.0
42.17 550.0
42.185 539.0
42.2 529.0
42.215 558.0
42.23 564.0
42.245 514.0
42.26 541.0
42.275 572.0
42.29 531.0
42.305 555.0
42.32 571.0
42.335 617.0
42.35 603.0
42.365 573.0
42.38 574.0
42.395 513.0
42.41 520.0
42.425 513.0
42.44 497.0
42.455 470.0
42.47 486.0
42.485 465.0
42.5 458.0
42.515 466.0
42.53 502.0
42.545 526.0
42.56 599.0
42.575 636.0
42.59 782.0
42.605 853.0
42.62 1044.0
42.635 1174.0
42.65 1418.0
42.665 1514.0
42.68 1493.0
42.695 1432.0
42.71 1394.0
42.725 1327.0
42.74 1275.0
42.755 1370.0
42.77 1424.0
42.785 1599.0
42.8 1850.0
42.815 1972.0
42.83 1995.0
42.845 1896.0
42.86 1727.0
42.875 1528.0
42.89 1271.0
42.905 1069.0
42.92 925.0
42.935 884.0
42.95 767.0
42.965 706.0
42.98 650.0
42.995 667.0
43.01 662.0
43.025 662.0
43.04 597.0
43.055 620.0
43.07 604.0
43.085 625.0
43.1 616.0
43.115 600.0
43.13 609.0
43.145 623.0
43.16 615.0
43.175 613.0
43.19 609.0
43.205 601.0
43.22 617.0
43.235 573.0
43.25 595.0
43.265 573.0
43.28 581.0
43.295 634.0
43.31 679.0
43.325 751.0
43.34 821.0
43.355 940.0
43.37 1096.0
43.385 1384.0
43.4 1627.0
43.415 1988.0
43.43 2624.0
43.445 3192.0
43.46 3559.0
43.475 3559.0
43.49 3176.0
43.505 2517.0
43.52 1907.0
43.535 1385.0
43.55 1069.0
43.565 910.0
43.58 760.0
43.595 687.0
43.61 610.0
43.625 550.0
43.64 514.0
43.655 539.0
43.67 491.0
43.685 482.0
43.7 452.0
43.715 445.0
43.73 456.0
43.745 462.0
43.76 472.0
43.775 489.0
43.79 477.0
43.805 528.0
43.82 528.0
43.835 566.0
43.85 551.0
43.865 538.0
43.88 587.0
43.895 620.0
43.91 620.0
43.925 682.0
43.94 640.0
43.955 684.0
43.97 747.0
43.985 759.0
44.0 776.0
44.015 822.0
44.03 830.0
44.045 823.0
44.06 813.0
44.075 807.0
44.09 773.0
44.105 707.0
44.12 683.0
44.135 682.0
44.15 672.0
44.165 681.0
44.18 642.0
44.195 593.0
44.21 577.0
44.225 536.0
44.24 510.0
44.255 495.0
44.27 450.0
44.285 441.0
44.3 432.0
44.315 460.0
44.33 432.0
44.345 371.0
44.36 391.0
44.375 434.0
44.39 429.0
44.405 410.0
44.42 360.0
44.435 367.0
44.45 383.0
44.465 423.0
44.48 419.0
44.495 432.0
44.51 424.0
44.525 426.0
44.54 491.0
44.555 482.0
44.57 544.0
44.585 586.0
44.6 634.0
44.615 795.0
44.63 877.0
44.645 1014.0
44.66 1039.0
44.675 1057.0
44.69 956.0
44.705 815.0
44.72 773.0
44.735 734.0
44.75 651.0
44.765 608.0
44.78 579.0
44.795 595.0
44.81 624.0
44.825 662.0
44.84 702.0
44.855 677.0
44.87 625.0
44.885 623.0
44.9 608.0
44.915 597.0
44.93 555.0
44.945 536.0
44.96 506.0
44.975 490.0
44.99 478.0
45.005 467.0
45.02 403.0
45.035 412.0
45.05 388.0
45.065 392.0
45.08 373.0
45.095 393.0
45.11 410.0
45.125 403.0
45.14 397.0
45.155 384.0
45.17 419.0
45.185 407.0
45.2 408.0
45.215 443.0
45.23 464.0
45.245 485.0
45.26 507.0
45.275 522.0
45.29 576.0
45.305 551.0
45.32 571.0
45.335 612.0
45.35 623.0
45.365 710.0
45.38 801.0
45.395 867.0
45.41 921.0
45.425 1174.0
45.44 1294.0
45.455 1448.0
45.47 1715.0
45.485 1996.0
45.5 2151.0
45.515 2248.0
45.53 2191.0
45.545 2064.0
45.56 1706.0
45.575 1541.0
45.59 1336.0
45.605 1090.0
45.62 988.0
45.635 953.0
45.65 926.0
45.665 825.0
45.68 771.0
45.695 690.0
45.71 630.0
45.725 614.0
45.74 548.0
45.755 504.0
45.77 522.0
45.785 535.0
45.8 543.0
45.815 529.0
45.83 521.0
45.845 517.0
45.86 520.0
45.875 556.0
45.89 580.0
45.905 593.0
45.92 608.0
45.935 633.0
45.95 620.0
45.965 580.0
45.98 564.0
45.995 568.0
46.01 497.0
46.025 476.0
46.04 458.0
46.055 501.0
46.07 493.0
46.085 495.0
46.1 490.0
46.115 487.0
46.13 530.0
46.145 541.0
46.16 512.0
46.175 519.0
46.19 512.0
46.205 509.0
46.22 495.0
46.235 501.0
46.25 503.0
46.265 477.0
46.28 456.0
46.295 460.0
46.31 470.0
46.325 427.0
46.34 433.0
46.355 456.0
46.37 442.0
46.385 440.0
46.4 479.0
46.415 463.0
46.43 518.0
46.445 541.0
46.46 588.0
46.475 626.0
46.49 608.0
46.505 584.0
46.52 531.0
46.535 538.0
46.55 524.0
46.565 494.0
46.58 530.0
46.595 576.0
46.61 632.0
46.625 680.0
46.64 773.0
46.655 920.0
46.67 954.0
46.685 958.0
46.7 1020.0
46.715 1026.0
46.73 1087.0
46.745 1108.0
46.76 1143.0
46.775 1205.0
46.79 1186.0
46.805 1183.0
46.82 1254.0
46.835 1289.0
46.85 1349.0
46.865 1389.0
46.88 1307.0
46.895 1253.0
46.91 1124.0
46.925 993.0
46.94 930.0
46.955 865.0
46.97 865.0
46.985 808.0
47.0 780.0
47.015 727.0
47.03 622.0
47.045 559.0
47.06 509.0
47.075 505.0
47.09 504.0
47.105 478.0
47.12 475.0
47.135 496.0
47.15 483.0
47.165 480.0
47.18 470.0
47.195 462.0
47.21 458.0
47.225 420.0
47.24 409.0
47.255 407.0
47.27 389.0
47.285 385.0
47.3 368.0
47.315 373.0
47.33 399.0
47.345 378.0
47.36 412.0
47.375 445.0
47.39 465.0
47.405 475.0
47.42 529.0
47.435 624.0
47.45 682.0
47.465 715.0
47.48 805.0
47.495 953.0
47.51 1069.0
47.525 1192.0
47.54 1296.0
47.555 1363.0
47.57 1348.0
47.585 1193.0
47.6 1018.0
47.615 825.0
47.63 700.0
47.645 621.0
47.66 578.0
47.675 508.0
47.69 532.0
47.705 499.0
47.72 470.0
47.735 484.0
47.75 487.0
47.765 437.0
47.78 432.0
47.795 489.0
47.81 485.0
47.825 485.0
47.84 503.0
47.855 534.0
47.87 568.0
47.885 588.0
47.9 608.0
47.915 637.0
47.93 717.0
47.945 753.0
47.96 807.0
47.975 898.0
47.99 1022.0
48.005 1119.0
48.02 1127.0
48.035 1141.0
48.05 1039.0
48.065 973.0
48.08 901.0
48.095 875.0
48.11 823.0
48.125 817.0
48.14 870.0
48.155 837.0
48.17 816.0
48.185 812.0
48.2 772.0
48.215 734.0
48.23 831.0
48.245 788.0
48.26 790.0
48.275 823.0
48.29 837.0
48.305 826.0
48.32 838.0
48.335 833.0
48.35 765.0
48.365 753.0
48.38 718.0
48.395 746.0
48.41 744.0
48.425 738.0
48.44 696.0
48.455 732.0
48.47 757.0
48.485 768.0
48.5 708.0
48.515 798.0
48.53 814.0
48.545 750.0
48.56 737.0
48.575 732.0
48.59 715.0
48.605 723.0
48.62 733.0
48.635 759.0
48.65 806.0
48.665 867.0
48.68 900.0
48.695 928.0
48.71 987.0
48.725 1133.0
48.74 1100.0
48.755 1071.0
48.77 1003.0
48.785 898.0
48.8 798.0
48.815 722.0
48.83 654.0
48.845 574.0
48.86 572.0
48.875 548.0
48.89 509.0
48.905 494.0
48.92 532.0
48.935 567.0
48.95 554.0
48.965 537.0
48.98 526.0
48.995 529.0
49.01 474.0
49.025 469.0
49.04 486.0
49.055 443.0
49.07 434.0
49.085 412.0
49.1 381.0
49.115 368.0
49.13 371.0
49.145 380.0
49.16 378.0
49.175 388.0
49.19 391.0
49.205 369.0
49.22 396.0
49.235 453.0
49.25 517.0
49.265 589.0
49.28 688.0
49.295 871.0
49.31 1008.0
49.325 1056.0
49.34 1006.0
49.355 899.0
49.37 701.0
49.385 556.0
49.4 503.0
49.415 432.0
49.43 393.0
49.445 367.0
49.46 333.0
49.475 331.0
49.49 300.0
49.505 324.0
49.52 314.0
49.535 370.0
49.55 337.0
49.565 325.0
49.58 330.0
49.595 340.0
49.61 335.0
49.625 338.0
49.64 364.0
49.655 354.0
49.67 351.0
49.685 358.0
49.7 391.0
49.715 434.0
49.73 377.0
49.745 377.0
49.76 434.0
49.775 449.0
49.79 430.0
49.805 472.0
49.82 560.0
49.835 586.0
49.85 620.0
49.865 718.0
49.88 809.0
49.895 845.0
49.91 963.0
49.925 954.0
49.94 907.0
49.955 904.0
49.97 844.0
49.985 853.0
50.0 797.0
50.015 771.0
50.03 734.0
50.045 685.0
50.06 649.0
50.075 594.0
50.09 589.0
50.105 528.0
50.12 533.0
50.135 497.0
50.15 465.0
50.165 447.0
50.18 441.0
50.195 453.0
50.21 431.0
50.225 460.0
50.24 452.0
50.255 465.0
50.27 446.0
50.285 434.0
50.3 419.0
50.315 407.0
50.33 408.0
50.345 414.0
50.36 412.0
50.375 429.0
50.39 429.0
50.405 414.0
50.42 418.0
50.435 446.0
50.45 462.0
50.465 437.0
50.48 450.0
50.495 469.0
50.51 440.0
50.525 416.0
50.54 413.0
50.555 467.0
50.57 469.0
50.585 506.0
50.6 527.0
50.615 513.0
50.63 541.0
50.645 563.0
50.66 589.0
50.675 610.0
50.69 626.0
50.705 640.0
50.72 634.0
50.735 623.0
50.75 606.0
50.765 597.0
50.78 536.0
50.795 505.0
50.81 491.0
50.825 533.0
50.84 554.0
50.855 549.0
50.87 598.0
50.885 654.0
50.9 769.0
50.915 880.0
50.93 1015.0
50.945 1175.0
50.96 1271.0
50.975 1295.0
50.99 1129.0
51.005 953.0
51.02 820.0
51.035 707.0
51.05 597.0
51.065 543.0
51.08 476.0
51.095 475.0
51.11 444.0
51.125 447.0
51.14 399.0
51.155 372.0
51.17 392.0
51.185 365.0
51.2 348.0
51.215 360.0
51.23 339.0
51.245 317.0
51.26 345.0
51.275 359.0
51.29 367.0
51.305 379.0
51.32 380.0
51.335 351.0
51.35 334.0
51.365 346.0
51.38 356.0
51.395 328.0
51.41 349.0
51.425 322.0
51.44 343.0
51.455 337.0
51.47 332.0
51.485 329.0
51.5 337.0
51.515 368.0
51.53 374.0
51.545 381.0
51.56 387.0
51.575 359.0
51.59 378.0
51.605 396.0
51.62 358.0
51.635 334.0
51.65 362.0
51.665 364.0
51.68 388.0
51.695 410.0
51.71 404.0
51.725 424.0
51.74 438.0
51.755 467.0
51.77 482.0
51.785 453.0
51.8 432.0
51.815 465.0
51.83 436.0
51.845 460.0
51.86 419.0
51.875 450.0
51.89 462.0
51.905 468.0
51.92 464.0
51.935 476.0
51.95 479.0
51.965 458.0
51.98 453.0
51.995 465.0
52.01 443.0
52.025 434.0
52.04 426.0
52.055 401.0
52.07 380.0
52.085 355.0
52.1 327.0
52.115 300.0
52.13 300.0
52.145 339.0
52.16 354.0
52.175 352.0
52.19 324.0
52.205 318.0
52.22 304.0
52.235 313.0
52.25 333.0
52.265 334.0
52.28 321.0
52.295 296.0
52.31 306.0
52.325 323.0
52.34 302.0
52.355 305.0
52.37 308.0
52.385 339.0
52.4 309.0
52.415 308.0
52.43 300.0
52.445 309.0
52.46 322.0
52.475 315.0
52.49 304.0
52.505 322.0
52.52 345.0
52.535 346.0
52.55 349.0
52.565 369.0
52.58 419.0
52.595 426.0
52.61 400.0
52.625 437.0
52.64 455.0
52.655 488.0
52.67 521.0
52.685 521.0
52.7 573.0
52.715 615.0
52.73 634.0
52.745 692.0
52.76 707.0
52.775 809.0
52.79 876.0
52.805 882.0
52.82 870.0
52.835 803.0
52.85 768.0
52.865 707.0
52.88 640.0
52.895 616.0
52.91 616.0
52.925 572.0
52.94 568.0
52.955 565.0
52.97 527.0
52.985 491.0
53.0 510.0
53.015 526.0
53.03 474.0
53.045 504.0
53.06 465.0
53.075 523.0
53.09 511.0
53.105 459.0
53.12 476.0
53.135 528.0
53.15 516.0
53.165 506.0
53.18 494.0
53.195 491.0
53.21 433.0
53.225 446.0
53.24 441.0
53.255 414.0
53.27 406.0
53.285 396.0
53.3 364.0
53.315 363.0
53.33 330.0
53.345 385.0
53.36 329.0
53.375 312.0
53.39 353.0
53.405 350.0
53.42 360.0
53.435 392.0
53.45 376.0
53.465 382.0
53.48 376.0
53.495 368.0
53.51 358.0
53.525 339.0
53.54 348.0
53.555 299.0
53.57 321.0
53.585 310.0
53.6 349.0
53.615 319.0
53.63 330.0
53.645 318.0
53.66 312.0
53.675 336.0
53.69 364.0
53.705 334.0
53.72 289.0
53.735 306.0
53.75 308.0
53.765 304.0
53.78 306.0
53.795 324.0
53.81 300.0
53.825 328.0
53.84 316.0
53.855 310.0
53.87 305.0
53.885 350.0
53.9 349.0
53.915 323.0
53.93 366.0
53.945 328.0
53.96 329.0
53.975 350.0
53.99 335.0
54.005 299.0
54.02 314.0
54.035 306.0
54.05 306.0
54.065 311.0
54.08 310.0
54.095 323.0
54.11 305.0
54.125 308.0
54.14 296.0
54.155 325.0
54.17 314.0
54.185 331.0
54.2 312.0
54.215 317.0
54.23 331.0
54.245 321.0
54.26 333.0
54.275 350.0
54.29 370.0
54.305 330.0
54.32 335.0
54.335 379.0
54.35 387.0
54.365 400.0
54.38 421.0
54.395 446.0
54.41 436.0
54.425 477.0
54.44 469.0
54.455 475.0
54.47 512.0
54.485 515.0
54.5 525.0
54.515 601.0
54.53 599.0
54.545 631.0
54.56 702.0
54.575 758.0
54.59 930.0
54.605 954.0
54.62 967.0
54.635 993.0
54.65 889.0
54.665 940.0
54.68 870.0
54.695 747.0
54.71 729.0
54.725 672.0
54.74 674.0
54.755 686.0
54.77 700.0
54.785 685.0
54.8 686.0
54.815 693.0
54.83 684.0
54.845 664.0
54.86 684.0
54.875 716.0
54.89 735.0
54.905 740.0
54.92 739.0
54.935 773.0
54.95 753.0
54.965 756.0
54.98 770.0
54.995 771.0
55.01 759.0
55.025 696.0
55.04 670.0
55.055 650.0
55.07 600.0
55.085 624.0
55.1 619.0
55.115 589.0
55.13 641.0
55.145 673.0
55.16 723.0
55.175 806.0
55.19 941.0
55.205 1062.0
55.22 1208.0
55.235 1358.0
55.25 1529.0
55.265 1618.0
55.28 1511.0
55.295 1344.0
55.31 1152.0
55.325 1080.0
55.34 1004.0
55.355 1103.0
55.37 1196.0
55.385 1449.0
55.4 1694.0
55.415 1805.0
55.43 1826.0
55.445 1653.0
55.46 1414.0
55.475 1194.0
55.49 943.0
55.505 764.0
55.52 704.0
55.535 660.0
55.55 637.0
55.565 648.0
55.58 661.0
55.595 652.0
55.61 608.0
55.625 582.0
55.64 551.0
55.655 496.0
55.67 490.0
55.685 466.0
55.7 436.0
55.715 397.0
55.73 395.0
55.745 401.0
55.76 385.0
55.775 377.0
55.79 407.0
55.805 396.0
55.82 397.0
55.835 403.0
55.85 387.0
55.865 394.0
55.88 396.0
55.895 388.0
55.91 412.0
55.925 412.0
55.94 411.0
55.955 456.0
55.97 426.0
55.985 429.0
56.0 454.0
56.015 468.0
56.03 474.0
56.045 493.0
56.06 561.0
56.075 561.0
56.09 569.0
56.105 582.0
56.12 607.0
56.135 598.0
56.15 577.0
56.165 588.0
56.18 577.0
56.195 555.0
56.21 567.0
56.225 495.0
56.24 507.0
56.255 513.0
56.27 521.0
56.285 514.0
56.3 495.0
56.315 506.0
56.33 515.0
56.345 493.0
56.36 479.0
56.375 505.0
56.39 504.0
56.405 525.0
56.42 512.0
56.435 540.0
56.45 549.0
56.465 546.0
56.48 546.0
56.495 562.0
56.51 569.0
56.525 571.0
56.54 550.0
56.555 573.0
56.57 591.0
56.585 587.0
56.6 608.0
56.615 644.0
56.63 613.0
56.645 655.0
56.66 666.0
56.675 690.0
56.69 690.0
56.705 622.0
56.72 623.0
56.735 580.0
56.75 606.0
56.765 606.0
56.78 619.0
56.795 626.0
56.81 624.0
56.825 596.0
56.84 603.0
56.855 591.0
56.87 581.0
56.885 576.0
56.9 590.0
56.915 549.0
56.93 510.0
56.945 544.0
56.96 606.0
56.975 557.0
56.99 540.0
57.005 513.0
57.02 496.0
57.035 473.0
57.05 442.0
57.065 416.0
57.08 429.0
57.095 459.0
57.11 453.0
57.125 455.0
57.14 444.0
57.155 447.0
57.17 470.0
57.185 463.0
57.2 469.0
57.215 458.0
57.23 488.0
57.245 457.0
57.26 493.0
57.275 506.0
57.29 498.0
57.305 506.0
57.32 487.0
57.335 512.0
57.35 518.0
57.365 543.0
57.38 511.0
57.395 502.0
57.41 458.0
57.425 446.0
57.44 414.0
57.455 408.0
57.47 426.0
57.485 401.0
57.5 383.0
57.515 387.0
57.53 402.0
57.545 413.0
57.56 447.0
57.575 433.0
57.59 426.0
57.605 457.0
57.62 457.0
57.635 457.0
57.65 424.0
57.665 438.0
57.68 409.0
57.695 387.0
57.71 392.0
57.725 438.0
57.74 426.0
57.755 398.0
57.77 377.0
57.785 406.0
57.8 407.0
57.815 401.0
57.83 375.0
57.845 361.0
57.86 369.0
57.875 390.0
57.89 386.0
57.905 379.0
57.92 349.0
57.935 392.0
57.95 392.0
57.965 407.0
57.98 437.0
57.995 422.0
58.01 473.0
58.025 506.0
58.04 507.0
58.055 548.0
58.07 604.0
58.085 633.0
58.1 656.0
58.115 658.0
58.13 683.0
58.145 739.0
58.16 688.0
58.175 697.0
58.19 628.0
58.205 568.0
58.22 573.0
58.235 584.0
58.25 544.0
58.265 534.0
58.28 526.0
58.295 514.0
58.31 470.0
58.325 487.0
58.34 513.0
58.355 484.0
58.37 478.0
58.385 479.0
58.4 518.0
58.415 466.0
58.43 493.0
58.445 457.0
58.46 473.0
58.475 463.0
58.49 441.0
58.505 452.0
58.52 429.0
58.535 429.0
58.55 422.0
58.565 415.0
58.58 400.0
58.595 423.0
58.61 416.0
58.625 397.0
58.64 403.0
58.655 442.0
58.67 385.0
58.685 399.0
58.7 412.0
58.715 420.0
58.73 392.0
58.745 396.0
58.76 371.0
58.775 364.0
58.79 386.0
58.805 396.0
58.82 402.0
58.835 406.0
58.85 397.0
58.865 401.0
58.88 410.0
58.895 416.0
58.91 439.0
58.925 434.0
58.94 395.0
58.955 383.0
58.97 387.0
58.985 402.0
59.0 370.0
59.015 350.0
59.03 345.0
59.045 350.0
59.06 331.0
59.075 331.0
59.09 321.0
59.105 288.0
59.12 322.0
59.135 345.0
59.15 309.0
59.165 317.0
59.18 320.0
59.195 310.0
59.21 322.0
59.225 343.0
59.24 342.0
59.255 337.0
59.27 365.0
59.285 368.0
59.3 357.0
59.315 360.0
59.33 350.0
59.345 367.0
59.36 403.0
59.375 401.0
59.39 418.0
59.405 422.0
59.42 476.0
59.435 465.0
59.45 459.0
59.465 515.0
59.48 522.0
59.495 591.0
59.51 570.0
59.525 568.0
59.54 535.0
59.555 556.0
59.57 534.0
59.585 526.0
59.6 509.0
59.615 483.0
59.63 496.0
59.645 501.0
59.66 473.0
59.675 451.0
59.69 466.0
59.705 466.0
59.72 449.0
59.735 467.0
59.75 461.0
59.765 415.0
59.78 405.0
59.795 426.0
59.81 408.0
59.825 371.0
59.84 408.0
59.855 434.0
59.87 417.0
59.885 448.0
59.9 481.0
59.915 529.0
59.93 535.0
59.945 551.0
59.96 552.0
59.975 547.0
59.99 584.0
60.005 578.0
60.02 576.0
60.035 556.0
60.05 539.0
60.065 614.0
60.08 625.0
60.095 644.0
60.11 745.0
60.125 772.0
60.14 773.0
60.155 877.0
60.17 881.0
60.185 913.0
60.2 875.0
60.215 816.0
60.23 772.0
60.245 695.0
60.26 624.0
60.275 573.0
60.29 530.0
60.305 514.0
60.32 523.0
60.335 484.0
60.35 469.0
60.365 455.0
60.38 461.0
60.395 481.0
60.41 437.0
60.425 381.0
60.44 392.0
60.455 395.0
60.47 380.0
60.485 377.0
60.5 385.0
60.515 384.0
60.53 368.0
60.545 374.0
60.56 345.0
60.575 357.0
60.59 362.0
60.605 345.0
60.62 326.0
60.635 329.0
60.65 313.0
60.665 314.0
60.68 349.0
60.695 321.0
60.71 319.0
60.725 323.0
60.74 316.0
60.755 278.0
60.77 292.0
60.785 296.0
60.8 313.0
60.815 322.0
60.83 302.0
60.845 328.0
60.86 340.0
60.875 329.0
60.89 334.0
60.905 348.0
60.92 367.0
60.935 401.0
60.95 423.0
60.965 446.0
60.98 453.0
60.995 511.0
61.01 527.0
61.025 550.0
61.04 556.0
61.055 532.0
61.07 522.0
61.085 482.0
61.1 439.0
61.115 412.0
61.13 422.0
61.145 405.0
61.16 400.0
61.175 413.0
61.19 408.0
61.205 432.0
61.22 476.0
61.235 458.0
61.25 502.0
61.265 484.0
61.28 501.0
61.295 489.0
61.31 494.0
61.325 513.0
61.34 519.0
61.355 525.0
61.37 557.0
61.385 546.0
61.4 544.0
61.415 555.0
61.43 574.0
61.445 551.0
61.46 562.0
61.475 517.0
61.49 512.0
61.505 469.0
61.52 409.0
61.535 378.0
61.55 382.0
61.565 365.0
61.58 351.0
61.595 336.0
61.61 333.0
61.625 346.0
61.64 355.0
61.655 341.0
61.67 310.0
61.685 327.0
61.7 303.0
61.715 294.0
61.73 302.0
61.745 294.0
61.76 332.0
61.775 310.0
61.79 305.0
61.805 319.0
61.82 337.0
61.835 351.0
61.85 320.0
61.865 339.0
61.88 360.0
61.895 375.0
61.91 385.0
61.925 423.0
61.94 433.0
61.955 468.0
61.97 494.0
61.985 498.0
