2.00000 1.000
2.01500 3.000
2.03000 0.000
2.04500 2.000
2.06000 3.000
2.07500 4.000
2.09000 5.000
2.10500 3.000
2.12000 6.000
2.13500 3.000
2.15000 2.000
2.16500 3.000
2.18000 2.000
2.19500 2.000
2.21000 4.000
2.22500 4.000
2.24000 3.000
2.25500 4.000
2.27000 4.000
2.28500 2.000
2.30000 4.000
2.31500 6.000
2.33000 4.000
2.34500 1.000
2.36000 1.000
2.37500 2.000
2.39000 4.000
2.40500 2.000
2.42000 1.000
2.43500 1.000
2.45000 1.000
2.46500 2.000
2.48000 0.000
2.49500 3.000
2.51000 2.000
2.52500 1.000
2.54000 2.000
2.55500 7.000
2.57000 6.000
2.58500 3.000
2.60000 1.000
2.61500 1.000
2.63000 0.000
2.64500 4.000
2.66000 5.000
2.67500 6.000
2.69000 2.000
2.70500 4.000
2.72000 1.000
2.73500 4.000
2.75000 5.000
2.76500 3.000
2.78000 3.000
2.79500 3.000
2.81000 5.000
2.82500 5.000
2.84000 3.000
2.85500 5.000
2.87000 5.000
2.88500 4.000
2.90000 5.000
2.91500 5.000
2.93000 5.000
2.94500 8.000
2.96000 15.000
2.97500 16.000
2.99000 20.000
3.00500 29.000
3.02000 47.000
3.03500 70.000
3.05000 121.000
3.06500 170.000
3.08000 200.000
3.09500 244.000
3.11000 254.000
3.12500 297.000
3.14000 332.000
3.15500 331.000
3.17000 332.000
3.18500 325.000
3.20000 350.000
3.21500 338.000
3.23000 330.000
3.24500 315.000
3.26000 312.000
3.27500 336.000
3.29000 338.000
3.30500 337.000
3.32000 307.000
3.33500 307.000
3.35000 335.000
3.36500 316.000
3.38000 316.000
3.39500 322.000
3.41000 294.000
3.42500 292.000
3.44000 314.000
3.45500 311.000
3.47000 323.000
3.48500 322.000
3.50000 317.000
3.51500 318.000
3.53000 303.000
3.54500 299.000
3.56000 309.000
3.57500 309.000
3.59000 310.000
3.60500 314.000
3.62000 292.000
3.63500 298.000
3.65000 300.000
3.66500 310.000
3.68000 316.000
3.69500 312.000
3.71000 300.000
3.72500 293.000
3.74000 274.000
3.75500 299.000
3.77000 293.000
3.78500 296.000
3.80000 295.000
3.81500 302.000
3.83000 290.000
3.84500 314.000
3.86000 313.000
3.87500 282.000
3.89000 293.000
3.90500 286.000
3.92000 312.000
3.93500 309.000
3.95000 297.000
3.96500 317.000
3.98000 281.000
3.99500 272.000
4.01000 307.000
4.02500 328.000
4.04000 329.000
4.05500 314.000
4.07000 314.000
4.08500 304.000
4.10000 316.000
4.11500 320.000
4.13000 288.000
4.14500 317.000
4.16000 293.000
4.17500 300.000
4.19000 289.000
4.20500 298.000
4.22000 304.000
4.23500 274.000
4.25000 277.000
4.26500 267.000
4.28000 309.000
4.29500 296.000
4.31000 290.000
4.32500 284.000
4.34000 288.000
4.35500 319.000
4.37000 293.000
4.38500 292.000
4.40000 298.000
4.41500 293.000
4.43000 318.000
4.44500 287.000
4.46000 298.000
4.47500 302.000
4.49000 309.000
4.50500 336.000
4.52000 317.000
4.53500 308.000
4.55000 329.000
4.56500 310.000
4.58000 299.000
4.59500 305.000
4.61000 349.000
4.62500 327.000
4.64000 310.000
4.65500 298.000
4.67000 308.000
4.68500 275.000
4.70000 296.000
4.71500 315.000
4.73000 292.000
4.74500 294.000
4.76000 290.000
4.77500 321.000
4.79000 309.000
4.80500 325.000
4.82000 331.000
4.83500 312.000
4.85000 315.000
4.86500 312.000
4.88000 296.000
4.89500 316.000
4.91000 328.000
4.92500 315.000
4.94000 326.000
4.95500 313.000
4.97000 291.000
4.98500 342.000
5.00000 312.000
5.01500 328.000
5.03000 337.000
5.04500 341.000
5.06000 339.000
5.07500 318.000
5.09000 340.000
5.10500 332.000
5.12000 319.000
5.13500 313.000
5.15000 350.000
5.16500 314.000
5.18000 319.000
5.19500 343.000
5.21000 335.000
5.22500 312.000
5.24000 330.000
5.25500 321.000
5.27000 334.000
5.28500 330.000
5.30000 334.000
5.31500 350.000
5.33000 354.000
5.34500 325.000
5.36000 312.000
5.37500 323.000
5.39000 344.000
5.40500 341.000
5.42000 347.000
5.43500 332.000
5.45000 358.000
5.46500 338.000
5.48000 309.000
5.49500 330.000
5.51000 330.000
5.52500 325.000
5.54000 323.000
5.55500 335.000
5.57000 315.000
5.58500 335.000
5.60000 322.000
5.61500 335.000
5.63000 315.000
5.64500 345.000
5.66000 355.000
5.67500 380.000
5.69000 367.000
5.70500 351.000
5.72000 337.000
5.73500 329.000
5.75000 328.000
5.76500 310.000
5.78000 317.000
5.79500 327.000
5.81000 330.000
5.82500 358.000
5.84000 344.000
5.85500 340.000
5.87000 350.000
5.88500 326.000
5.90000 325.000
5.91500 345.000
5.93000 341.000
5.94500 315.000
5.96000 356.000
5.97500 353.000
5.99000 326.000
6.00500 340.000
6.02000 341.000
6.03500 376.000
6.05000 345.000
6.06500 343.000
6.08000 341.000
6.09500 371.000
6.11000 362.000
6.12500 371.000
6.14000 388.000
6.15500 388.000
6.17000 400.000
6.18500 388.000
6.20000 359.000
6.21500 401.000
6.23000 414.000
6.24500 403.000
6.26000 366.000
6.27500 389.000
6.29000 378.000
6.30500 367.000
6.32000 382.000
6.33500 353.000
6.35000 351.000
6.36500 352.000
6.38000 344.000
6.39500 329.000
6.41000 346.000
6.42500 328.000
6.44000 339.000
6.45500 375.000
6.47000 366.000
6.48500 375.000
6.50000 369.000
6.51500 349.000
6.53000 333.000
6.54500 346.000
6.56000 380.000
6.57500 344.000
6.59000 356.000
6.60500 332.000
6.62000 356.000
6.63500 357.000
6.65000 358.000
6.66500 332.000
6.68000 319.000
6.69500 344.000
6.71000 342.000
6.72500 330.000
6.74000 335.000
6.75500 346.000
6.77000 368.000
6.78500 351.000
6.80000 362.000
6.81500 336.000
6.83000 336.000
6.84500 367.000
6.86000 335.000
6.87500 342.000
6.89000 344.000
6.90500 339.000
6.92000 347.000
6.93500 342.000
6.95000 345.000
6.96500 333.000
6.98000 361.000
6.99500 365.000
7.01000 371.000
7.02500 371.000
7.04000 365.000
7.05500 360.000
7.07000 385.000
7.08500 377.000
7.10000 376.000
7.11500 346.000
7.13000 342.000
7.14500 349.000
7.16000 350.000
7.17500 363.000
7.19000 363.000
7.20500 363.000
7.22000 380.000
7.23500 358.000
7.25000 340.000
7.26500 345.000
7.28000 358.000
7.29500 373.000
7.31000 369.000
7.32500 369.000
7.34000 374.000
7.35500 387.000
7.37000 370.000
7.38500 358.000
7.40000 363.000
7.41500 359.000
7.43000 362.000
7.44500 387.000
7.46000 362.000
7.47500 351.000
7.49000 379.000
7.50500 361.000
7.52000 359.000
7.53500 372.000
7.55000 365.000
7.56500 345.000
7.58000 365.000
7.59500 357.000
7.61000 367.000
7.62500 353.000
7.64000 352.000
7.65500 371.000
7.67000 351.000
7.68500 367.000
7.70000 356.000
7.71500 407.000
7.73000 373.000
7.74500 389.000
7.76000 359.000
7.77500 338.000
7.79000 346.000
7.80500 369.000
7.82000 370.000
7.83500 365.000
7.85000 368.000
7.86500 372.000
7.88000 374.000
7.89500 353.000
7.91000 361.000
7.92500 391.000
7.94000 361.000
7.95500 351.000
7.97000 359.000
7.98500 370.000
8.00000 379.000
8.01500 370.000
8.03000 345.000
8.04500 354.000
8.06000 378.000
8.07500 402.000
8.09000 401.000
8.10500 335.000
8.12000 379.000
8.13500 370.000
8.15000 398.000
8.16500 383.000
8.18000 377.000
8.19500 359.000
8.21000 375.000
8.22500 375.000
8.24000 367.000
8.25500 374.000
8.27000 405.000
8.28500 352.000
8.30000 379.000
8.31500 356.000
8.33000 372.000
8.34500 372.000
8.36000 382.000
8.37500 338.000
8.39000 375.000
8.40500 387.000
8.42000 362.000
8.43500 358.000
8.45000 384.000
8.46500 353.000
8.48000 341.000
8.49500 398.000
8.51000 384.000
8.52500 384.000
8.54000 381.000
8.55500 374.000
8.57000 365.000
8.58500 360.000
8.60000 392.000
8.61500 364.000
8.63000 386.000
8.64500 394.000
8.66000 386.000
8.67500 387.000
8.69000 402.000
8.70500 383.000
8.72000 395.000
8.73500 367.000
8.75000 390.000
8.76500 382.000
8.78000 385.000
8.79500 393.000
8.81000 388.000
8.82500 365.000
8.84000 399.000
8.85500 391.000
8.87000 379.000
8.88500 381.000
8.90000 387.000
8.91500 385.000
8.93000 389.000
8.94500 356.000
8.96000 404.000
8.97500 382.000
8.99000 379.000
9.00500 389.000
9.02000 392.000
9.03500 390.000
9.05000 378.000
9.06500 367.000
9.08000 374.000
9.09500 390.000
9.11000 384.000
9.12500 374.000
9.14000 363.000
9.15500 374.000
9.17000 391.000
9.18500 387.000
9.20000 381.000
9.21500 351.000
9.23000 383.000
9.24500 349.000
9.26000 380.000
9.27500 390.000
9.29000 382.000
9.30500 396.000
9.32000 395.000
9.33500 386.000
9.35000 381.000
9.36500 354.000
9.38000 376.000
9.39500 406.000
9.41000 385.000
9.42500 404.000
9.44000 425.000
9.45500 394.000
9.47000 378.000
9.48500 369.000
9.50000 392.000
9.51500 412.000
9.53000 390.000
9.54500 409.000
9.56000 376.000
9.57500 380.000
9.59000 396.000
9.60500 368.000
9.62000 384.000
9.63500 388.000
9.65000 371.000
9.66500 354.000
9.68000 371.000
9.69500 375.000
9.71000 397.000
9.72500 381.000
9.74000 372.000
9.75500 387.000
9.77000 391.000
9.78500 375.000
9.80000 389.000
9.81500 397.000
9.83000 376.000
9.84500 394.000
9.86000 381.000
9.87500 407.000
9.89000 410.000
9.90500 420.000
9.92000 416.000
9.93500 426.000
9.95000 415.000
9.96500 418.000
9.98000 386.000
9.99500 417.000
10.01000 459.000
10.02500 448.000
10.04000 407.000
10.05500 416.000
10.07000 402.000
10.08500 412.000
10.10000 460.000
10.11500 430.000
10.13000 427.000
10.14500 441.000
10.16000 397.000
10.17500 404.000
10.19000 402.000
10.20500 433.000
10.22000 442.000
10.23500 448.000
10.25000 465.000
10.26500 439.000
10.28000 432.000
10.29500 431.000
10.31000 428.000
10.32500 464.000
10.34000 440.000
10.35500 454.000
10.37000 475.000
10.38500 488.000
10.40000 457.000
10.41500 455.000
10.43000 433.000
10.44500 436.000
10.46000 466.000
10.47500 444.000
10.49000 452.000
10.50500 447.000
10.52000 468.000
10.53500 413.000
10.55000 439.000
10.56500 455.000
10.58000 477.000
10.59500 464.000
10.61000 475.000
10.62500 493.000
10.64000 469.000
10.65500 438.000
10.67000 462.000
10.68500 469.000
10.70000 456.000
10.71500 463.000
10.73000 459.000
10.74500 460.000
10.76000 470.000
10.77500 493.000
10.79000 465.000
10.80500 462.000
10.82000 472.000
10.83500 456.000
10.85000 475.000
10.86500 478.000
10.88000 506.000
10.89500 504.000
10.91000 506.000
10.92500 532.000
10.94000 471.000
10.95500 553.000
10.97000 541.000
10.98500 561.000
11.00000 529.000
11.01500 564.000
11.03000 562.000
11.04500 529.000
11.06000 513.000
11.07500 484.000
11.09000 476.000
11.10500 473.000
11.12000 455.000
11.13500 447.000
11.15000 470.000
11.16500 485.000
11.18000 460.000
11.19500 461.000
11.21000 466.000
11.22500 439.000
11.24000 456.000
11.25500 434.000
11.27000 473.000
11.28500 467.000
11.30000 450.000
11.31500 439.000
11.33000 434.000
11.34500 447.000
11.36000 432.000
11.37500 417.000
11.39000 427.000
11.40500 431.000
11.42000 452.000
11.43500 473.000
11.45000 434.000
11.46500 446.000
11.48000 472.000
11.49500 483.000
11.51000 457.000
11.52500 480.000
11.54000 462.000
11.55500 455.000
11.57000 452.000
11.58500 482.000
11.60000 469.000
11.61500 460.000
11.63000 438.000
11.64500 439.000
11.66000 471.000
11.67500 481.000
11.69000 513.000
11.70500 518.000
11.72000 523.000
11.73500 493.000
11.75000 489.000
11.76500 477.000
11.78000 494.000
11.79500 507.000
11.81000 510.000
11.82500 508.000
11.84000 536.000
11.85500 546.000
11.87000 522.000
11.88500 550.000
11.90000 572.000
11.91500 550.000
11.93000 569.000
11.94500 541.000
11.96000 536.000
11.97500 578.000
11.99000 588.000
12.00500 579.000
12.02000 586.000
12.03500 595.000
12.05000 576.000
12.06500 595.000
12.08000 608.000
12.09500 583.000
12.11000 549.000
12.12500 570.000
12.14000 567.000
12.15500 549.000
12.17000 583.000
12.18500 536.000
12.20000 504.000
12.21500 514.000
12.23000 510.000
12.24500 513.000
12.26000 512.000
12.27500 493.000
12.29000 510.000
12.30500 516.000
12.32000 484.000
12.33500 463.000
12.35000 468.000
12.36500 460.000
12.38000 445.000
12.39500 451.000
12.41000 460.000
12.42500 454.000
12.44000 452.000
12.45500 460.000
12.47000 431.000
12.48500 453.000
12.50000 419.000
12.51500 442.000
12.53000 457.000
12.54500 426.000
12.56000 452.000
12.57500 428.000
12.59000 420.000
12.60500 405.000
12.62000 410.000
12.63500 411.000
12.65000 426.000
12.66500 413.000
12.68000 431.000
12.69500 430.000
12.71000 434.000
12.72500 446.000
12.74000 433.000
12.75500 400.000
12.77000 398.000
12.78500 413.000
12.80000 386.000
12.81500 392.000
12.83000 408.000
12.84500 415.000
12.86000 393.000
12.87500 397.000
12.89000 420.000
12.90500 414.000
12.92000 381.000
12.93500 387.000
12.95000 396.000
12.96500 396.000
12.98000 406.000
12.99500 428.000
13.01000 399.000
13.02500 393.000
13.04000 428.000
13.05500 425.000
13.07000 430.000
13.08500 409.000
13.10000 387.000
13.11500 388.000
13.13000 380.000
13.14500 374.000
13.16000 380.000
13.17500 372.000
13.19000 401.000
13.20500 396.000
13.22000 403.000
13.23500 401.000
13.25000 392.000
13.26500 402.000
13.28000 397.000
13.29500 384.000
13.31000 404.000
13.32500 420.000
13.34000 391.000
13.35500 397.000
13.37000 379.000
13.38500 382.000
13.40000 402.000
13.41500 370.000
13.43000 398.000
13.44500 399.000
13.46000 404.000
13.47500 393.000
13.49000 389.000
13.50500 395.000
13.52000 377.000
13.53500 386.000
13.55000 391.000
13.56500 373.000
13.58000 389.000
13.59500 381.000
13.61000 388.000
13.62500 423.000
13.64000 396.000
13.65500 379.000
13.67000 382.000
13.68500 346.000
13.70000 404.000
13.71500 417.000
13.73000 417.000
13.74500 410.000
13.76000 378.000
13.77500 362.000
13.79000 378.000
13.80500 380.000
13.82000 408.000
13.83500 379.000
13.85000 384.000
13.86500 384.000
13.88000 387.000
13.89500 384.000
13.91000 433.000
13.92500 389.000
13.94000 387.000
13.95500 386.000
13.97000 418.000
13.98500 403.000
14.00000 373.000
14.01500 385.000
14.03000 387.000
14.04500 397.000
14.06000 410.000
14.07500 396.000
14.09000 456.000
14.10500 418.000
14.12000 370.000
14.13500 386.000
14.15000 401.000
14.16500 411.000
14.18000 392.000
14.19500 419.000
14.21000 389.000
14.22500 382.000
14.24000 386.000
14.25500 386.000
14.27000 403.000
14.28500 429.000
14.30000 408.000
14.31500 383.000
14.33000 386.000
14.34500 381.000
14.36000 370.000
14.37500 365.000
14.39000 373.000
14.40500 377.000
14.42000 387.000
14.43500 406.000
14.45000 409.000
14.46500 384.000
14.48000 419.000
14.49500 418.000
14.51000 415.000
14.52500 376.000
14.54000 370.000
14.55500 396.000
14.57000 401.000
14.58500 408.000
14.60000 398.000
14.61500 388.000
14.63000 367.000
14.64500 376.000
14.66000 411.000
14.67500 383.000
14.69000 412.000
14.70500 381.000
14.72000 394.000
14.73500 382.000
14.75000 377.000
14.76500 369.000
14.78000 395.000
14.79500 396.000
14.81000 377.000
14.82500 386.000
14.84000 414.000
14.85500 373.000
14.87000 393.000
14.88500 378.000
14.90000 394.000
14.91500 402.000
14.93000 372.000
14.94500 389.000
14.96000 414.000
14.97500 406.000
14.99000 417.000
15.00500 384.000
15.02000 405.000
15.03500 391.000
15.05000 389.000
15.06500 363.000
15.08000 416.000
15.09500 401.000
15.11000 388.000
15.12500 405.000
15.14000 364.000
15.15500 403.000
15.17000 381.000
15.18500 387.000
15.20000 389.000
15.21500 440.000
15.23000 405.000
15.24500 382.000
15.26000 407.000
15.27500 420.000
15.29000 408.000
15.30500 394.000
15.32000 365.000
15.33500 395.000
15.35000 397.000
15.36500 367.000
15.38000 399.000
15.39500 364.000
15.41000 372.000
15.42500 384.000
15.44000 390.000
15.45500 376.000
15.47000 409.000
15.48500 378.000
15.50000 369.000
15.51500 432.000
15.53000 409.000
15.54500 427.000
15.56000 432.000
15.57500 371.000
15.59000 383.000
15.60500 380.000
15.62000 415.000
15.63500 388.000
15.65000 400.000
15.66500 390.000
15.68000 373.000
15.69500 400.000
15.71000 389.000
15.72500 403.000
15.74000 401.000
15.75500 411.000
15.77000 381.000
15.78500 380.000
15.80000 390.000
15.81500 404.000
15.83000 387.000
15.84500 379.000
15.86000 355.000
15.87500 400.000
15.89000 377.000
15.90500 397.000
15.92000 404.000
15.93500 389.000
15.95000 406.000
15.96500 389.000
15.98000 418.000
15.99500 422.000
16.01000 394.000
16.02500 397.000
16.04000 394.000
16.05500 393.000
16.07000 408.000
16.08500 390.000
16.10000 379.000
16.11500 398.000
16.13000 415.000
16.14500 373.000
16.16000 384.000
16.17500 409.000
16.19000 402.000
16.20500 379.000
16.22000 367.000
16.23500 378.000
16.25000 411.000
16.26500 379.000
16.28000 387.000
16.29500 411.000
16.31000 411.000
16.32500 370.000
16.34000 387.000
16.35500 400.000
16.37000 387.000
16.38500 386.000
16.40000 398.000
16.41500 372.000
16.43000 387.000
16.44500 395.000
16.46000 394.000
16.47500 382.000
16.49000 389.000
16.50500 375.000
16.52000 392.000
16.53500 418.000
16.55000 402.000
16.56500 364.000
16.58000 414.000
16.59500 450.000
16.61000 400.000
16.62500 383.000
16.64000 398.000
16.65500 402.000
16.67000 405.000
16.68500 393.000
16.70000 385.000
16.71500 416.000
16.73000 396.000
16.74500 404.000
16.76000 411.000
16.77500 399.000
16.79000 391.000
16.80500 405.000
16.82000 389.000
16.83500 398.000
16.85000 393.000
16.86500 391.000
16.88000 381.000
16.89500 389.000
16.91000 407.000
16.92500 400.000
16.94000 430.000
16.95500 389.000
16.97000 383.000
16.98500 370.000
17.00000 406.000
17.01500 429.000
17.03000 414.000
17.04500 414.000
17.06000 438.000
17.07500 427.000
17.09000 385.000
17.10500 384.000
17.12000 412.000
17.13500 396.000
17.15000 376.000
17.16500 368.000
17.18000 420.000
17.19500 408.000
17.21000 406.000
17.22500 415.000
17.24000 433.000
17.25500 437.000
17.27000 400.000
17.28500 408.000
17.30000 385.000
17.31500 401.000
17.33000 424.000
17.34500 390.000
17.36000 405.000
17.37500 415.000
17.39000 432.000
17.40500 419.000
17.42000 420.000
17.43500 422.000
17.45000 417.000
17.46500 418.000
17.48000 427.000
17.49500 399.000
17.51000 413.000
17.52500 442.000
17.54000 426.000
17.55500 427.000
17.57000 439.000
17.58500 453.000
17.60000 419.000
17.61500 405.000
17.63000 405.000
17.64500 408.000
17.66000 434.000
17.67500 411.000
17.69000 381.000
17.70500 417.000
17.72000 414.000
17.73500 419.000
17.75000 421.000
17.76500 391.000
17.78000 410.000
17.79500 426.000
17.81000 436.000
17.82500 412.000
17.84000 397.000
17.85500 422.000
17.87000 436.000
17.88500 416.000
17.90000 410.000
17.91500 426.000
17.93000 403.000
17.94500 425.000
17.96000 402.000
17.97500 388.000
17.99000 406.000
18.00500 407.000
18.02000 419.000
18.03500 419.000
18.05000 379.000
18.06500 364.000
18.08000 398.000
18.09500 389.000
18.11000 403.000
18.12500 425.000
18.14000 429.000
18.15500 435.000
18.17000 405.000
18.18500 424.000
18.20000 442.000
18.21500 429.000
18.23000 425.000
18.24500 400.000
18.26000 421.000
18.27500 434.000
18.29000 424.000
18.30500 418.000
18.32000 378.000
18.33500 426.000
18.35000 425.000
18.36500 383.000
18.38000 407.000
18.39500 431.000
18.41000 421.000
18.42500 409.000
18.44000 413.000
18.45500 414.000
18.47000 425.000
18.48500 424.000
18.50000 440.000
18.51500 386.000
18.53000 390.000
18.54500 419.000
18.56000 425.000
18.57500 435.000
18.59000 419.000
18.60500 413.000
18.62000 420.000
18.63500 453.000
18.65000 438.000
18.66500 437.000
18.68000 457.000
18.69500 436.000
18.71000 401.000
18.72500 431.000
18.74000 434.000
18.75500 394.000
18.77000 444.000
18.78500 455.000
18.80000 460.000
18.81500 456.000
18.83000 450.000
18.84500 426.000
18.86000 405.000
18.87500 405.000
18.89000 448.000
18.90500 433.000
18.92000 418.000
18.93500 412.000
18.95000 414.000
18.96500 444.000
18.98000 428.000
18.99500 432.000
19.01000 406.000
19.02500 442.000
19.04000 425.000
19.05500 446.000
19.07000 449.000
19.08500 454.000
19.10000 405.000
19.11500 387.000
19.13000 405.000
19.14500 457.000
19.16000 441.000
19.17500 437.000
19.19000 422.000
19.20500 395.000
19.22000 429.000
19.23500 422.000
19.25000 433.000
19.26500 440.000
19.28000 435.000
19.29500 434.000
19.31000 432.000
19.32500 453.000
19.34000 417.000
19.35500 399.000
19.37000 435.000
19.38500 448.000
19.40000 436.000
19.41500 432.000
19.43000 449.000
19.44500 431.000
19.46000 444.000
19.47500 420.000
19.49000 413.000
19.50500 411.000
19.52000 444.000
19.53500 441.000
19.55000 423.000
19.56500 406.000
19.58000 431.000
19.59500 430.000
19.61000 406.000
19.62500 415.000
19.64000 423.000
19.65500 432.000
19.67000 412.000
19.68500 448.000
19.70000 425.000
19.71500 420.000
19.73000 428.000
19.74500 414.000
19.76000 422.000
19.77500 455.000
19.79000 476.000
19.80500 442.000
19.82000 446.000
19.83500 422.000
19.85000 435.000
19.86500 402.000
19.88000 416.000
19.89500 414.000
19.91000 425.000
19.92500 417.000
19.94000 416.000
19.95500 398.000
19.97000 420.000
19.98500 419.000
20.00000 430.000
20.01500 432.000
20.03000 453.000
20.04500 446.000
20.06000 439.000
20.07500 474.000
20.09000 425.000
20.10500 392.000
20.12000 422.000
20.13500 458.000
20.15000 456.000
20.16500 425.000
20.18000 435.000
20.19500 447.000
20.21000 442.000
20.22500 454.000
20.24000 448.000
20.25500 431.000
20.27000 437.000
20.28500 453.000
20.30000 468.000
20.31500 440.000
20.33000 429.000
20.34500 430.000
20.36000 425.000
20.37500 456.000
20.39000 498.000
20.40500 460.000
20.42000 473.000
20.43500 497.000
20.45000 443.000
20.46500 422.000
20.48000 467.000
20.49500 456.000
20.51000 473.000
20.52500 466.000
20.54000 441.000
20.55500 492.000
20.57000 467.000
20.58500 464.000
20.60000 466.000
20.61500 471.000
20.63000 476.000
20.64500 475.000
20.66000 454.000
20.67500 452.000
20.69000 472.000
20.70500 494.000
20.72000 534.000
20.73500 521.000
20.75000 482.000
20.76500 512.000
20.78000 500.000
20.79500 504.000
20.81000 496.000
20.82500 495.000
20.84000 515.000
20.85500 532.000
20.87000 560.000
20.88500 561.000
20.90000 562.000
20.91500 573.000
20.93000 605.000
20.94500 606.000
20.96000 602.000
20.97500 642.000
20.99000 645.000
21.00500 655.000
21.02000 577.000
21.03500 587.000
21.05000 595.000
21.06500 579.000
21.08000 562.000
21.09500 551.000
21.11000 552.000
21.12500 566.000
21.14000 529.000
21.15500 542.000
21.17000 517.000
21.18500 497.000
21.20000 461.000
21.21500 517.000
21.23000 533.000
21.24500 509.000
21.26000 476.000
21.27500 482.000
21.29000 491.000
21.30500 514.000
21.32000 508.000
21.33500 458.000
21.35000 467.000
21.36500 474.000
21.38000 504.000
21.39500 471.000
21.41000 449.000
21.42500 480.000
21.44000 497.000
21.45500 489.000
21.47000 471.000
21.48500 464.000
21.50000 442.000
21.51500 501.000
21.53000 477.000
21.54500 474.000
21.56000 491.000
21.57500 467.000
21.59000 445.000
21.60500 463.000
21.62000 488.000
21.63500 487.000
21.65000 428.000
21.66500 439.000
21.68000 440.000
21.69500 457.000
21.71000 434.000
21.72500 452.000
21.74000 453.000
21.75500 420.000
21.77000 448.000
21.78500 471.000
21.80000 447.000
21.81500 477.000
21.83000 478.000
21.84500 437.000
21.86000 468.000
21.87500 467.000
21.89000 457.000
21.90500 444.000
21.92000 448.000
21.93500 442.000
21.95000 414.000
21.96500 455.000
21.98000 456.000
21.99500 453.000
22.01000 435.000
22.02500 460.000
22.04000 448.000
22.05500 434.000
22.07000 459.000
22.08500 491.000
22.10000 468.000
22.11500 460.000
22.13000 471.000
22.14500 463.000
22.16000 452.000
22.17500 422.000
22.19000 443.000
22.20500 424.000
22.22000 435.000
22.23500 482.000
22.25000 474.000
22.26500 477.000
22.28000 457.000
22.29500 439.000
22.31000 426.000
22.32500 420.000
22.34000 451.000
22.35500 459.000
22.37000 463.000
22.38500 473.000
22.40000 423.000
22.41500 451.000
22.43000 437.000
22.44500 449.000
22.46000 500.000
22.47500 465.000
22.49000 442.000
22.50500 440.000
22.52000 455.000
22.53500 449.000
22.55000 453.000
22.56500 456.000
22.58000 418.000
22.59500 459.000
22.61000 453.000
22.62500 460.000
22.64000 441.000
22.65500 444.000
22.67000 434.000
22.68500 466.000
22.70000 460.000
22.71500 446.000
22.73000 438.000
22.74500 449.000
22.76000 457.000
22.77500 446.000
22.79000 481.000
22.80500 463.000
22.82000 465.000
22.83500 438.000
22.85000 426.000
22.86500 447.000
22.88000 415.000
22.89500 449.000
22.91000 473.000
22.92500 447.000
22.94000 454.000
22.95500 439.000
22.97000 422.000
22.98500 431.000
23.00000 417.000
23.01500 443.000
23.03000 460.000
23.04500 452.000
23.06000 477.000
23.07500 461.000
23.09000 465.000
23.10500 448.000
23.12000 453.000
23.13500 491.000
23.15000 485.000
23.16500 475.000
23.18000 468.000
23.19500 447.000
23.21000 441.000
23.22500 424.000
23.24000 470.000
23.25500 481.000
23.27000 467.000
23.28500 465.000
23.30000 428.000
23.31500 449.000
23.33000 452.000
23.34500 468.000
23.36000 462.000
23.37500 455.000
23.39000 480.000
23.40500 446.000
23.42000 420.000
23.43500 454.000
23.45000 447.000
23.46500 420.000
23.48000 482.000
23.49500 438.000
23.51000 446.000
23.52500 479.000
23.54000 445.000
23.55500 473.000
23.57000 498.000
23.58500 461.000
23.60000 456.000
23.61500 460.000
23.63000 475.000
23.64500 465.000
23.66000 450.000
23.67500 469.000
23.69000 487.000
23.70500 485.000
23.72000 459.000
23.73500 490.000
23.75000 469.000
23.76500 485.000
23.78000 444.000
23.79500 452.000
23.81000 459.000
23.82500 442.000
23.84000 462.000
23.85500 478.000
23.87000 492.000
23.88500 462.000
23.90000 499.000
23.91500 470.000
23.93000 479.000
23.94500 489.000
23.96000 486.000
23.97500 479.000
23.99000 467.000
24.00500 477.000
24.02000 469.000
24.03500 466.000
24.05000 482.000
24.06500 481.000
24.08000 514.000
24.09500 459.000
24.11000 478.000
24.12500 483.000
24.14000 481.000
24.15500 491.000
24.17000 505.000
24.18500 495.000
24.20000 517.000
24.21500 517.000
24.23000 489.000
24.24500 503.000
24.26000 503.000
24.27500 539.000
24.29000 535.000
24.30500 522.000
24.32000 537.000
24.33500 535.000
24.35000 506.000
24.36500 508.000
24.38000 500.000
24.39500 523.000
24.41000 524.000
24.42500 526.000
24.44000 506.000
24.45500 511.000
24.47000 502.000
24.48500 510.000
24.50000 513.000
24.51500 486.000
24.53000 554.000
24.54500 489.000
24.56000 514.000
24.57500 535.000
24.59000 525.000
24.60500 506.000
24.62000 499.000
24.63500 501.000
24.65000 499.000
24.66500 502.000
24.68000 490.000
24.69500 494.000
24.71000 528.000
24.72500 507.000
24.74000 528.000
24.75500 536.000
24.77000 525.000
24.78500 507.000
24.80000 498.000
24.81500 521.000
24.83000 519.000
24.84500 523.000
24.86000 523.000
24.87500 521.000
24.89000 553.000
24.90500 525.000
24.92000 510.000
24.93500 509.000
24.95000 503.000
24.96500 536.000
24.98000 512.000
24.99500 521.000
25.01000 482.000
25.02500 520.000
25.04000 535.000
25.05500 542.000
25.07000 518.000
25.08500 514.000
25.10000 527.000
25.11500 498.000
25.13000 440.000
25.14500 477.000
25.16000 510.000
25.17500 486.000
25.19000 507.000
25.20500 513.000
25.22000 515.000
25.23500 500.000
25.25000 507.000
25.26500 521.000
25.28000 489.000
25.29500 528.000
25.31000 531.000
25.32500 514.000
25.34000 497.000
25.35500 492.000
25.37000 540.000
25.38500 549.000
25.40000 523.000
25.41500 501.000
25.43000 555.000
25.44500 523.000
25.46000 513.000
25.47500 535.000
25.49000 552.000
25.50500 546.000
25.52000 519.000
25.53500 561.000
25.55000 542.000
25.56500 547.000
25.58000 561.000
25.59500 534.000
25.61000 547.000
25.62500 535.000
25.64000 505.000
25.65500 549.000
25.67000 566.000
25.68500 540.000
25.70000 568.000
25.71500 556.000
25.73000 551.000
25.74500 547.000
25.76000 554.000
25.77500 545.000
25.79000 561.000
25.80500 557.000
25.82000 523.000
25.83500 567.000
25.85000 543.000
25.86500 574.000
25.88000 543.000
25.89500 557.000
25.91000 536.000
25.92500 557.000
25.94000 579.000
25.95500 565.000
25.97000 566.000
25.98500 601.000
26.00000 590.000
26.01500 568.000
26.03000 558.000
26.04500 611.000
26.06000 605.000
26.07500 624.000
26.09000 653.000
26.10500 621.000
26.12000 640.000
26.13500 634.000
26.15000 686.000
26.16500 686.000
26.18000 709.000
26.19500 701.000
26.21000 732.000
26.22500 727.000
26.24000 780.000
26.25500 737.000
26.27000 759.000
26.28500 822.000
26.30000 812.000
26.31500 894.000
26.33000 905.000
26.34500 873.000
26.36000 910.000
26.37500 920.000
26.39000 912.000
26.40500 962.000
26.42000 908.000
26.43500 894.000
26.45000 914.000
26.46500 864.000
26.48000 850.000
26.49500 807.000
26.51000 822.000
26.52500 823.000
26.54000 783.000
26.55500 758.000
26.57000 764.000
26.58500 769.000
26.60000 741.000
26.61500 722.000
26.63000 727.000
26.64500 700.000
26.66000 732.000
26.67500 704.000
26.69000 701.000
26.70500 681.000
26.72000 697.000
26.73500 712.000
26.75000 748.000
26.76500 698.000
26.78000 668.000
26.79500 662.000
26.81000 702.000
26.82500 657.000
26.84000 608.000
26.85500 637.000
26.87000 659.000
26.88500 690.000
26.90000 703.000
26.91500 644.000
26.93000 636.000
26.94500 628.000
26.96000 640.000
26.97500 661.000
26.99000 618.000
27.00500 601.000
27.02000 630.000
27.03500 624.000
27.05000 633.000
27.06500 640.000
27.08000 651.000
27.09500 631.000
27.11000 624.000
27.12500 645.000
27.14000 632.000
27.15500 659.000
27.17000 595.000
27.18500 590.000
27.20000 607.000
27.21500 611.000
27.23000 582.000
27.24500 581.000
27.26000 585.000
27.27500 618.000
27.29000 594.000
27.30500 578.000
27.32000 581.000
27.33500 630.000
27.35000 604.000
27.36500 565.000
27.38000 564.000
27.39500 548.000
27.41000 571.000
27.42500 553.000
27.44000 567.000
27.45500 606.000
27.47000 605.000
27.48500 606.000
27.50000 569.000
27.51500 592.000
27.53000 602.000
27.54500 587.000
27.56000 595.000
27.57500 604.000
27.59000 598.000
27.60500 599.000
27.62000 595.000
27.63500 633.000
27.65000 576.000
27.66500 569.000
27.68000 630.000
27.69500 615.000
27.71000 631.000
27.72500 621.000
27.74000 650.000
27.75500 636.000
27.77000 634.000
27.78500 652.000
27.80000 680.000
27.81500 663.000
27.83000 656.000
27.84500 704.000
27.86000 708.000
27.87500 684.000
27.89000 671.000
27.90500 687.000
27.92000 711.000
27.93500 675.000
27.95000 699.000
27.96500 711.000
27.98000 717.000
27.99500 717.000
28.01000 746.000
28.02500 760.000
28.04000 781.000
28.05500 774.000
28.07000 835.000
28.08500 775.000
28.10000 775.000
28.11500 694.000
28.13000 659.000
28.14500 691.000
28.16000 659.000
28.17500 628.000
28.19000 627.000
28.20500 613.000
28.22000 598.000
28.23500 565.000
28.25000 623.000
28.26500 558.000
28.28000 554.000
28.29500 537.000
28.31000 505.000
28.32500 513.000
28.34000 514.000
28.35500 514.000
28.37000 500.000
28.38500 537.000
28.40000 541.000
28.41500 491.000
28.43000 486.000
28.44500 506.000
28.46000 486.000
28.47500 502.000
28.49000 515.000
28.50500 514.000
28.52000 507.000
28.53500 500.000
28.55000 505.000
28.56500 485.000
28.58000 467.000
28.59500 498.000
28.61000 508.000
28.62500 484.000
28.64000 503.000
28.65500 495.000
28.67000 507.000
28.68500 469.000
28.70000 492.000
28.71500 482.000
28.73000 494.000
28.74500 503.000
28.76000 470.000
28.77500 512.000
28.79000 526.000
28.80500 538.000
28.82000 543.000
28.83500 534.000
28.85000 520.000
28.86500 514.000
28.88000 553.000
28.89500 525.000
28.91000 542.000
28.92500 563.000
28.94000 569.000
28.95500 562.000
28.97000 593.000
28.98500 610.000
29.00000 669.000
29.01500 626.000
29.03000 647.000
29.04500 690.000
29.06000 637.000
29.07500 620.000
29.09000 655.000
29.10500 660.000
29.12000 664.000
29.13500 658.000
29.15000 621.000
29.16500 638.000
29.18000 596.000
29.19500 625.000
29.21000 614.000
29.22500 600.000
29.24000 598.000
29.25500 594.000
29.27000 559.000
29.28500 577.000
29.30000 579.000
29.31500 557.000
29.33000 542.000
29.34500 525.000
29.36000 535.000
29.37500 541.000
29.39000 552.000
29.40500 553.000
29.42000 519.000
29.43500 489.000
29.45000 488.000
29.46500 490.000
29.48000 458.000
29.49500 484.000
29.51000 475.000
29.52500 449.000
29.54000 438.000
29.55500 439.000
29.57000 446.000
29.58500 451.000
29.60000 444.000
29.61500 419.000
29.63000 430.000
29.64500 436.000
29.66000 444.000
29.67500 459.000
29.69000 460.000
29.70500 423.000
29.72000 426.000
29.73500 384.000
29.75000 398.000
29.76500 403.000
29.78000 406.000
29.79500 420.000
29.81000 437.000
29.82500 426.000
29.84000 407.000
29.85500 437.000
29.87000 404.000
29.88500 425.000
29.90000 422.000
29.91500 368.000
29.93000 413.000
29.94500 400.000
29.96000 402.000
29.97500 367.000
29.99000 407.000
30.00500 395.000
30.02000 401.000
30.03500 425.000
30.05000 410.000
30.06500 387.000
30.08000 378.000
30.09500 390.000
30.11000 408.000
30.12500 390.000
30.14000 379.000
30.15500 390.000
30.17000 394.000
30.18500 396.000
30.20000 405.000
30.21500 379.000
30.23000 371.000
30.24500 388.000
30.26000 385.000
30.27500 376.000
30.29000 369.000
30.30500 393.000
30.32000 417.000
30.33500 377.000
30.35000 368.000
30.36500 344.000
30.38000 366.000
30.39500 360.000
30.41000 366.000
30.42500 388.000
30.44000 377.000
30.45500 392.000
30.47000 383.000
30.48500 381.000
30.50000 373.000
30.51500 345.000
30.53000 360.000
30.54500 364.000
30.56000 328.000
30.57500 366.000
30.59000 344.000
30.60500 368.000
30.62000 370.000
30.63500 365.000
30.65000 359.000
30.66500 351.000
30.68000 373.000
30.69500 365.000
30.71000 381.000
30.72500 354.000
30.74000 354.000
30.75500 353.000
30.77000 366.000
30.78500 361.000
30.80000 337.000
30.81500 358.000
30.83000 344.000
30.84500 345.000
30.86000 333.000
30.87500 342.000
30.89000 361.000
30.90500 326.000
30.92000 338.000
30.93500 341.000
30.95000 360.000
30.96500 360.000
30.98000 345.000
30.99500 347.000
31.01000 362.000
31.02500 354.000
31.04000 350.000
31.05500 347.000
31.07000 355.000
31.08500 364.000
31.10000 354.000
31.11500 361.000
31.13000 343.000
31.14500 334.000
31.16000 332.000
31.17500 345.000
31.19000 345.000
31.20500 364.000
31.22000 363.000
31.23500 344.000
31.25000 342.000
31.26500 339.000
31.28000 331.000
31.29500 334.000
31.31000 332.000
31.32500 328.000
31.34000 368.000
31.35500 341.000
31.37000 349.000
31.38500 335.000
31.40000 320.000
31.41500 330.000
31.43000 314.000
31.44500 345.000
31.46000 343.000
31.47500 337.000
31.49000 308.000
31.50500 348.000
31.52000 342.000
31.53500 334.000
31.55000 319.000
31.56500 327.000
31.58000 340.000
31.59500 344.000
31.61000 328.000
31.62500 313.000
31.64000 320.000
31.65500 372.000
31.67000 363.000
31.68500 355.000
31.70000 356.000
31.71500 341.000
31.73000 321.000
31.74500 318.000
31.76000 320.000
31.77500 349.000
31.79000 322.000
31.80500 356.000
31.82000 343.000
31.83500 334.000
31.85000 335.000
31.86500 322.000
31.88000 309.000
31.89500 314.000
31.91000 334.000
31.92500 305.000
31.94000 334.000
31.95500 313.000
31.97000 334.000
31.98500 351.000
32.00000 337.000
32.01500 329.000
32.03000 340.000
32.04500 356.000
32.06000 372.000
32.07500 342.000
32.09000 350.000
32.10500 359.000
32.12000 314.000
32.13500 347.000
32.15000 366.000
32.16500 377.000
32.18000 386.000
32.19500 362.000
32.21000 369.000
32.22500 397.000
32.24000 411.000
32.25500 418.000
32.27000 391.000
32.28500 395.000
32.30000 437.000
32.31500 410.000
32.33000 415.000
32.34500 385.000
32.36000 405.000
32.37500 384.000
32.39000 390.000
32.40500 399.000
32.42000 366.000
32.43500 364.000
32.45000 369.000
32.46500 369.000
32.48000 378.000
32.49500 348.000
32.51000 349.000
32.52500 351.000
32.54000 316.000
32.55500 331.000
32.57000 317.000
32.58500 351.000
32.60000 357.000
32.61500 319.000
32.63000 324.000
32.64500 335.000
32.66000 363.000
32.67500 341.000
32.69000 321.000
32.70500 302.000
32.72000 305.000
32.73500 325.000
32.75000 321.000
32.76500 308.000
32.78000 294.000
32.79500 310.000
32.81000 313.000
32.82500 304.000
32.84000 289.000
32.85500 290.000
32.87000 296.000
32.88500 302.000
32.90000 314.000
32.91500 306.000
32.93000 322.000
32.94500 312.000
32.96000 326.000
32.97500 288.000
32.99000 269.000
33.00500 300.000
33.02000 322.000
33.03500 324.000
33.05000 310.000
33.06500 307.000
33.08000 294.000
33.09500 352.000
33.11000 311.000
33.12500 291.000
33.14000 287.000
33.15500 297.000
33.17000 295.000
33.18500 284.000
33.20000 306.000
33.21500 303.000
33.23000 294.000
33.24500 305.000
33.26000 306.000
33.27500 313.000
33.29000 303.000
33.30500 285.000
33.32000 274.000
33.33500 302.000
33.35000 285.000
33.36500 289.000
33.38000 298.000
33.39500 315.000
33.41000 302.000
33.42500 282.000
33.44000 302.000
33.45500 288.000
33.47000 282.000
33.48500 309.000
33.50000 317.000
33.51500 318.000
33.53000 290.000
33.54500 291.000
33.56000 285.000
33.57500 288.000
33.59000 304.000
33.60500 296.000
33.62000 287.000
33.63500 281.000
33.65000 320.000
33.66500 303.000
33.68000 303.000
33.69500 293.000
33.71000 294.000
33.72500 284.000
33.74000 277.000
33.75500 290.000
33.77000 287.000
33.78500 282.000
33.80000 319.000
33.81500 294.000
33.83000 299.000
33.84500 293.000
33.86000 280.000
33.87500 288.000
33.89000 284.000
33.90500 298.000
33.92000 279.000
33.93500 282.000
33.95000 263.000
33.96500 272.000
33.98000 294.000
33.99500 303.000
34.01000 303.000
34.02500 301.000
34.04000 281.000
34.05500 261.000
34.07000 272.000
34.08500 293.000
34.10000 301.000
34.11500 282.000
34.13000 268.000
34.14500 271.000
34.16000 283.000
34.17500 287.000
34.19000 278.000
34.20500 278.000
34.22000 272.000
34.23500 268.000
34.25000 272.000
34.26500 269.000
34.28000 270.000
34.29500 254.000
34.31000 262.000
34.32500 273.000
34.34000 268.000
34.35500 260.000
34.37000 242.000
34.38500 258.000
34.40000 275.000
34.41500 275.000
34.43000 257.000
34.44500 251.000
34.46000 254.000
34.47500 263.000
34.49000 286.000
34.50500 271.000
34.52000 250.000
34.53500 261.000
34.55000 275.000
34.56500 281.000
34.58000 262.000
34.59500 260.000
34.61000 288.000
34.62500 300.000
34.64000 276.000
34.65500 248.000
34.67000 234.000
34.68500 260.000
34.70000 254.000
34.71500 240.000
34.73000 244.000
34.74500 262.000
34.76000 246.000
34.77500 263.000
34.79000 261.000
34.80500 257.000
34.82000 275.000
34.83500 281.000
34.85000 259.000
34.86500 265.000
34.88000 264.000
34.89500 270.000
34.91000 250.000
34.92500 253.000
34.94000 283.000
34.95500 262.000
34.97000 244.000
34.98500 258.000
35.00000 239.000
35.01500 245.000
35.03000 242.000
35.04500 259.000
35.06000 256.000
35.07500 275.000
35.09000 272.000
35.10500 233.000
35.12000 254.000
35.13500 259.000
35.15000 248.000
35.16500 252.000
35.18000 263.000
35.19500 266.000
35.21000 253.000
35.22500 254.000
35.24000 270.000
35.25500 266.000
35.27000 269.000
35.28500 249.000
35.30000 242.000
35.31500 253.000
35.33000 237.000
35.34500 275.000
35.36000 264.000
35.37500 242.000
35.39000 238.000
35.40500 237.000
35.42000 230.000
35.43500 249.000
35.45000 240.000
35.46500 224.000
35.48000 227.000
35.49500 232.000
35.51000 244.000
35.52500 232.000
35.54000 250.000
35.55500 244.000
35.57000 233.000
35.58500 234.000
35.60000 237.000
35.61500 247.000
35.63000 255.000
35.64500 250.000
35.66000 233.000
35.67500 244.000
35.69000 258.000
35.70500 249.000
35.72000 256.000
35.73500 250.000
35.75000 224.000
35.76500 243.000
35.78000 244.000
35.79500 232.000
35.81000 256.000
35.82500 258.000
35.84000 253.000
35.85500 240.000
35.87000 231.000
35.88500 253.000
35.90000 262.000
35.91500 242.000
35.93000 260.000
35.94500 229.000
35.96000 229.000
35.97500 223.000
35.99000 213.000
36.00500 229.000
36.02000 227.000
36.03500 253.000
36.05000 227.000
36.06500 239.000
36.08000 223.000
36.09500 227.000
36.11000 252.000
36.12500 237.000
36.14000 247.000
36.15500 234.000
36.17000 255.000
36.18500 218.000
36.20000 244.000
36.21500 219.000
36.23000 234.000
36.24500 255.000
36.26000 238.000
36.27500 223.000
36.29000 229.000
36.30500 223.000
36.32000 218.000
36.33500 229.000
36.35000 239.000
36.36500 239.000
36.38000 239.000
36.39500 230.000
36.41000 243.000
36.42500 226.000
36.44000 228.000
36.45500 238.000
36.47000 215.000
36.48500 223.000
36.50000 230.000
36.51500 240.000
36.53000 221.000
36.54500 220.000
36.56000 215.000
36.57500 227.000
36.59000 223.000
36.60500 193.000
36.62000 218.000
36.63500 216.000
36.65000 240.000
36.66500 232.000
36.68000 217.000
36.69500 232.000
36.71000 216.000
36.72500 239.000
36.74000 220.000
36.75500 211.000
36.77000 205.000
36.78500 213.000
36.80000 227.000
36.81500 241.000
36.83000 207.000
36.84500 204.000
36.86000 221.000
36.87500 213.000
36.89000 194.000
36.90500 232.000
36.92000 232.000
36.93500 219.000
36.95000 221.000
36.96500 220.000
36.98000 206.000
36.99500 210.000
37.01000 240.000
37.02500 229.000
37.04000 219.000
37.05500 210.000
37.07000 223.000
37.08500 219.000
37.10000 210.000
37.11500 213.000
37.13000 205.000
37.14500 215.000
37.16000 206.000
37.17500 196.000
37.19000 211.000
37.20500 215.000
37.22000 205.000
37.23500 195.000
37.25000 210.000
37.26500 197.000
37.28000 199.000
37.29500 199.000
37.31000 203.000
37.32500 205.000
37.34000 209.000
37.35500 205.000
37.37000 211.000
37.38500 212.000
37.40000 200.000
37.41500 207.000
37.43000 200.000
37.44500 202.000
37.46000 211.000
37.47500 204.000
37.49000 216.000
37.50500 201.000
37.52000 217.000
37.53500 210.000
37.55000 227.000
37.56500 217.000
37.58000 229.000
37.59500 236.000
37.61000 236.000
37.62500 229.000
37.64000 221.000
37.65500 217.000
37.67000 195.000
37.68500 183.000
37.70000 196.000
37.71500 199.000
37.73000 203.000
37.74500 208.000
37.76000 211.000
37.77500 219.000
37.79000 199.000
37.80500 232.000
37.82000 211.000
37.83500 199.000
37.85000 212.000
37.86500 207.000
37.88000 184.000
37.89500 196.000
37.91000 206.000
37.92500 199.000
37.94000 182.000
37.95500 190.000
37.97000 195.000
37.98500 213.000
38.00000 210.000
38.01500 178.000
38.03000 199.000
38.04500 211.000
38.06000 209.000
38.07500 206.000
38.09000 201.000
38.10500 199.000
38.12000 204.000
38.13500 202.000
38.15000 201.000
38.16500 200.000
38.18000 198.000
38.19500 196.000
38.21000 184.000
38.22500 200.000
38.24000 198.000
38.25500 190.000
38.27000 212.000
38.28500 191.000
38.30000 194.000
38.31500 199.000
38.33000 215.000
38.34500 178.000
38.36000 187.000
38.37500 188.000
38.39000 196.000
38.40500 211.000
38.42000 195.000
38.43500 198.000
38.45000 206.000
38.46500 200.000
38.48000 211.000
38.49500 184.000
38.51000 189.000
38.52500 195.000
38.54000 197.000
38.55500 206.000
38.57000 216.000
38.58500 212.000
38.60000 184.000
38.61500 185.000
38.63000 192.000
38.64500 200.000
38.66000 193.000
38.67500 184.000
38.69000 194.000
38.70500 194.000
38.72000 183.000
38.73500 185.000
38.75000 200.000
38.76500 207.000
38.78000 200.000
38.79500 195.000
38.81000 190.000
38.82500 184.000
38.84000 194.000
38.85500 217.000
38.87000 185.000
38.88500 173.000
38.90000 187.000
38.91500 208.000
38.93000 201.000
38.94500 188.000
38.96000 193.000
38.97500 212.000
38.99000 236.000
39.00500 215.000
39.02000 202.000
39.03500 205.000
39.05000 188.000
39.06500 193.000
39.08000 208.000
39.09500 195.000
39.11000 223.000
39.12500 218.000
39.14000 207.000
39.15500 198.000
39.17000 207.000
39.18500 199.000
39.20000 204.000
39.21500 189.000
39.23000 195.000
39.24500 202.000
39.26000 177.000
39.27500 192.000
39.29000 198.000
39.30500 205.000
39.32000 196.000
39.33500 202.000
39.35000 204.000
39.36500 208.000
39.38000 221.000
39.39500 224.000
39.41000 232.000
39.42500 208.000
39.44000 192.000
39.45500 229.000
39.47000 221.000
39.48500 218.000
39.50000 212.000
39.51500 193.000
39.53000 197.000
39.54500 186.000
39.56000 168.000
39.57500 181.000
39.59000 183.000
39.60500 198.000
39.62000 184.000
39.63500 190.000
39.65000 217.000
39.66500 202.000
39.68000 204.000
39.69500 210.000
39.71000 183.000
39.72500 185.000
39.74000 195.000
39.75500 200.000
39.77000 188.000
39.78500 197.000
39.80000 193.000
39.81500 181.000
39.83000 194.000
39.84500 190.000
39.86000 197.000
39.87500 192.000
39.89000 199.000
39.90500 168.000
39.92000 169.000
39.93500 186.000
39.95000 173.000
39.96500 193.000
39.98000 195.000
39.99500 191.000
40.01000 192.000
40.02500 196.000
40.04000 199.000
40.05500 200.000
40.07000 188.000
40.08500 194.000
40.10000 200.000
40.11500 185.000
40.13000 193.000
40.14500 193.000
40.16000 188.000
40.17500 219.000
40.19000 188.000
40.20500 175.000
40.22000 181.000
40.23500 191.000
40.25000 201.000
40.26500 206.000
40.28000 183.000
40.29500 187.000
40.31000 187.000
40.32500 190.000
40.34000 177.000
40.35500 179.000
40.37000 183.000
40.38500 181.000
40.40000 195.000
40.41500 176.000
40.43000 195.000
40.44500 193.000
40.46000 181.000
40.47500 196.000
40.49000 177.000
40.50500 180.000
40.52000 174.000
40.53500 197.000
40.55000 200.000
40.56500 183.000
40.58000 186.000
40.59500 194.000
40.61000 199.000
40.62500 185.000
40.64000 192.000
40.65500 210.000
40.67000 210.000
40.68500 181.000
40.70000 203.000
40.71500 191.000
40.73000 197.000
40.74500 198.000
40.76000 172.000
40.77500 196.000
40.79000 186.000
40.80500 191.000
40.82000 202.000
40.83500 169.000
40.85000 191.000
40.86500 169.000
40.88000 179.000
40.89500 180.000
40.91000 188.000
40.92500 183.000
40.94000 205.000
40.95500 179.000
40.97000 168.000
40.98500 177.000
41.00000 166.000
41.01500 200.000
41.03000 175.000
41.04500 175.000
41.06000 191.000
41.07500 164.000
41.09000 196.000
41.10500 200.000
41.12000 189.000
41.13500 186.000
41.15000 185.000
41.16500 199.000
41.18000 208.000
41.19500 200.000
41.21000 179.000
41.22500 189.000
41.24000 193.000
41.25500 193.000
41.27000 190.000
41.28500 180.000
41.30000 180.000
41.31500 171.000
41.33000 184.000
41.34500 191.000
41.36000 206.000
41.37500 202.000
41.39000 193.000
41.40500 212.000
41.42000 197.000
41.43500 188.000
41.45000 194.000
41.46500 191.000
41.48000 210.000
41.49500 206.000
41.51000 170.000
41.52500 198.000
41.54000 189.000
41.55500 206.000
41.57000 191.000
41.58500 203.000
41.60000 181.000
41.61500 167.000
41.63000 166.000
41.64500 167.000
41.66000 186.000
41.67500 194.000
41.69000 201.000
41.70500 169.000
41.72000 178.000
41.73500 174.000
41.75000 192.000
41.76500 174.000
41.78000 188.000
41.79500 176.000
41.81000 185.000
41.82500 190.000
41.84000 185.000
41.85500 188.000
41.87000 187.000
41.88500 189.000
41.90000 205.000
41.91500 168.000
41.93000 178.000
41.94500 195.000
41.96000 184.000
41.97500 185.000
41.99000 180.000
42.00500 190.000
42.02000 183.000
42.03500 187.000
42.05000 183.000
42.06500 189.000
42.08000 194.000
42.09500 180.000
42.11000 189.000
42.12500 210.000
42.14000 203.000
42.15500 187.000
42.17000 177.000
42.18500 195.000
42.20000 191.000
42.21500 187.000
42.23000 182.000
42.24500 216.000
42.26000 207.000
42.27500 230.000
42.29000 216.000
42.30500 190.000
42.32000 199.000
42.33500 203.000
42.35000 188.000
42.36500 192.000
42.38000 199.000
42.39500 203.000
42.41000 220.000
42.42500 192.000
42.44000 200.000
42.45500 191.000
42.47000 192.000
42.48500 214.000
42.50000 212.000
42.51500 210.000
42.53000 198.000
42.54500 189.000
42.56000 207.000
42.57500 189.000
42.59000 201.000
42.60500 209.000
42.62000 213.000
42.63500 222.000
42.65000 208.000
42.66500 200.000
42.68000 189.000
42.69500 217.000
42.71000 220.000
42.72500 208.000
42.74000 224.000
42.75500 212.000
42.77000 227.000
42.78500 213.000
42.80000 209.000
42.81500 224.000
42.83000 203.000
42.84500 218.000
42.86000 229.000
42.87500 218.000
42.89000 214.000
42.90500 198.000
42.92000 208.000
42.93500 208.000
42.95000 205.000
42.96500 213.000
42.98000 197.000
42.99500 189.000
43.01000 197.000
43.02500 198.000
43.04000 208.000
43.05500 207.000
43.07000 207.000
43.08500 203.000
43.10000 204.000
43.11500 208.000
43.13000 209.000
43.14500 220.000
43.16000 211.000
43.17500 203.000
43.19000 175.000
43.20500 188.000
43.22000 185.000
43.23500 201.000
43.25000 196.000
43.26500 200.000
43.28000 187.000
43.29500 180.000
43.31000 192.000
43.32500 192.000
43.34000 192.000
43.35500 208.000
43.37000 189.000
43.38500 187.000
43.40000 176.000
43.41500 194.000
43.43000 183.000
43.44500 167.000
43.46000 166.000
43.47500 177.000
43.49000 196.000
43.50500 203.000
43.52000 200.000
43.53500 200.000
43.55000 190.000
43.56500 188.000
43.58000 187.000
43.59500 165.000
43.61000 184.000
43.62500 190.000
43.64000 185.000
43.65500 200.000
43.67000 193.000
43.68500 177.000
43.70000 155.000
43.71500 197.000
43.73000 200.000
43.74500 204.000
43.76000 200.000
43.77500 199.000
43.79000 168.000
43.80500 189.000
43.82000 191.000
43.83500 176.000
43.85000 179.000
43.86500 190.000
43.88000 178.000
43.89500 177.000
43.91000 181.000
43.92500 186.000
43.94000 188.000
43.95500 168.000
43.97000 175.000
43.98500 176.000
44.00000 185.000
44.01500 189.000
44.03000 201.000
44.04500 208.000
44.06000 214.000
44.07500 168.000
44.09000 161.000
44.10500 183.000
44.12000 192.000
44.13500 186.000
44.15000 198.000
44.16500 209.000
44.18000 177.000
44.19500 193.000
44.21000 177.000
44.22500 178.000
44.24000 208.000
44.25500 194.000
44.27000 202.000
44.28500 180.000
44.30000 172.000
44.31500 198.000
44.33000 192.000
44.34500 199.000
44.36000 202.000
44.37500 198.000
44.39000 222.000
44.40500 187.000
44.42000 170.000
44.43500 180.000
44.45000 191.000
44.46500 222.000
44.48000 207.000
44.49500 189.000
44.51000 207.000
44.52500 222.000
44.54000 219.000
44.55500 200.000
44.57000 201.000
44.58500 208.000
44.60000 239.000
44.61500 206.000
44.63000 200.000
44.64500 217.000
44.66000 231.000
44.67500 238.000
44.69000 210.000
44.70500 202.000
44.72000 210.000
44.73500 207.000
44.75000 202.000
44.76500 205.000
44.78000 208.000
44.79500 214.000
44.81000 211.000
44.82500 225.000
44.84000 226.000
44.85500 225.000
44.87000 214.000
44.88500 208.000
44.90000 214.000
44.91500 226.000
44.93000 215.000
44.94500 201.000
44.96000 210.000
44.97500 217.000
44.99000 205.000
45.00500 188.000
45.02000 225.000
45.03500 216.000
45.05000 189.000
45.06500 197.000
45.08000 193.000
45.09500 209.000
45.11000 204.000
45.12500 196.000
45.14000 185.000
45.15500 209.000
45.17000 207.000
45.18500 196.000
45.20000 199.000
45.21500 182.000
45.23000 186.000
45.24500 195.000
45.26000 204.000
45.27500 183.000
45.29000 198.000
45.30500 189.000
45.32000 195.000
45.33500 192.000
45.35000 187.000
45.36500 196.000
45.38000 199.000
45.39500 188.000
45.41000 185.000
45.42500 197.000
45.44000 191.000
45.45500 198.000
45.47000 206.000
45.48500 214.000
45.50000 187.000
45.51500 185.000
45.53000 183.000
45.54500 181.000
45.56000 185.000
45.57500 195.000
45.59000 209.000
45.60500 191.000
45.62000 184.000
45.63500 194.000
45.65000 176.000
45.66500 185.000
45.68000 194.000
45.69500 193.000
45.71000 192.000
45.72500 174.000
45.74000 192.000
45.75500 170.000
45.77000 185.000
45.78500 185.000
45.80000 178.000
45.81500 177.000
45.83000 180.000
45.84500 178.000
45.86000 181.000
45.87500 197.000
45.89000 189.000
45.90500 184.000
45.92000 190.000
45.93500 177.000
45.95000 181.000
45.96500 181.000
45.98000 188.000
45.99500 208.000
46.01000 188.000
46.02500 169.000
46.04000 184.000
46.05500 196.000
46.07000 181.000
46.08500 194.000
46.10000 197.000
46.11500 167.000
46.13000 168.000
46.14500 189.000
46.16000 190.000
46.17500 174.000
46.19000 172.000
46.20500 174.000
46.22000 172.000
46.23500 167.000
46.25000 165.000
46.26500 193.000
46.28000 173.000
46.29500 169.000
46.31000 176.000
46.32500 168.000
46.34000 171.000
46.35500 184.000
46.37000 163.000
46.38500 172.000
46.40000 200.000
46.41500 197.000
46.43000 189.000
46.44500 175.000
46.46000 175.000
46.47500 162.000
46.49000 155.000
46.50500 181.000
46.52000 173.000
46.53500 181.000
46.55000 178.000
46.56500 191.000
46.58000 178.000
46.59500 183.000
46.61000 173.000
46.62500 181.000
46.64000 158.000
46.65500 168.000
46.67000 176.000
46.68500 166.000
46.70000 170.000
46.71500 160.000
46.73000 199.000
46.74500 185.000
46.76000 176.000
46.77500 192.000
46.79000 181.000
46.80500 173.000
46.82000 174.000
46.83500 171.000
46.85000 153.000
46.86500 171.000
46.88000 177.000
46.89500 161.000
46.91000 163.000
46.92500 166.000
46.94000 163.000
46.95500 168.000
46.97000 169.000
46.98500 180.000
47.00000 167.000
47.01500 173.000
47.03000 167.000
47.04500 177.000
47.06000 178.000
47.07500 171.000
47.09000 177.000
47.10500 177.000
47.12000 185.000
47.13500 177.000
47.15000 165.000
47.16500 168.000
47.18000 161.000
47.19500 192.000
47.21000 174.000
47.22500 152.000
47.24000 163.000
47.25500 157.000
47.27000 153.000
47.28500 181.000
47.30000 166.000
47.31500 192.000
47.33000 160.000
47.34500 161.000
47.36000 177.000
47.37500 157.000
47.39000 179.000
47.40500 176.000
47.42000 159.000
47.43500 164.000
47.45000 166.000
47.46500 162.000
47.48000 166.000
47.49500 189.000
47.51000 193.000
47.52500 159.000
47.54000 146.000
47.55500 159.000
47.57000 162.000
47.58500 158.000
47.60000 161.000
47.61500 143.000
47.63000 157.000
47.64500 161.000
47.66000 166.000
47.67500 167.000
47.69000 173.000
47.70500 151.000
47.72000 162.000
47.73500 162.000
47.75000 161.000
47.76500 170.000
47.78000 164.000
47.79500 153.000
47.81000 160.000
47.82500 160.000
47.84000 140.000
47.85500 144.000
47.87000 148.000
47.88500 165.000
47.90000 150.000
47.91500 152.000
47.93000 175.000
47.94500 171.000
47.96000 171.000
47.97500 163.000
47.99000 182.000
48.00500 137.000
48.02000 176.000
48.03500 184.000
48.05000 172.000
48.06500 165.000
48.08000 141.000
48.09500 173.000
48.11000 152.000
48.12500 151.000
48.14000 152.000
48.15500 157.000
48.17000 143.000
48.18500 145.000
48.20000 153.000
48.21500 165.000
48.23000 168.000
48.24500 153.000
48.26000 152.000
48.27500 167.000
48.29000 165.000
48.30500 167.000
48.32000 158.000
48.33500 158.000
48.35000 165.000
48.36500 153.000
48.38000 158.000
48.39500 164.000
48.41000 173.000
48.42500 163.000
48.44000 144.000
48.45500 165.000
48.47000 154.000
48.48500 170.000
48.50000 156.000
48.51500 148.000
48.53000 160.000
48.54500 159.000
48.56000 160.000
48.57500 141.000
48.59000 137.000
48.60500 151.000
48.62000 159.000
48.63500 174.000
48.65000 165.000
48.66500 165.000
48.68000 139.000
48.69500 157.000
48.71000 157.000
48.72500 165.000
48.74000 151.000
48.75500 168.000
48.77000 158.000
48.78500 152.000
48.80000 150.000
48.81500 148.000
48.83000 165.000
48.84500 158.000
48.86000 157.000
48.87500 152.000
48.89000 140.000
48.90500 132.000
48.92000 157.000
48.93500 170.000
48.95000 179.000
48.96500 150.000
48.98000 158.000
48.99500 171.000
49.01000 170.000
49.02500 173.000
49.04000 166.000
49.05500 163.000
49.07000 155.000
49.08500 166.000
49.10000 160.000
49.11500 147.000
49.13000 138.000
49.14500 136.000
49.16000 172.000
49.17500 149.000
49.19000 164.000
49.20500 158.000
49.22000 161.000
49.23500 147.000
49.25000 156.000
49.26500 137.000
49.28000 156.000
49.29500 163.000
49.31000 160.000
49.32500 148.000
49.34000 152.000
49.35500 150.000
49.37000 145.000
49.38500 161.000
49.40000 158.000
49.41500 147.000
49.43000 178.000
49.44500 159.000
49.46000 161.000
49.47500 161.000
49.49000 171.000
49.50500 180.000
49.52000 158.000
49.53500 157.000
49.55000 165.000
49.56500 171.000
49.58000 162.000
49.59500 139.000
49.61000 148.000
49.62500 159.000
49.64000 163.000
49.65500 146.000
49.67000 159.000
49.68500 145.000
49.70000 154.000
49.71500 157.000
49.73000 158.000
49.74500 152.000
49.76000 132.000
49.77500 156.000
49.79000 165.000
49.80500 166.000
49.82000 151.000
49.83500 144.000
49.85000 160.000
49.86500 161.000
49.88000 164.000
49.89500 162.000
49.91000 175.000
49.92500 163.000
49.94000 170.000
49.95500 168.000
49.97000 146.000
49.98500 153.000
50.00000 143.000
50.01500 169.000
50.03000 152.000
50.04500 164.000
50.06000 176.000
50.07500 157.000
50.09000 150.000
50.10500 166.000
50.12000 162.000
50.13500 165.000
50.15000 182.000
50.16500 179.000
50.18000 168.000
50.19500 147.000
50.21000 169.000
50.22500 176.000
50.24000 181.000
50.25500 151.000
50.27000 141.000
50.28500 162.000
50.30000 162.000
50.31500 158.000
50.33000 165.000
50.34500 159.000
50.36000 161.000
50.37500 151.000
50.39000 156.000
50.40500 172.000
50.42000 162.000
50.43500 166.000
50.45000 166.000
50.46500 167.000
50.48000 173.000
50.49500 164.000
50.51000 160.000
50.52500 182.000
50.54000 169.000
50.55500 166.000
50.57000 155.000
50.58500 156.000
50.60000 159.000
50.61500 175.000
50.63000 182.000
50.64500 184.000
50.66000 176.000
50.67500 171.000
50.69000 168.000
50.70500 175.000
50.72000 162.000
50.73500 165.000
50.75000 173.000
50.76500 176.000
50.78000 179.000
50.79500 167.000
50.81000 177.000
50.82500 185.000
50.84000 173.000
50.85500 185.000
50.87000 188.000
50.88500 198.000
50.90000 182.000
50.91500 188.000
50.93000 196.000
50.94500 191.000
50.96000 183.000
50.97500 173.000
50.99000 180.000
51.00500 192.000
51.02000 168.000
51.03500 166.000
51.05000 183.000
51.06500 179.000
51.08000 163.000
51.09500 159.000
51.11000 169.000
51.12500 184.000
51.14000 181.000
51.15500 176.000
51.17000 176.000
51.18500 173.000
51.20000 167.000
51.21500 160.000
51.23000 191.000
51.24500 174.000
51.26000 160.000
51.27500 165.000
51.29000 185.000
51.30500 160.000
51.32000 165.000
51.33500 145.000
51.35000 148.000
51.36500 153.000
51.38000 156.000
51.39500 167.000
51.41000 162.000
51.42500 162.000
51.44000 161.000
51.45500 155.000
51.47000 151.000
51.48500 163.000
51.50000 153.000
51.51500 146.000
51.53000 161.000
51.54500 161.000
51.56000 168.000
51.57500 149.000
51.59000 153.000
51.60500 170.000
51.62000 165.000
51.63500 168.000
51.65000 159.000
51.66500 145.000
51.68000 153.000
51.69500 145.000
51.71000 156.000
51.72500 156.000
51.74000 162.000
51.75500 144.000
51.77000 151.000
51.78500 163.000
51.80000 167.000
51.81500 149.000
51.83000 147.000
51.84500 142.000
51.86000 151.000
51.87500 145.000
51.89000 163.000
51.90500 148.000
51.92000 147.000
51.93500 138.000
51.95000 152.000
51.96500 162.000
51.98000 155.000
51.99500 143.000
52.01000 147.000
52.02500 159.000
52.04000 138.000
52.05500 128.000
52.07000 142.000
52.08500 153.000
52.10000 163.000
52.11500 168.000
52.13000 155.000
52.14500 161.000
52.16000 126.000
52.17500 150.000
52.19000 151.000
52.20500 162.000
52.22000 177.000
52.23500 173.000
52.25000 163.000
52.26500 147.000
52.28000 158.000
52.29500 149.000
52.31000 151.000
52.32500 146.000
52.34000 144.000
52.35500 142.000
52.37000 141.000
52.38500 134.000
52.40000 178.000
52.41500 139.000
52.43000 146.000
52.44500 139.000
52.46000 143.000
52.47500 163.000
52.49000 159.000
52.50500 172.000
52.52000 139.000
52.53500 145.000
52.55000 149.000
52.56500 128.000
52.58000 155.000
52.59500 145.000
52.61000 144.000
52.62500 139.000
52.64000 151.000
52.65500 165.000
52.67000 148.000
52.68500 148.000
52.70000 142.000
52.71500 139.000
52.73000 151.000
52.74500 137.000
52.76000 141.000
52.77500 142.000
52.79000 152.000
52.80500 151.000
52.82000 152.000
52.83500 144.000
52.85000 142.000
52.86500 140.000
52.88000 148.000
52.89500 153.000
52.91000 151.000
52.92500 137.000
52.94000 152.000
52.95500 154.000
52.97000 128.000
52.98500 124.000
53.00000 144.000
53.01500 143.000
53.03000 134.000
53.04500 160.000
53.06000 143.000
53.07500 140.000
53.09000 139.000
53.10500 146.000
53.12000 144.000
53.13500 139.000
53.15000 147.000
53.16500 154.000
53.18000 164.000
53.19500 145.000
53.21000 164.000
53.22500 157.000
53.24000 171.000
53.25500 166.000
53.27000 150.000
53.28500 150.000
53.30000 155.000
53.31500 156.000
53.33000 140.000
53.34500 134.000
53.36000 139.000
53.37500 154.000
53.39000 156.000
53.40500 150.000
53.42000 149.000
53.43500 157.000
53.45000 154.000
53.46500 159.000
53.48000 168.000
53.49500 150.000
53.51000 149.000
53.52500 161.000
53.54000 162.000
53.55500 158.000
53.57000 157.000
53.58500 137.000
53.60000 155.000
53.61500 151.000
53.63000 166.000
53.64500 132.000
53.66000 145.000
53.67500 145.000
53.69000 156.000
53.70500 145.000
53.72000 153.000
53.73500 151.000
53.75000 143.000
53.76500 152.000
53.78000 169.000
53.79500 171.000
53.81000 154.000
53.82500 149.000
53.84000 147.000
53.85500 149.000
53.87000 148.000
53.88500 148.000
53.90000 159.000
53.91500 142.000
53.93000 134.000
53.94500 142.000
53.96000 160.000
53.97500 167.000
53.99000 174.000
54.00500 176.000
54.02000 162.000
54.03500 149.000
54.05000 165.000
54.06500 172.000
54.08000 164.000
54.09500 161.000
54.11000 170.000
54.12500 174.000
54.14000 161.000
54.15500 170.000
54.17000 169.000
54.18500 165.000
54.20000 178.000
54.21500 173.000
54.23000 173.000
54.24500 181.000
54.26000 170.000
54.27500 173.000
54.29000 164.000
54.30500 174.000
54.32000 169.000
54.33500 182.000
54.35000 185.000
54.36500 167.000
54.38000 188.000
54.39500 165.000
54.41000 178.000
54.42500 186.000
54.44000 174.000
54.45500 185.000
54.47000 164.000
54.48500 178.000
54.50000 173.000
54.51500 179.000
54.53000 193.000
54.54500 179.000
54.56000 181.000
54.57500 162.000
54.59000 178.000
54.60500 171.000
54.62000 171.000
54.63500 173.000
54.65000 178.000
54.66500 179.000
54.68000 198.000
54.69500 177.000
54.71000 155.000
54.72500 165.000
54.74000 162.000
54.75500 166.000
54.77000 161.000
54.78500 171.000
54.80000 141.000
54.81500 144.000
54.83000 157.000
54.84500 148.000
54.86000 178.000
54.87500 162.000
54.89000 158.000
54.90500 161.000
54.92000 150.000
54.93500 154.000
54.95000 149.000
54.96500 174.000
54.98000 157.000
54.99500 161.000
55.01000 161.000
55.02500 153.000
55.04000 164.000
55.05500 190.000
55.07000 176.000
55.08500 166.000
55.10000 166.000
55.11500 168.000
55.13000 148.000
55.14500 149.000
55.16000 168.000
55.17500 155.000
55.19000 164.000
55.20500 137.000
55.22000 154.000
55.23500 152.000
55.25000 165.000
55.26500 147.000
55.28000 158.000
55.29500 149.000
55.31000 158.000
55.32500 164.000
55.34000 162.000
55.35500 164.000
55.37000 154.000
55.38500 143.000
55.40000 152.000
55.41500 150.000
55.43000 149.000
55.44500 154.000
55.46000 160.000
55.47500 127.000
55.49000 134.000
55.50500 159.000
55.52000 156.000
55.53500 154.000
55.55000 134.000
55.56500 132.000
55.58000 157.000
55.59500 159.000
55.61000 153.000
55.62500 159.000
55.64000 156.000
55.65500 158.000
55.67000 145.000
55.68500 154.000
55.70000 162.000
55.71500 146.000
55.73000 146.000
55.74500 141.000
55.76000 126.000
55.77500 150.000
55.79000 143.000
55.80500 150.000
55.82000 140.000
55.83500 145.000
55.85000 161.000
55.86500 141.000
55.88000 131.000
55.89500 141.000
55.91000 132.000
55.92500 144.000
55.94000 143.000
55.95500 151.000
55.97000 132.000
55.98500 146.000
56.00000 151.000
56.01500 150.000
56.03000 142.000
56.04500 143.000
56.06000 145.000
56.07500 120.000
56.09000 137.000
56.10500 143.000
56.12000 139.000
56.13500 142.000
56.15000 129.000
56.16500 169.000
56.18000 155.000
56.19500 154.000
56.21000 142.000
56.22500 143.000
56.24000 142.000
56.25500 130.000
56.27000 145.000
56.28500 137.000
56.30000 139.000
56.31500 143.000
56.33000 129.000
56.34500 145.000
56.36000 149.000
56.37500 138.000
56.39000 133.000
56.40500 118.000
56.42000 130.000
56.43500 148.000
56.45000 162.000
56.46500 149.000
56.48000 147.000
56.49500 144.000
56.51000 136.000
56.52500 159.000
56.54000 134.000
56.55500 139.000
56.57000 141.000
56.58500 141.000
56.60000 133.000
56.61500 141.000
56.63000 152.000
56.64500 145.000
56.66000 140.000
56.67500 149.000
56.69000 141.000
56.70500 136.000
56.72000 146.000
56.73500 148.000
56.75000 138.000
56.76500 129.000
56.78000 131.000
56.79500 129.000
56.81000 129.000
56.82500 140.000
56.84000 140.000
56.85500 125.000
56.87000 133.000
56.88500 130.000
56.90000 135.000
56.91500 153.000
56.93000 148.000
56.94500 150.000
56.96000 138.000
56.97500 141.000
56.99000 127.000
57.00500 147.000
57.02000 130.000
57.03500 148.000
57.05000 133.000
57.06500 132.000
57.08000 144.000
57.09500 133.000
57.11000 133.000
57.12500 137.000
57.14000 149.000
57.15500 151.000
57.17000 139.000
57.18500 126.000
57.20000 136.000
57.21500 135.000
57.23000 151.000
57.24500 153.000
57.26000 145.000
57.27500 141.000
57.29000 139.000
57.30500 138.000
57.32000 152.000
57.33500 145.000
57.35000 137.000
57.36500 151.000
57.38000 145.000
57.39500 146.000
57.41000 145.000
57.42500 143.000
57.44000 141.000
57.45500 135.000
57.47000 139.000
57.48500 142.000
57.50000 142.000
57.51500 132.000
57.53000 133.000
57.54500 148.000
57.56000 135.000
57.57500 140.000
57.59000 138.000
57.60500 128.000
57.62000 136.000
57.63500 144.000
57.65000 143.000
57.66500 141.000
57.68000 127.000
57.69500 156.000
57.71000 153.000
57.72500 149.000
57.74000 149.000
57.75500 136.000
57.77000 138.000
57.78500 144.000
57.80000 134.000
57.81500 136.000
57.83000 135.000
57.84500 164.000
57.86000 156.000
57.87500 130.000
57.89000 127.000
57.90500 133.000
57.92000 128.000
57.93500 137.000
57.95000 125.000
57.96500 126.000
57.98000 120.000
57.99500 133.000
58.01000 119.000
58.02500 143.000
58.04000 138.000
58.05500 145.000
58.07000 135.000
58.08500 143.000
58.10000 127.000
58.11500 141.000
58.13000 133.000
58.14500 131.000
58.16000 153.000
58.17500 162.000
58.19000 140.000
58.20500 127.000
58.22000 135.000
58.23500 140.000
58.25000 128.000
58.26500 143.000
58.28000 139.000
58.29500 128.000
58.31000 141.000
58.32500 138.000
58.34000 133.000
58.35500 115.000
58.37000 137.000
58.38500 147.000
58.40000 127.000
58.41500 141.000
58.43000 146.000
58.44500 131.000
58.46000 125.000
58.47500 127.000
58.49000 125.000
58.50500 124.000
58.52000 131.000
58.53500 130.000
58.55000 138.000
58.56500 128.000
58.58000 129.000
58.59500 148.000
58.61000 136.000
58.62500 151.000
58.64000 124.000
58.65500 140.000
58.67000 135.000
58.68500 123.000
58.70000 138.000
58.71500 136.000
58.73000 118.000
58.74500 137.000
58.76000 122.000
58.77500 135.000
58.79000 134.000
58.80500 133.000
58.82000 136.000
58.83500 138.000
58.85000 148.000
58.86500 144.000
58.88000 136.000
58.89500 127.000
58.91000 130.000
58.92500 142.000
58.94000 130.000
58.95500 119.000
58.97000 122.000
58.98500 135.000
59.00000 138.000
59.01500 130.000
59.03000 138.000
59.04500 132.000
59.06000 126.000
59.07500 134.000
59.09000 133.000
59.10500 130.000
59.12000 130.000
59.13500 122.000
59.15000 109.000
59.16500 123.000
59.18000 133.000
59.19500 130.000
59.21000 133.000
59.22500 140.000
59.24000 151.000
59.25500 138.000
59.27000 123.000
59.28500 142.000
59.30000 155.000
59.31500 155.000
59.33000 131.000
59.34500 132.000
59.36000 137.000
59.37500 133.000
59.39000 131.000
59.40500 160.000
59.42000 157.000
59.43500 158.000
59.45000 142.000
59.46500 134.000
59.48000 130.000
59.49500 131.000
59.51000 126.000
59.52500 148.000
59.54000 140.000
59.55500 132.000
59.57000 118.000
59.58500 122.000
59.60000 135.000
59.61500 125.000
59.63000 120.000
59.64500 114.000
59.66000 128.000
59.67500 129.000
59.69000 123.000
59.70500 115.000
59.72000 129.000
59.73500 146.000
59.75000 132.000
59.76500 143.000
59.78000 134.000
59.79500 131.000
59.81000 119.000
59.82500 128.000
59.84000 143.000
59.85500 131.000
59.87000 141.000
59.88500 131.000
59.90000 128.000
59.91500 133.000
59.93000 127.000
59.94500 127.000
59.96000 121.000
59.97500 125.000
59.99000 129.000
60.00500 126.000
60.02000 125.000
60.03500 136.000
60.05000 141.000
60.06500 129.000
60.08000 140.000
60.09500 145.000
60.11000 134.000
60.12500 132.000
60.14000 136.000
60.15500 134.000
60.17000 130.000
60.18500 126.000
60.20000 124.000
60.21500 118.000
60.23000 146.000
60.24500 135.000
60.26000 130.000
60.27500 120.000
60.29000 130.000
60.30500 141.000
60.32000 126.000
60.33500 121.000
60.35000 120.000
60.36500 133.000
60.38000 135.000
60.39500 141.000
60.41000 130.000
60.42500 135.000
60.44000 128.000
60.45500 151.000
60.47000 147.000
60.48500 135.000
60.50000 138.000
60.51500 119.000
60.53000 110.000
60.54500 117.000
60.56000 125.000
60.57500 145.000
60.59000 141.000
60.60500 140.000
60.62000 136.000
60.63500 118.000
60.65000 114.000
60.66500 125.000
60.68000 135.000
60.69500 129.000
60.71000 121.000
60.72500 134.000
60.74000 134.000
60.75500 130.000
60.77000 133.000
60.78500 125.000
60.80000 137.000
60.81500 131.000
60.83000 118.000
60.84500 116.000
60.86000 128.000
60.87500 125.000
60.89000 146.000
60.90500 127.000
60.92000 133.000
60.93500 142.000
60.95000 126.000
60.96500 128.000
60.98000 127.000
60.99500 126.000
61.01000 123.000
61.02500 118.000
61.04000 121.000
61.05500 122.000
61.07000 143.000
61.08500 127.000
61.10000 124.000
61.11500 125.000
61.13000 110.000
61.14500 133.000
61.16000 151.000
61.17500 148.000
61.19000 124.000
61.20500 112.000
61.22000 109.000
61.23500 118.000
61.25000 112.000
61.26500 120.000
61.28000 119.000
61.29500 125.000
61.31000 125.000
61.32500 138.000
61.34000 144.000
61.35500 128.000
61.37000 122.000
61.38500 119.000
61.40000 118.000
61.41500 134.000
61.43000 137.000
61.44500 131.000
61.46000 130.000
61.47500 126.000
61.49000 130.000
61.50500 123.000
61.52000 125.000
61.53500 114.000
61.55000 118.000
61.56500 112.000
61.58000 122.000
61.59500 125.000
61.61000 131.000
61.62500 118.000
61.64000 121.000
61.65500 110.000
61.67000 123.000
61.68500 123.000
61.70000 124.000
61.71500 135.000
61.73000 134.000
61.74500 141.000
61.76000 133.000
61.77500 116.000
61.79000 124.000
61.80500 124.000
61.82000 124.000
61.83500 108.000
61.85000 111.000
61.86500 118.000
61.88000 120.000
61.89500 134.000
61.91000 122.000
61.92500 141.000
61.94000 118.000
61.95500 128.000
61.97000 120.000
61.98500 135.000
