2.00000 8.000
2.01500 10.000
2.03000 8.000
2.04500 9.000
2.06000 12.000
2.07500 10.000
2.09000 6.000
2.10500 8.000
2.12000 13.000
2.13500 12.000
2.15000 9.000
2.16500 16.000
2.18000 9.000
2.19500 9.000
2.21000 11.000
2.22500 10.000
2.24000 11.000
2.25500 7.000
2.27000 11.000
2.28500 12.000
2.30000 10.000
2.31500 7.000
2.33000 10.000
2.34500 8.000
2.36000 10.000
2.37500 8.000
2.39000 12.000
2.40500 14.000
2.42000 9.000
2.43500 13.000
2.45000 9.000
2.46500 9.000
2.48000 8.000
2.49500 11.000
2.51000 11.000
2.52500 6.000
2.54000 11.000
2.55500 10.000
2.57000 13.000
2.58500 9.000
2.60000 10.000
2.61500 9.000
2.63000 8.000
2.64500 10.000
2.66000 8.000
2.67500 8.000
2.69000 10.000
2.70500 12.000
2.72000 8.000
2.73500 7.000
2.75000 6.000
2.76500 10.000
2.78000 9.000
2.79500 9.000
2.81000 10.000
2.82500 10.000
2.84000 11.000
2.85500 11.000
2.87000 7.000
2.88500 5.000
2.90000 3.000
2.91500 9.000
2.93000 9.000
2.94500 14.000
2.96000 14.000
2.97500 12.000
2.99000 30.000
3.00500 32.000
3.02000 46.000
3.03500 65.000
3.05000 84.000
3.06500 118.000
3.08000 181.000
3.09500 287.000
3.11000 400.000
3.12500 510.000
3.14000 608.000
3.15500 683.000
3.17000 792.000
3.18500 862.000
3.20000 949.000
3.21500 932.000
3.23000 917.000
3.24500 915.000
3.26000 910.000
3.27500 858.000
3.29000 860.000
3.30500 925.000
3.32000 922.000
3.33500 912.000
3.35000 926.000
3.36500 865.000
3.38000 843.000
3.39500 906.000
3.41000 895.000
3.42500 863.000
3.44000 868.000
3.45500 863.000
3.47000 873.000
3.48500 818.000
3.50000 864.000
3.51500 863.000
3.53000 846.000
3.54500 800.000
3.56000 853.000
3.57500 866.000
3.59000 849.000
3.60500 867.000
3.62000 869.000
3.63500 853.000
3.65000 826.000
3.66500 846.000
3.68000 875.000
3.69500 804.000
3.71000 802.000
3.72500 791.000
3.74000 786.000
3.75500 785.000
3.77000 810.000
3.78500 824.000
3.80000 788.000
3.81500 780.000
3.83000 763.000
3.84500 805.000
3.86000 789.000
3.87500 807.000
3.89000 753.000
3.90500 821.000
3.92000 771.000
3.93500 827.000
3.95000 789.000
3.96500 806.000
3.98000 797.000
3.99500 796.000
4.01000 790.000
4.02500 792.000
4.04000 793.000
4.05500 791.000
4.07000 799.000
4.08500 821.000
4.10000 774.000
4.11500 796.000
4.13000 779.000
4.14500 761.000
4.16000 756.000
4.17500 786.000
4.19000 760.000
4.20500 785.000
4.22000 802.000
4.23500 789.000
4.25000 781.000
4.26500 805.000
4.28000 788.000
4.29500 810.000
4.31000 765.000
4.32500 772.000
4.34000 784.000
4.35500 759.000
4.37000 761.000
4.38500 749.000
4.40000 798.000
4.41500 798.000
4.43000 788.000
4.44500 798.000
4.46000 759.000
4.47500 812.000
4.49000 814.000
4.50500 778.000
4.52000 802.000
4.53500 783.000
4.55000 843.000
4.56500 786.000
4.58000 780.000
4.59500 790.000
4.61000 773.000
4.62500 781.000
4.64000 793.000
4.65500 809.000
4.67000 827.000
4.68500 782.000
4.70000 793.000
4.71500 797.000
4.73000 782.000
4.74500 788.000
4.76000 721.000
4.77500 754.000
4.79000 775.000
4.80500 770.000
4.82000 779.000
4.83500 825.000
4.85000 800.000
4.86500 808.000
4.88000 827.000
4.89500 834.000
4.91000 833.000
4.92500 812.000
4.94000 808.000
4.95500 815.000
4.97000 855.000
4.98500 854.000
5.00000 832.000
5.01500 869.000
5.03000 843.000
5.04500 778.000
5.06000 840.000
5.07500 828.000
5.09000 794.000
5.10500 840.000
5.12000 825.000
5.13500 822.000
5.15000 853.000
5.16500 831.000
5.18000 845.000
5.19500 831.000
5.21000 822.000
5.22500 825.000
5.24000 824.000
5.25500 815.000
5.27000 841.000
5.28500 858.000
5.30000 863.000
5.31500 884.000
5.33000 869.000
5.34500 801.000
5.36000 853.000
5.37500 888.000
5.39000 855.000
5.40500 844.000
5.42000 828.000
5.43500 875.000
5.45000 837.000
5.46500 851.000
5.48000 889.000
5.49500 864.000
5.51000 913.000
5.52500 931.000
5.54000 877.000
5.55500 925.000
5.57000 985.000
5.58500 939.000
5.60000 965.000
5.61500 943.000
5.63000 977.000
5.64500 967.000
5.66000 1050.000
5.67500 994.000
5.69000 1086.000
5.70500 1103.000
5.72000 1126.000
5.73500 1165.000
5.75000 1163.000
5.76500 1204.000
5.78000 1229.000
5.79500 1291.000
5.81000 1327.000
5.82500 1421.000
5.84000 1506.000
5.85500 1648.000
5.87000 1713.000
5.88500 1830.000
5.90000 1881.000
5.91500 1972.000
5.93000 2202.000
5.94500 2340.000
5.96000 2458.000
5.97500 2661.000
5.99000 2920.000
6.00500 3165.000
6.02000 3409.000
6.03500 3746.000
6.05000 4077.000
6.06500 4453.000
6.08000 5015.000
6.09500 5679.000
6.11000 6336.000
6.12500 6896.000
6.14000 7011.000
6.15500 6876.000
6.17000 6208.000
6.18500 5152.000
6.20000 4127.000
6.21500 3391.000
6.23000 2732.000
6.24500 2230.000
6.26000 1900.000
6.27500 1641.000
6.29000 1519.000
6.30500 1328.000
6.32000 1277.000
6.33500 1178.000
6.35000 1160.000
6.36500 1117.000
6.38000 1077.000
6.39500 1039.000
6.41000 1013.000
6.42500 998.000
6.44000 979.000
6.45500 993.000
6.47000 965.000
6.48500 1017.000
6.50000 987.000
6.51500 986.000
6.53000 980.000
6.54500 947.000
6.56000 899.000
6.57500 975.000
6.59000 967.000
6.60500 959.000
6.62000 935.000
6.63500 970.000
6.65000 1011.000
6.66500 911.000
6.68000 970.000
6.69500 957.000
6.71000 988.000
6.72500 981.000
6.74000 981.000
6.75500 960.000
6.77000 951.000
6.78500 923.000
6.80000 932.000
6.81500 925.000
6.83000 924.000
6.84500 939.000
6.86000 964.000
6.87500 1023.000
6.89000 1019.000
6.90500 1005.000
6.92000 967.000
6.93500 997.000
6.95000 976.000
6.96500 1009.000
6.98000 1046.000
6.99500 1092.000
7.01000 1112.000
7.02500 1193.000
7.04000 1210.000
7.05500 1209.000
7.07000 1107.000
7.08500 1051.000
7.10000 1001.000
7.11500 955.000
7.13000 976.000
7.14500 947.000
7.16000 981.000
7.17500 973.000
7.19000 960.000
7.20500 916.000
7.22000 897.000
7.23500 944.000
7.25000 949.000
7.26500 920.000
7.28000 929.000
7.29500 976.000
7.31000 942.000
7.32500 924.000
7.34000 960.000
7.35500 954.000
7.37000 894.000
7.38500 896.000
7.40000 924.000
7.41500 931.000
7.43000 941.000
7.44500 988.000
7.46000 914.000
7.47500 956.000
7.49000 977.000
7.50500 974.000
7.52000 930.000
7.53500 938.000
7.55000 906.000
7.56500 919.000
7.58000 980.000
7.59500 990.000
7.61000 950.000
7.62500 940.000
7.64000 969.000
7.65500 943.000
7.67000 998.000
7.68500 940.000
7.70000 954.000
7.71500 961.000
7.73000 949.000
7.74500 970.000
7.76000 977.000
7.77500 944.000
7.79000 963.000
7.80500 992.000
7.82000 968.000
7.83500 948.000
7.85000 959.000
7.86500 957.000
7.88000 910.000
7.89500 941.000
7.91000 930.000
7.92500 934.000
7.94000 945.000
7.95500 971.000
7.97000 971.000
7.98500 977.000
8.00000 980.000
8.01500 985.000
8.03000 961.000
8.04500 930.000
8.06000 972.000
8.07500 936.000
8.09000 968.000
8.10500 894.000
8.12000 962.000
8.13500 939.000
8.15000 923.000
8.16500 925.000
8.18000 956.000
8.19500 932.000
8.21000 955.000
8.22500 982.000
8.24000 959.000
8.25500 979.000
8.27000 935.000
8.28500 973.000
8.30000 931.000
8.31500 970.000
8.33000 930.000
8.34500 972.000
8.36000 1005.000
8.37500 958.000
8.39000 992.000
8.40500 1000.000
8.42000 1014.000
8.43500 999.000
8.45000 942.000
8.46500 948.000
8.48000 971.000
8.49500 1008.000
8.51000 986.000
8.52500 950.000
8.54000 947.000
8.55500 1014.000
8.57000 958.000
8.58500 945.000
8.60000 999.000
8.61500 958.000
8.63000 973.000
8.64500 1003.000
8.66000 969.000
8.67500 975.000
8.69000 975.000
8.70500 936.000
8.72000 941.000
8.73500 998.000
8.75000 1008.000
8.76500 964.000
8.78000 990.000
8.79500 1046.000
8.81000 1004.000
8.82500 933.000
8.84000 966.000
8.85500 1022.000
8.87000 1015.000
8.88500 971.000
8.90000 992.000
8.91500 982.000
8.93000 1001.000
8.94500 989.000
8.96000 983.000
8.97500 1000.000
8.99000 1002.000
9.00500 954.000
9.02000 959.000
9.03500 966.000
9.05000 1015.000
9.06500 982.000
9.08000 988.000
9.09500 987.000
9.11000 999.000
9.12500 986.000
9.14000 977.000
9.15500 1009.000
9.17000 1074.000
9.18500 1029.000
9.20000 997.000
9.21500 1041.000
9.23000 997.000
9.24500 978.000
9.26000 1004.000
9.27500 1010.000
9.29000 973.000
9.30500 979.000
9.32000 1006.000
9.33500 986.000
9.35000 1027.000
9.36500 953.000
9.38000 959.000
9.39500 1015.000
9.41000 1054.000
9.42500 1072.000
9.44000 1064.000
9.45500 1047.000
9.47000 1044.000
9.48500 1046.000
9.50000 983.000
9.51500 1006.000
9.53000 1029.000
9.54500 1076.000
9.56000 1069.000
9.57500 994.000
9.59000 1023.000
9.60500 1001.000
9.62000 1031.000
9.63500 1039.000
9.65000 1026.000
9.66500 1043.000
9.68000 1037.000
9.69500 1037.000
9.71000 1047.000
9.72500 1059.000
9.74000 1045.000
9.75500 1029.000
9.77000 1048.000
9.78500 1043.000
9.80000 991.000
9.81500 1096.000
9.83000 1057.000
9.84500 1124.000
9.86000 1035.000
9.87500 997.000
9.89000 1036.000
9.90500 1023.000
9.92000 1046.000
9.93500 1021.000
9.95000 1044.000
9.96500 1013.000
9.98000 974.000
9.99500 1016.000
10.01000 1038.000
10.02500 1014.000
10.04000 1041.000
10.05500 1010.000
10.07000 1076.000
10.08500 1051.000
10.10000 1086.000
10.11500 1057.000
10.13000 1087.000
10.14500 1057.000
10.16000 1031.000
10.17500 1039.000
10.19000 1021.000
10.20500 1023.000
10.22000 1057.000
10.23500 1054.000
10.25000 1002.000
10.26500 1013.000
10.28000 1026.000
10.29500 1055.000
10.31000 1007.000
10.32500 1091.000
10.34000 1090.000
10.35500 1047.000
10.37000 1071.000
10.38500 1058.000
10.40000 1032.000
10.41500 1091.000
10.43000 1113.000
10.44500 1079.000
10.46000 1155.000
10.47500 1108.000
10.49000 1078.000
10.50500 1120.000
10.52000 1167.000
10.53500 1234.000
10.55000 1204.000
10.56500 1323.000
10.58000 1336.000
10.59500 1427.000
10.61000 1569.000
10.62500 1636.000
10.64000 1507.000
10.65500 1429.000
10.67000 1366.000
10.68500 1227.000
10.70000 1212.000
10.71500 1269.000
10.73000 1222.000
10.74500 1238.000
10.76000 1256.000
10.77500 1273.000
10.79000 1287.000
10.80500 1390.000
10.82000 1390.000
10.83500 1427.000
10.85000 1488.000
10.86500 1568.000
10.88000 1669.000
10.89500 1712.000
10.91000 1888.000
10.92500 2024.000
10.94000 2105.000
10.95500 2213.000
10.97000 2327.000
10.98500 2468.000
11.00000 2451.000
11.01500 2488.000
11.03000 2335.000
11.04500 2194.000
11.06000 1899.000
11.07500 1723.000
11.09000 1597.000
11.10500 1476.000
11.12000 1404.000
11.13500 1380.000
11.15000 1339.000
11.16500 1348.000
11.18000 1299.000
11.19500 1308.000
11.21000 1247.000
11.22500 1194.000
11.24000 1231.000
11.25500 1290.000
11.27000 1227.000
11.28500 1261.000
11.30000 1250.000
11.31500 1229.000
11.33000 1158.000
11.34500 1179.000
11.36000 1226.000
11.37500 1160.000
11.39000 1152.000
11.40500 1222.000
11.42000 1189.000
11.43500 1207.000
11.45000 1163.000
11.46500 1127.000
11.48000 1173.000
11.49500 1165.000
11.51000 1182.000
11.52500 1143.000
11.54000 1203.000
11.55500 1175.000
11.57000 1199.000
11.58500 1199.000
11.60000 1210.000
11.61500 1186.000
11.63000 1156.000
11.64500 1163.000
11.66000 1204.000
11.67500 1183.000
11.69000 1185.000
11.70500 1207.000
11.72000 1247.000
11.73500 1231.000
11.75000 1228.000
11.76500 1267.000
11.78000 1263.000
11.79500 1297.000
11.81000 1278.000
11.82500 1308.000
11.84000 1334.000
11.85500 1376.000
11.87000 1289.000
11.88500 1356.000
11.90000 1370.000
11.91500 1367.000
11.93000 1444.000
11.94500 1456.000
11.96000 1523.000
11.97500 1562.000
11.99000 1698.000
12.00500 1709.000
12.02000 1745.000
12.03500 1943.000
12.05000 2108.000
12.06500 2228.000
12.08000 2494.000
12.09500 2730.000
12.11000 3129.000
12.12500 3478.000
12.14000 3838.000
12.15500 4483.000
12.17000 5113.000
12.18500 5931.000
12.20000 6802.000
12.21500 8127.000
12.23000 9529.000
12.24500 10881.000
12.26000 12606.000
12.27500 14626.000
12.29000 16047.000
12.30500 17446.000
12.32000 17948.000
12.33500 16541.000
12.35000 14430.000
12.36500 12048.000
12.38000 9884.000
12.39500 8174.000
12.41000 6616.000
12.42500 5185.000
12.44000 4298.000
12.45500 3568.000
12.47000 2998.000
12.48500 2653.000
12.50000 2233.000
12.51500 2149.000
12.53000 2009.000
12.54500 1884.000
12.56000 1783.000
12.57500 1710.000
12.59000 1678.000
12.60500 1562.000
12.62000 1553.000
12.63500 1505.000
12.65000 1459.000
12.66500 1511.000
12.68000 1459.000
12.69500 1449.000
12.71000 1432.000
12.72500 1411.000
12.74000 1422.000
12.75500 1344.000
12.77000 1353.000
12.78500 1349.000
12.80000 1369.000
12.81500 1330.000
12.83000 1299.000
12.84500 1282.000
12.86000 1281.000
12.87500 1229.000
12.89000 1289.000
12.90500 1283.000
12.92000 1283.000
12.93500 1288.000
12.95000 1224.000
12.96500 1310.000
12.98000 1226.000
12.99500 1279.000
13.01000 1259.000
13.02500 1247.000
13.04000 1222.000
13.05500 1197.000
13.07000 1214.000
13.08500 1199.000
13.10000 1263.000
13.11500 1239.000
13.13000 1247.000
13.14500 1307.000
13.16000 1251.000
13.17500 1271.000
13.19000 1312.000
13.20500 1332.000
13.22000 1332.000
13.23500 1377.000
13.25000 1365.000
13.26500 1348.000
13.28000 1354.000
13.29500 1430.000
13.31000 1420.000
13.32500 1424.000
13.34000 1431.000
13.35500 1403.000
13.37000 1345.000
13.38500 1361.000
13.40000 1352.000
13.41500 1320.000
13.43000 1301.000
13.44500 1243.000
13.46000 1325.000
13.47500 1277.000
13.49000 1270.000
13.50500 1239.000
13.52000 1238.000
13.53500 1227.000
13.55000 1208.000
13.56500 1241.000
13.58000 1259.000
13.59500 1322.000
13.61000 1239.000
13.62500 1217.000
13.64000 1243.000
13.65500 1256.000
13.67000 1272.000
13.68500 1260.000
13.70000 1319.000
13.71500 1313.000
13.73000 1348.000
13.74500 1362.000
13.76000 1367.000
13.77500 1415.000
13.79000 1438.000
13.80500 1529.000
13.82000 1570.000
13.83500 1558.000
13.85000 1479.000
13.86500 1485.000
13.88000 1395.000
13.89500 1303.000
13.91000 1273.000
13.92500 1258.000
13.94000 1221.000
13.95500 1231.000
13.97000 1240.000
13.98500 1247.000
14.00000 1303.000
14.01500 1277.000
14.03000 1253.000
14.04500 1255.000
14.06000 1268.000
14.07500 1280.000
14.09000 1275.000
14.10500 1284.000
14.12000 1301.000
14.13500 1346.000
14.15000 1305.000
14.16500 1254.000
14.18000 1194.000
14.19500 1134.000
14.21000 1125.000
14.22500 1174.000
14.24000 1164.000
14.25500 1114.000
14.27000 1171.000
14.28500 1152.000
14.30000 1168.000
14.31500 1144.000
14.33000 1078.000
14.34500 1067.000
14.36000 1104.000
14.37500 1101.000
14.39000 1121.000
14.40500 1096.000
14.42000 1169.000
14.43500 1159.000
14.45000 1165.000
14.46500 1136.000
14.48000 1124.000
14.49500 1140.000
14.51000 1188.000
14.52500 1121.000
14.54000 1116.000
14.55500 1138.000
14.57000 1156.000
14.58500 1172.000
14.60000 1086.000
14.61500 1162.000
14.63000 1168.000
14.64500 1130.000
14.66000 1168.000
14.67500 1143.000
14.69000 1135.000
14.70500 1115.000
14.72000 1050.000
14.73500 1076.000
14.75000 1114.000
14.76500 1165.000
14.78000 1090.000
14.79500 1131.000
14.81000 1136.000
14.82500 1109.000
14.84000 1133.000
14.85500 1184.000
14.87000 1144.000
14.88500 1138.000
14.90000 1091.000
14.91500 1166.000
14.93000 1195.000
14.94500 1126.000
14.96000 1100.000
14.97500 1087.000
14.99000 1111.000
15.00500 1095.000
15.02000 1100.000
15.03500 1130.000
15.05000 1038.000
15.06500 1060.000
15.08000 1084.000
15.09500 1087.000
15.11000 1067.000
15.12500 1058.000
15.14000 1062.000
15.15500 1137.000
15.17000 1147.000
15.18500 1121.000
15.20000 1127.000
15.21500 1123.000
15.23000 1133.000
15.24500 1116.000
15.26000 1078.000
15.27500 1100.000
15.29000 1162.000
15.30500 1146.000
15.32000 1096.000
15.33500 1142.000
15.35000 1144.000
15.36500 1064.000
15.38000 1105.000
15.39500 1113.000
15.41000 1115.000
15.42500 1059.000
15.44000 1138.000
15.45500 1110.000
15.47000 1074.000
15.48500 1113.000
15.50000 1125.000
15.51500 1118.000
15.53000 1129.000
15.54500 1119.000
15.56000 1170.000
15.57500 1107.000
15.59000 1133.000
15.60500 1099.000
15.62000 1127.000
15.63500 1073.000
15.65000 1092.000
15.66500 1124.000
15.68000 1139.000
15.69500 1069.000
15.71000 1050.000
15.72500 1137.000
15.74000 1165.000
15.75500 1148.000
15.77000 1122.000
15.78500 1129.000
15.80000 1117.000
15.81500 1144.000
15.83000 1110.000
15.84500 1114.000
15.86000 1134.000
15.87500 1181.000
15.89000 1171.000
15.90500 1138.000
15.92000 1156.000
15.93500 1128.000
15.95000 1145.000
15.96500 1109.000
15.98000 1154.000
15.99500 1125.000
16.01000 1165.000
16.02500 1167.000
16.04000 1164.000
16.05500 1203.000
16.07000 1187.000
16.08500 1198.000
16.10000 1161.000
16.11500 1136.000
16.13000 1159.000
16.14500 1120.000
16.16000 1168.000
16.17500 1202.000
16.19000 1185.000
16.20500 1189.000
16.22000 1220.000
16.23500 1234.000
16.25000 1271.000
16.26500 1245.000
16.28000 1230.000
16.29500 1202.000
16.31000 1258.000
16.32500 1288.000
16.34000 1331.000
16.35500 1250.000
16.37000 1309.000
16.38500 1248.000
16.40000 1248.000
16.41500 1189.000
16.43000 1244.000
16.44500 1219.000
16.46000 1184.000
16.47500 1195.000
16.49000 1172.000
16.50500 1168.000
16.52000 1183.000
16.53500 1211.000
16.55000 1124.000
16.56500 1100.000
16.58000 1141.000
16.59500 1145.000
16.61000 1171.000
16.62500 1184.000
16.64000 1158.000
16.65500 1165.000
16.67000 1160.000
16.68500 1093.000
16.70000 1155.000
16.71500 1143.000
16.73000 1148.000
16.74500 1183.000
16.76000 1174.000
16.77500 1192.000
16.79000 1148.000
16.80500 1161.000
16.82000 1141.000
16.83500 1120.000
16.85000 1158.000
16.86500 1134.000
16.88000 1083.000
16.89500 1131.000
16.91000 1106.000
16.92500 1156.000
16.94000 1165.000
16.95500 1142.000
16.97000 1137.000
16.98500 1171.000
17.00000 1178.000
17.01500 1124.000
17.03000 1151.000
17.04500 1147.000
17.06000 1196.000
17.07500 1161.000
17.09000 1169.000
17.10500 1164.000
17.12000 1236.000
17.13500 1206.000
17.15000 1132.000
17.16500 1203.000
17.18000 1241.000
17.19500 1229.000
17.21000 1218.000
17.22500 1202.000
17.24000 1224.000
17.25500 1246.000
17.27000 1262.000
17.28500 1219.000
17.30000 1261.000
17.31500 1232.000
17.33000 1230.000
17.34500 1228.000
17.36000 1216.000
17.37500 1234.000
17.39000 1275.000
17.40500 1263.000
17.42000 1295.000
17.43500 1279.000
17.45000 1271.000
17.46500 1281.000
17.48000 1294.000
17.49500 1360.000
17.51000 1344.000
17.52500 1371.000
17.54000 1368.000
17.55500 1328.000
17.57000 1346.000
17.58500 1348.000
17.60000 1364.000
17.61500 1381.000
17.63000 1389.000
17.64500 1351.000
17.66000 1259.000
17.67500 1343.000
17.69000 1332.000
17.70500 1286.000
17.72000 1290.000
17.73500 1369.000
17.75000 1329.000
17.76500 1297.000
17.78000 1331.000
17.79500 1296.000
17.81000 1298.000
17.82500 1213.000
17.84000 1251.000
17.85500 1227.000
17.87000 1277.000
17.88500 1281.000
17.90000 1242.000
17.91500 1242.000
17.93000 1244.000
17.94500 1230.000
17.96000 1267.000
17.97500 1299.000
17.99000 1269.000
18.00500 1288.000
18.02000 1334.000
18.03500 1278.000
18.05000 1214.000
18.06500 1260.000
18.08000 1256.000
18.09500 1337.000
18.11000 1229.000
18.12500 1291.000
18.14000 1269.000
18.15500 1282.000
18.17000 1278.000
18.18500 1299.000
18.20000 1283.000
18.21500 1287.000
18.23000 1318.000
18.24500 1311.000
18.26000 1339.000
18.27500 1359.000
18.29000 1290.000
18.30500 1311.000
18.32000 1339.000
18.33500 1350.000
18.35000 1385.000
18.36500 1373.000
18.38000 1389.000
18.39500 1418.000
18.41000 1465.000
18.42500 1532.000
18.44000 1577.000
18.45500 1639.000
18.47000 1688.000
18.48500 1742.000
18.50000 1713.000
18.51500 1745.000
18.53000 1776.000
18.54500 1753.000
18.56000 1767.000
18.57500 1676.000
18.59000 1616.000
18.60500 1537.000
18.62000 1545.000
18.63500 1492.000
18.65000 1493.000
18.66500 1469.000
18.68000 1449.000
18.69500 1426.000
18.71000 1349.000
18.72500 1424.000
18.74000 1412.000
18.75500 1399.000
18.77000 1411.000
18.78500 1432.000
18.80000 1378.000
18.81500 1363.000
18.83000 1364.000
18.84500 1394.000
18.86000 1398.000
18.87500 1380.000
18.89000 1362.000
18.90500 1374.000
18.92000 1349.000
18.93500 1322.000
18.95000 1348.000
18.96500 1361.000
18.98000 1371.000
18.99500 1334.000
19.01000 1331.000
19.02500 1341.000
19.04000 1307.000
19.05500 1315.000
19.07000 1337.000
19.08500 1330.000
19.10000 1321.000
19.11500 1286.000
19.13000 1290.000
19.14500 1339.000
19.16000 1300.000
19.17500 1242.000
19.19000 1270.000
19.20500 1289.000
19.22000 1325.000
19.23500 1292.000
19.25000 1298.000
19.26500 1324.000
19.28000 1302.000
19.29500 1278.000
19.31000 1315.000
19.32500 1285.000
19.34000 1257.000
19.35500 1294.000
19.37000 1217.000
19.38500 1279.000
19.40000 1323.000
19.41500 1285.000
19.43000 1287.000
19.44500 1266.000
19.46000 1236.000
19.47500 1264.000
19.49000 1322.000
19.50500 1300.000
19.52000 1223.000
19.53500 1269.000
19.55000 1289.000
19.56500 1229.000
19.58000 1194.000
19.59500 1312.000
19.61000 1250.000
19.62500 1243.000
19.64000 1269.000
19.65500 1347.000
19.67000 1262.000
19.68500 1352.000
19.70000 1322.000
19.71500 1268.000
19.73000 1315.000
19.74500 1283.000
19.76000 1299.000
19.77500 1278.000
19.79000 1277.000
19.80500 1291.000
19.82000 1321.000
19.83500 1308.000
19.85000 1266.000
19.86500 1304.000
19.88000 1276.000
19.89500 1335.000
19.91000 1379.000
19.92500 1294.000
19.94000 1277.000
19.95500 1274.000
19.97000 1356.000
19.98500 1314.000
20.00000 1374.000
20.01500 1394.000
20.03000 1341.000
20.04500 1354.000
20.06000 1326.000
20.07500 1385.000
20.09000 1331.000
20.10500 1311.000
20.12000 1347.000
20.13500 1263.000
20.15000 1303.000
20.16500 1327.000
20.18000 1300.000
20.19500 1310.000
20.21000 1281.000
20.22500 1316.000
20.24000 1340.000
20.25500 1340.000
20.27000 1344.000
20.28500 1289.000
20.30000 1315.000
20.31500 1309.000
20.33000 1287.000
20.34500 1334.000
20.36000 1310.000
20.37500 1344.000
20.39000 1337.000
20.40500 1255.000
20.42000 1315.000
20.43500 1313.000
20.45000 1279.000
20.46500 1321.000
20.48000 1379.000
20.49500 1363.000
20.51000 1324.000
20.52500 1364.000
20.54000 1312.000
20.55500 1336.000
20.57000 1303.000
20.58500 1316.000
20.60000 1297.000
20.61500 1225.000
20.63000 1286.000
20.64500 1250.000
20.66000 1280.000
20.67500 1309.000
20.69000 1285.000
20.70500 1304.000
20.72000 1335.000
20.73500 1331.000
20.75000 1280.000
20.76500 1320.000
20.78000 1328.000
20.79500 1290.000
20.81000 1295.000
20.82500 1350.000
20.84000 1312.000
20.85500 1293.000
20.87000 1246.000
20.88500 1250.000
20.90000 1246.000
20.91500 1324.000
20.93000 1269.000
20.94500 1286.000
20.96000 1334.000
20.97500 1334.000
20.99000 1359.000
21.00500 1310.000
21.02000 1331.000
21.03500 1367.000
21.05000 1275.000
21.06500 1286.000
21.08000 1309.000
21.09500 1337.000
21.11000 1313.000
21.12500 1363.000
21.14000 1326.000
21.15500 1370.000
21.17000 1374.000
21.18500 1312.000
21.20000 1318.000
21.21500 1305.000
21.23000 1349.000
21.24500 1328.000
21.26000 1344.000
21.27500 1326.000
21.29000 1318.000
21.30500 1374.000
21.32000 1366.000
21.33500 1371.000
21.35000 1304.000
21.36500 1379.000
21.38000 1380.000
21.39500 1420.000
21.41000 1414.000
21.42500 1419.000
21.44000 1398.000
21.45500 1426.000
21.47000 1436.000
21.48500 1358.000
21.50000 1350.000
21.51500 1392.000
21.53000 1329.000
21.54500 1338.000
21.56000 1380.000
21.57500 1353.000
21.59000 1367.000
21.60500 1325.000
21.62000 1295.000
21.63500 1343.000
21.65000 1348.000
21.66500 1347.000
21.68000 1344.000
21.69500 1261.000
21.71000 1354.000
21.72500 1381.000
21.74000 1381.000
21.75500 1370.000
21.77000 1353.000
21.78500 1427.000
21.80000 1367.000
21.81500 1377.000
21.83000 1417.000
21.84500 1394.000
21.86000 1343.000
21.87500 1388.000
21.89000 1404.000
21.90500 1387.000
21.92000 1393.000
21.93500 1448.000
21.95000 1406.000
21.96500 1417.000
21.98000 1472.000
21.99500 1502.000
22.01000 1431.000
22.02500 1496.000
22.04000 1487.000
22.05500 1493.000
22.07000 1522.000
22.08500 1551.000
22.10000 1549.000
22.11500 1504.000
22.13000 1509.000
22.14500 1476.000
22.16000 1501.000
22.17500 1476.000
22.19000 1517.000
22.20500 1517.000
22.22000 1570.000
22.23500 1537.000
22.25000 1528.000
22.26500 1559.000
22.28000 1602.000
22.29500 1560.000
22.31000 1488.000
22.32500 1557.000
22.34000 1578.000
22.35500 1557.000
22.37000 1472.000
22.38500 1503.000
22.40000 1547.000
22.41500 1460.000
22.43000 1496.000
22.44500 1501.000
22.46000 1515.000
22.47500 1501.000
22.49000 1504.000
22.50500 1517.000
22.52000 1530.000
22.53500 1534.000
22.55000 1506.000
22.56500 1593.000
22.58000 1535.000
22.59500 1521.000
22.61000 1554.000
22.62500 1592.000
22.64000 1503.000
22.65500 1540.000
22.67000 1534.000
22.68500 1550.000
22.70000 1567.000
22.71500 1597.000
22.73000 1624.000
22.74500 1559.000
22.76000 1596.000
22.77500 1565.000
22.79000 1569.000
22.80500 1601.000
22.82000 1581.000
22.83500 1664.000
22.85000 1606.000
22.86500 1594.000
22.88000 1582.000
22.89500 1603.000
22.91000 1607.000
22.92500 1613.000
22.94000 1610.000
22.95500 1637.000
22.97000 1663.000
22.98500 1615.000
23.00000 1588.000
23.01500 1645.000
23.03000 1699.000
23.04500 1670.000
23.06000 1664.000
23.07500 1702.000
23.09000 1711.000
23.10500 1734.000
23.12000 1753.000
23.13500 1708.000
23.15000 1760.000
23.16500 1805.000
23.18000 1799.000
23.19500 1808.000
23.21000 1803.000
23.22500 1882.000
23.24000 1825.000
23.25500 1839.000
23.27000 1783.000
23.28500 1804.000
23.30000 1887.000
23.31500 1956.000
23.33000 1875.000
23.34500 1869.000
23.36000 1868.000
23.37500 1839.000
23.39000 1850.000
23.40500 1879.000
23.42000 1917.000
23.43500 1891.000
23.45000 1877.000
23.46500 1867.000
23.48000 1888.000
23.49500 1922.000
23.51000 1905.000
23.52500 1998.000
23.54000 1942.000
23.55500 1897.000
23.57000 1908.000
23.58500 1892.000
23.60000 2000.000
23.61500 1912.000
23.63000 1878.000
23.64500 1928.000
23.66000 1892.000
23.67500 1934.000
23.69000 1900.000
23.70500 1932.000
23.72000 1932.000
23.73500 1947.000
23.75000 1878.000
23.76500 1890.000
23.78000 1819.000
23.79500 1866.000
23.81000 1801.000
23.82500 1773.000
23.84000 1893.000
23.85500 1831.000
23.87000 1854.000
23.88500 1808.000
23.90000 1787.000
23.91500 1824.000
23.93000 1837.000
23.94500 1900.000
23.96000 1812.000
23.97500 1836.000
23.99000 1802.000
24.00500 1755.000
24.02000 1843.000
24.03500 1833.000
24.05000 1709.000
24.06500 1712.000
24.08000 1788.000
24.09500 1766.000
24.11000 1708.000
24.12500 1682.000
24.14000 1699.000
24.15500 1689.000
24.17000 1691.000
24.18500 1664.000
24.20000 1609.000
24.21500 1652.000
24.23000 1664.000
24.24500 1618.000
24.26000 1581.000
24.27500 1611.000
24.29000 1606.000
24.30500 1568.000
24.32000 1560.000
24.33500 1581.000
24.35000 1545.000
24.36500 1529.000
24.38000 1514.000
24.39500 1566.000
24.41000 1578.000
24.42500 1576.000
24.44000 1588.000
24.45500 1568.000
24.47000 1586.000
24.48500 1580.000
24.50000 1556.000
24.51500 1631.000
24.53000 1658.000
24.54500 1677.000
24.56000 1649.000
24.57500 1690.000
24.59000 1666.000
24.60500 1675.000
24.62000 1778.000
24.63500 1790.000
24.65000 1807.000
24.66500 1961.000
24.68000 1991.000
24.69500 2047.000
24.71000 2097.000
24.72500 2279.000
24.74000 2358.000
24.75500 2413.000
24.77000 2475.000
24.78500 2528.000
24.80000 2487.000
24.81500 2448.000
24.83000 2285.000
24.84500 2184.000
24.86000 2228.000
24.87500 2108.000
24.89000 2044.000
24.90500 2050.000
24.92000 1923.000
24.93500 1913.000
24.95000 1825.000
24.96500 1791.000
24.98000 1726.000
24.99500 1720.000
25.01000 1726.000
25.02500 1721.000
25.04000 1679.000
25.05500 1705.000
25.07000 1702.000
25.08500 1721.000
25.10000 1715.000
25.11500 1728.000
25.13000 1695.000
25.14500 1671.000
25.16000 1665.000
25.17500 1658.000
25.19000 1713.000
25.20500 1657.000
25.22000 1711.000
25.23500 1739.000
25.25000 1660.000
25.26500 1746.000
25.28000 1717.000
25.29500 1748.000
25.31000 1745.000
25.32500 1736.000
25.34000 1747.000
25.35500 1753.000
25.37000 1742.000
25.38500 1908.000
25.40000 1854.000
25.41500 1763.000
25.43000 1814.000
25.44500 1758.000
25.46000 1781.000
25.47500 1932.000
25.49000 1863.000
25.50500 1950.000
25.52000 1900.000
25.53500 1920.000
25.55000 1953.000
25.56500 1991.000
25.58000 1971.000
25.59500 1960.000
25.61000 1937.000
25.62500 1979.000
25.64000 1891.000
25.65500 1945.000
25.67000 1894.000
25.68500 1902.000
25.70000 1894.000
25.71500 1943.000
25.73000 1908.000
25.74500 1906.000
25.76000 1921.000
25.77500 1914.000
25.79000 1861.000
25.80500 1940.000
25.82000 1911.000
25.83500 1868.000
25.85000 1957.000
25.86500 1909.000
25.88000 1952.000
25.89500 1940.000
25.91000 2024.000
25.92500 2046.000
25.94000 2094.000
25.95500 2128.000
25.97000 2187.000
25.98500 2136.000
26.00000 2181.000
26.01500 2225.000
26.03000 2312.000
26.04500 2354.000
26.06000 2413.000
26.07500 2436.000
26.09000 2567.000
26.10500 2451.000
26.12000 2547.000
26.13500 2709.000
26.15000 2823.000
26.16500 2861.000
26.18000 2907.000
26.19500 3022.000
26.21000 3070.000
26.22500 3163.000
26.24000 3287.000
26.25500 3271.000
26.27000 3312.000
26.28500 3348.000
26.30000 3498.000
26.31500 3498.000
26.33000 3613.000
26.34500 3721.000
26.36000 3733.000
26.37500 3777.000
26.39000 3862.000
26.40500 3884.000
26.42000 3868.000
26.43500 4104.000
26.45000 4065.000
26.46500 4153.000
26.48000 4288.000
26.49500 4439.000
26.51000 4607.000
26.52500 4691.000
26.54000 4847.000
26.55500 4920.000
26.57000 5113.000
26.58500 5276.000
26.60000 5384.000
26.61500 5458.000
26.63000 5581.000
26.64500 5622.000
26.66000 5663.000
26.67500 5851.000
26.69000 5971.000
26.70500 6082.000
26.72000 6130.000
26.73500 6124.000
26.75000 6061.000
26.76500 6148.000
26.78000 6179.000
26.79500 6142.000
26.81000 6130.000
26.82500 6212.000
26.84000 6257.000
26.85500 6215.000
26.87000 6104.000
26.88500 6228.000
26.90000 6325.000
26.91500 6101.000
26.93000 6187.000
26.94500 6244.000
26.96000 6281.000
26.97500 6141.000
26.99000 6310.000
27.00500 6299.000
27.02000 6198.000
27.03500 6185.000
27.05000 5932.000
27.06500 5920.000
27.08000 5902.000
27.09500 5728.000
27.11000 5616.000
27.12500 5559.000
27.14000 5415.000
27.15500 5297.000
27.17000 5288.000
27.18500 4905.000
27.20000 4872.000
27.21500 4884.000
27.23000 4680.000
27.24500 4523.000
27.26000 4468.000
27.27500 4400.000
27.29000 4275.000
27.30500 4165.000
27.32000 4180.000
27.33500 4021.000
27.35000 3894.000
27.36500 3850.000
27.38000 3846.000
27.39500 3770.000
27.41000 3666.000
27.42500 3586.000
27.44000 3497.000
27.45500 3528.000
27.47000 3527.000
27.48500 3461.000
27.50000 3423.000
27.51500 3400.000
27.53000 3367.000
27.54500 3395.000
27.56000 3366.000
27.57500 3416.000
27.59000 3378.000
27.60500 3302.000
27.62000 3377.000
27.63500 3423.000
27.65000 3376.000
27.66500 3435.000
27.68000 3375.000
27.69500 3379.000
27.71000 3360.000
27.72500 3438.000
27.74000 3410.000
27.75500 3373.000
27.77000 3331.000
27.78500 3368.000
27.80000 3418.000
27.81500 3358.000
27.83000 3313.000
27.84500 3247.000
27.86000 3320.000
27.87500 3304.000
27.89000 3265.000
27.90500 3256.000
27.92000 3271.000
27.93500 3105.000
27.95000 3042.000
27.96500 3082.000
27.98000 3117.000
27.99500 3045.000
28.01000 3010.000
28.02500 3121.000
28.04000 3157.000
28.05500 3204.000
28.07000 3250.000
28.08500 3442.000
28.10000 3574.000
28.11500 3651.000
28.13000 3654.000
28.14500 3649.000
28.16000 3501.000
28.17500 3312.000
28.19000 3148.000
28.20500 2966.000
28.22000 2925.000
28.23500 2801.000
28.25000 2654.000
28.26500 2544.000
28.28000 2459.000
28.29500 2480.000
28.31000 2395.000
28.32500 2408.000
28.34000 2363.000
28.35500 2334.000
28.37000 2219.000
28.38500 2170.000
28.40000 2194.000
28.41500 2176.000
28.43000 2139.000
28.44500 2178.000
28.46000 2164.000
28.47500 2167.000
28.49000 2190.000
28.50500 2131.000
28.52000 2134.000
28.53500 2091.000
28.55000 2040.000
28.56500 2034.000
28.58000 2027.000
28.59500 2086.000
28.61000 2034.000
28.62500 2099.000
28.64000 2006.000
28.65500 1982.000
28.67000 2026.000
28.68500 2006.000
28.70000 2001.000
28.71500 2035.000
28.73000 1990.000
28.74500 1921.000
28.76000 1994.000
28.77500 1981.000
28.79000 1974.000
28.80500 1942.000
28.82000 2011.000
28.83500 1972.000
28.85000 1938.000
28.86500 1845.000
28.88000 1919.000
28.89500 1979.000
28.91000 1904.000
28.92500 1842.000
28.94000 1916.000
28.95500 1891.000
28.97000 1941.000
28.98500 1908.000
29.00000 1840.000
29.01500 1911.000
29.03000 1870.000
29.04500 1822.000
29.06000 1862.000
29.07500 1861.000
29.09000 1812.000
29.10500 1795.000
29.12000 1833.000
29.13500 1787.000
29.15000 1738.000
29.16500 1752.000
29.18000 1739.000
29.19500 1752.000
29.21000 1716.000
29.22500 1710.000
29.24000 1673.000
29.25500 1690.000
29.27000 1678.000
29.28500 1659.000
29.30000 1719.000
29.31500 1639.000
29.33000 1627.000
29.34500 1633.000
29.36000 1680.000
29.37500 1653.000
29.39000 1602.000
29.40500 1622.000
29.42000 1625.000
29.43500 1617.000
29.45000 1600.000
29.46500 1618.000
29.48000 1591.000
29.49500 1608.000
29.51000 1546.000
29.52500 1557.000
29.54000 1528.000
29.55500 1499.000
29.57000 1515.000
29.58500 1525.000
29.60000 1525.000
29.61500 1459.000
29.63000 1496.000
29.64500 1445.000
29.66000 1489.000
29.67500 1551.000
29.69000 1512.000
29.70500 1460.000
29.72000 1420.000
29.73500 1431.000
29.75000 1437.000
29.76500 1434.000
29.78000 1443.000
29.79500 1433.000
29.81000 1457.000
29.82500 1439.000
29.84000 1393.000
29.85500 1419.000
29.87000 1458.000
29.88500 1476.000
29.90000 1464.000
29.91500 1399.000
29.93000 1424.000
29.94500 1405.000
29.96000 1444.000
29.97500 1468.000
29.99000 1435.000
30.00500 1418.000
30.02000 1434.000
30.03500 1376.000
30.05000 1418.000
30.06500 1468.000
30.08000 1506.000
30.09500 1479.000
30.11000 1516.000
30.12500 1451.000
30.14000 1419.000
30.15500 1435.000
30.17000 1420.000
30.18500 1499.000
30.20000 1446.000
30.21500 1468.000
30.23000 1467.000
30.24500 1493.000
30.26000 1452.000
30.27500 1410.000
30.29000 1383.000
30.30500 1451.000
30.32000 1460.000
30.33500 1471.000
30.35000 1454.000
30.36500 1410.000
30.38000 1434.000
30.39500 1454.000
30.41000 1414.000
30.42500 1382.000
30.44000 1383.000
30.45500 1425.000
30.47000 1385.000
30.48500 1375.000
30.50000 1445.000
30.51500 1414.000
30.53000 1390.000
30.54500 1343.000
30.56000 1395.000
30.57500 1409.000
30.59000 1394.000
30.60500 1349.000
30.62000 1367.000
30.63500 1408.000
30.65000 1400.000
30.66500 1401.000
30.68000 1330.000
30.69500 1381.000
30.71000 1407.000
30.72500 1431.000
30.74000 1405.000
30.75500 1394.000
30.77000 1415.000
30.78500 1462.000
30.80000 1433.000
30.81500 1437.000
30.83000 1397.000
30.84500 1436.000
30.86000 1494.000
30.87500 1499.000
30.89000 1578.000
30.90500 1617.000
30.92000 1565.000
30.93500 1718.000
30.95000 1716.000
30.96500 1778.000
30.98000 1868.000
30.99500 2021.000
31.01000 2049.000
31.02500 2116.000
31.04000 2190.000
31.05500 2367.000
31.07000 2561.000
31.08500 2657.000
31.10000 2725.000
31.11500 2666.000
31.13000 2677.000
31.14500 2627.000
31.16000 2519.000
31.17500 2419.000
31.19000 2350.000
31.20500 2247.000
31.22000 2158.000
31.23500 2078.000
31.25000 2007.000
31.26500 1901.000
31.28000 1792.000
31.29500 1738.000
31.31000 1747.000
31.32500 1637.000
31.34000 1571.000
31.35500 1525.000
31.37000 1481.000
31.38500 1481.000
31.40000 1435.000
31.41500 1436.000
31.43000 1415.000
31.44500 1353.000
31.46000 1335.000
31.47500 1332.000
31.49000 1375.000
31.50500 1318.000
31.52000 1272.000
31.53500 1281.000
31.55000 1235.000
31.56500 1179.000
31.58000 1260.000
31.59500 1286.000
31.61000 1250.000
31.62500 1250.000
31.64000 1208.000
31.65500 1210.000
31.67000 1223.000
31.68500 1198.000
31.70000 1202.000
31.71500 1239.000
31.73000 1185.000
31.74500 1210.000
31.76000 1180.000
31.77500 1227.000
31.79000 1175.000
31.80500 1212.000
31.82000 1166.000
31.83500 1213.000
31.85000 1230.000
31.86500 1130.000
31.88000 1162.000
31.89500 1192.000
31.91000 1173.000
31.92500 1165.000
31.94000 1118.000
31.95500 1124.000
31.97000 1117.000
31.98500 1125.000
32.00000 1112.000
32.01500 1117.000
32.03000 1140.000
32.04500 1169.000
32.06000 1154.000
32.07500 1156.000
32.09000 1135.000
32.10500 1109.000
32.12000 1103.000
32.13500 1094.000
32.15000 1153.000
32.16500 1164.000
32.18000 1171.000
32.19500 1158.000
32.21000 1162.000
32.22500 1184.000
32.24000 1143.000
32.25500 1108.000
32.27000 1090.000
32.28500 1119.000
32.30000 1119.000
32.31500 1102.000
32.33000 1087.000
32.34500 1069.000
32.36000 1060.000
32.37500 1097.000
32.39000 1045.000
32.40500 1068.000
32.42000 1086.000
32.43500 1072.000
32.45000 1016.000
32.46500 1080.000
32.48000 1109.000
32.49500 1129.000
32.51000 1122.000
32.52500 1051.000
32.54000 1014.000
32.55500 1062.000
32.57000 1070.000
32.58500 1039.000
32.60000 1074.000
32.61500 1091.000
32.63000 1060.000
32.64500 1068.000
32.66000 1077.000
32.67500 1069.000
32.69000 979.000
32.70500 1031.000
32.72000 1124.000
32.73500 1104.000
32.75000 1111.000
32.76500 1116.000
32.78000 1090.000
32.79500 1034.000
32.81000 1040.000
32.82500 1049.000
32.84000 1065.000
32.85500 1049.000
32.87000 1015.000
32.88500 1073.000
32.90000 1045.000
32.91500 1037.000
32.93000 1023.000
32.94500 1015.000
32.96000 1017.000
32.97500 1044.000
32.99000 1078.000
33.00500 1085.000
33.02000 1072.000
33.03500 1066.000
33.05000 1076.000
33.06500 1062.000
33.08000 1082.000
33.09500 1047.000
33.11000 1085.000
33.12500 1109.000
33.14000 1061.000
33.15500 1083.000
33.17000 1092.000
33.18500 1075.000
33.20000 1090.000
33.21500 1027.000
33.23000 1033.000
33.24500 1043.000
33.26000 1068.000
33.27500 1059.000
33.29000 1060.000
33.30500 1122.000
33.32000 1077.000
33.33500 1011.000
33.35000 1042.000
33.36500 1039.000
33.38000 999.000
33.39500 1059.000
33.41000 1102.000
33.42500 1081.000
33.44000 1060.000
33.45500 1017.000
33.47000 1003.000
33.48500 1046.000
33.50000 1034.000
33.51500 1048.000
33.53000 1079.000
33.54500 1035.000
33.56000 1086.000
33.57500 1058.000
33.59000 1029.000
33.60500 1007.000
33.62000 1012.000
33.63500 1031.000
33.65000 1007.000
33.66500 1057.000
33.68000 1045.000
33.69500 1059.000
33.71000 1069.000
33.72500 1074.000
33.74000 1098.000
33.75500 1015.000
33.77000 982.000
33.78500 1102.000
33.80000 1089.000
33.81500 1052.000
33.83000 1024.000
33.84500 1048.000
33.86000 1040.000
33.87500 1000.000
33.89000 995.000
33.90500 1027.000
33.92000 1052.000
33.93500 1076.000
33.95000 1034.000
33.96500 1012.000
33.98000 1067.000
33.99500 1081.000
34.01000 1084.000
34.02500 1102.000
34.04000 1036.000
34.05500 1056.000
34.07000 1040.000
34.08500 1098.000
34.10000 1041.000
34.11500 1004.000
34.13000 968.000
34.14500 1026.000
34.16000 992.000
34.17500 1050.000
34.19000 1030.000
34.20500 1039.000
34.22000 967.000
34.23500 1064.000
34.25000 1048.000
34.26500 984.000
34.28000 1023.000
34.29500 1039.000
34.31000 1025.000
34.32500 1043.000
34.34000 1006.000
34.35500 1020.000
34.37000 983.000
34.38500 974.000
34.40000 1001.000
34.41500 1007.000
34.43000 981.000
34.44500 999.000
34.46000 954.000
34.47500 946.000
34.49000 990.000
34.50500 965.000
34.52000 974.000
34.53500 981.000
34.55000 972.000
34.56500 937.000
34.58000 949.000
34.59500 943.000
34.61000 929.000
34.62500 963.000
34.64000 919.000
34.65500 909.000
34.67000 900.000
34.68500 860.000
34.70000 918.000
34.71500 926.000
34.73000 945.000
34.74500 914.000
34.76000 878.000
34.77500 878.000
34.79000 880.000
34.80500 882.000
34.82000 899.000
34.83500 869.000
34.85000 846.000
34.86500 871.000
34.88000 859.000
34.89500 865.000
34.91000 887.000
34.92500 887.000
34.94000 912.000
34.95500 860.000
34.97000 853.000
34.98500 839.000
35.00000 857.000
35.01500 888.000
35.03000 879.000
35.04500 878.000
35.06000 862.000
35.07500 868.000
35.09000 861.000
35.10500 840.000
35.12000 857.000
35.13500 869.000
35.15000 882.000
35.16500 894.000
35.18000 860.000
35.19500 802.000
35.21000 831.000
35.22500 899.000
35.24000 904.000
35.25500 860.000
35.27000 855.000
35.28500 837.000
35.30000 854.000
35.31500 876.000
35.33000 829.000
35.34500 821.000
35.36000 838.000
35.37500 834.000
35.39000 831.000
35.40500 824.000
35.42000 803.000
35.43500 815.000
35.45000 808.000
35.46500 822.000
35.48000 793.000
35.49500 812.000
35.51000 808.000
35.52500 787.000
35.54000 823.000
35.55500 833.000
35.57000 811.000
35.58500 843.000
35.60000 856.000
35.61500 822.000
35.63000 839.000
35.64500 809.000
35.66000 794.000
35.67500 833.000
35.69000 790.000
35.70500 785.000
35.72000 737.000
35.73500 804.000
35.75000 794.000
35.76500 806.000
35.78000 783.000
35.79500 833.000
35.81000 788.000
35.82500 796.000
35.84000 806.000
35.85500 800.000
35.87000 775.000
35.88500 774.000
35.90000 756.000
35.91500 788.000
35.93000 808.000
35.94500 757.000
35.96000 782.000
35.97500 782.000
35.99000 800.000
36.00500 774.000
36.02000 789.000
36.03500 767.000
36.05000 762.000
36.06500 772.000
36.08000 798.000
36.09500 784.000
36.11000 791.000
36.12500 761.000
36.14000 743.000
36.15500 751.000
36.17000 749.000
36.18500 765.000
36.20000 738.000
36.21500 731.000
36.23000 760.000
36.24500 778.000
36.26000 772.000
36.27500 781.000
36.29000 753.000
36.30500 743.000
36.32000 723.000
36.33500 780.000
36.35000 745.000
36.36500 726.000
36.38000 722.000
36.39500 762.000
36.41000 768.000
36.42500 744.000
36.44000 743.000
36.45500 772.000
36.47000 783.000
36.48500 770.000
36.50000 717.000
36.51500 713.000
36.53000 741.000
36.54500 725.000
36.56000 769.000
36.57500 755.000
36.59000 744.000
36.60500 750.000
36.62000 713.000
36.63500 713.000
36.65000 730.000
36.66500 698.000
36.68000 728.000
36.69500 724.000
36.71000 730.000
36.72500 707.000
36.74000 722.000
36.75500 716.000
36.77000 708.000
36.78500 714.000
36.80000 719.000
36.81500 736.000
36.83000 714.000
36.84500 690.000
36.86000 723.000
36.87500 740.000
36.89000 704.000
36.90500 720.000
36.92000 678.000
36.93500 706.000
36.95000 717.000
36.96500 726.000
36.98000 701.000
36.99500 681.000
37.01000 717.000
37.02500 738.000
37.04000 711.000
37.05500 696.000
37.07000 734.000
37.08500 703.000
37.10000 729.000
37.11500 766.000
37.13000 741.000
37.14500 771.000
37.16000 758.000
37.17500 749.000
37.19000 751.000
37.20500 750.000
37.22000 693.000
37.23500 717.000
37.25000 722.000
37.26500 763.000
37.28000 735.000
37.29500 711.000
37.31000 783.000
37.32500 782.000
37.34000 774.000
37.35500 786.000
37.37000 798.000
37.38500 784.000
37.40000 723.000
37.41500 772.000
37.43000 854.000
37.44500 828.000
37.46000 827.000
37.47500 899.000
37.49000 942.000
37.50500 887.000
37.52000 937.000
37.53500 973.000
37.55000 980.000
37.56500 955.000
37.58000 930.000
37.59500 945.000
37.61000 988.000
37.62500 936.000
37.64000 900.000
37.65500 902.000
37.67000 890.000
37.68500 901.000
37.70000 864.000
37.71500 857.000
37.73000 842.000
37.74500 816.000
37.76000 796.000
37.77500 818.000
37.79000 817.000
37.80500 813.000
37.82000 754.000
37.83500 793.000
37.85000 791.000
37.86500 786.000
37.88000 816.000
37.89500 823.000
37.91000 801.000
37.92500 810.000
37.94000 785.000
37.95500 744.000
37.97000 718.000
37.98500 770.000
38.00000 746.000
38.01500 762.000
38.03000 700.000
38.04500 772.000
38.06000 771.000
38.07500 773.000
38.09000 753.000
38.10500 709.000
38.12000 765.000
38.13500 752.000
38.15000 729.000
38.16500 735.000
38.18000 740.000
38.19500 767.000
38.21000 743.000
38.22500 732.000
38.24000 715.000
38.25500 744.000
38.27000 718.000
38.28500 692.000
38.30000 736.000
38.31500 683.000
38.33000 722.000
38.34500 695.000
38.36000 761.000
38.37500 730.000
38.39000 731.000
38.40500 695.000
38.42000 717.000
38.43500 725.000
38.45000 697.000
38.46500 700.000
38.48000 754.000
38.49500 696.000
38.51000 733.000
38.52500 760.000
38.54000 683.000
38.55500 720.000
38.57000 723.000
38.58500 712.000
38.60000 725.000
38.61500 704.000
38.63000 717.000
38.64500 691.000
38.66000 743.000
38.67500 762.000
38.69000 735.000
38.70500 699.000
38.72000 688.000
38.73500 708.000
38.75000 701.000
38.76500 681.000
38.78000 650.000
38.79500 660.000
38.81000 730.000
38.82500 710.000
38.84000 754.000
38.85500 757.000
38.87000 751.000
38.88500 737.000
38.90000 720.000
38.91500 718.000
38.93000 737.000
38.94500 753.000
38.96000 760.000
38.97500 719.000
38.99000 752.000
39.00500 750.000
39.02000 801.000
39.03500 787.000
39.05000 729.000
39.06500 769.000
39.08000 729.000
39.09500 772.000
39.11000 784.000
39.12500 766.000
39.14000 811.000
39.15500 788.000
39.17000 784.000
39.18500 793.000
39.20000 813.000
39.21500 851.000
39.23000 799.000
39.24500 808.000
39.26000 817.000
39.27500 811.000
39.29000 822.000
39.30500 768.000
39.32000 789.000
39.33500 839.000
39.35000 801.000
39.36500 812.000
39.38000 828.000
39.39500 811.000
39.41000 836.000
39.42500 817.000
39.44000 821.000
39.45500 849.000
39.47000 815.000
39.48500 857.000
39.50000 803.000
39.51500 772.000
39.53000 745.000
39.54500 825.000
39.56000 830.000
39.57500 800.000
39.59000 766.000
39.60500 745.000
39.62000 755.000
39.63500 774.000
39.65000 755.000
39.66500 740.000
39.68000 760.000
39.69500 740.000
39.71000 747.000
39.72500 787.000
39.74000 754.000
39.75500 787.000
39.77000 733.000
39.78500 797.000
39.80000 785.000
39.81500 772.000
39.83000 719.000
39.84500 730.000
39.86000 725.000
39.87500 737.000
39.89000 741.000
39.90500 753.000
39.92000 759.000
39.93500 736.000
39.95000 698.000
39.96500 749.000
39.98000 759.000
39.99500 781.000
40.01000 730.000
40.02500 742.000
40.04000 738.000
40.05500 805.000
40.07000 764.000
40.08500 738.000
40.10000 747.000
40.11500 793.000
40.13000 739.000
40.14500 768.000
40.16000 790.000
40.17500 786.000
40.19000 766.000
40.20500 760.000
40.22000 733.000
40.23500 772.000
40.25000 783.000
40.26500 811.000
40.28000 803.000
40.29500 782.000
40.31000 758.000
40.32500 797.000
40.34000 775.000
40.35500 775.000
40.37000 749.000
40.38500 801.000
40.40000 790.000
40.41500 785.000
40.43000 787.000
40.44500 777.000
40.46000 802.000
40.47500 814.000
40.49000 814.000
40.50500 784.000
40.52000 776.000
40.53500 808.000
40.55000 769.000
40.56500 764.000
40.58000 788.000
40.59500 781.000
40.61000 783.000
40.62500 775.000
40.64000 771.000
40.65500 805.000
40.67000 788.000
40.68500 790.000
40.70000 766.000
40.71500 764.000
40.73000 723.000
40.74500 787.000
40.76000 781.000
40.77500 789.000
40.79000 799.000
40.80500 795.000
40.82000 771.000
40.83500 739.000
40.85000 776.000
40.86500 754.000
40.88000 734.000
40.89500 784.000
40.91000 776.000
40.92500 776.000
40.94000 764.000
40.95500 788.000
40.97000 787.000
40.98500 753.000
41.00000 802.000
41.01500 811.000
41.03000 770.000
41.04500 807.000
41.06000 783.000
41.07500 770.000
41.09000 820.000
41.10500 801.000
41.12000 835.000
41.13500 796.000
41.15000 794.000
41.16500 851.000
41.18000 879.000
41.19500 839.000
41.21000 828.000
41.22500 852.000
41.24000 819.000
41.25500 809.000
41.27000 805.000
41.28500 797.000
41.30000 823.000
41.31500 782.000
41.33000 772.000
41.34500 802.000
41.36000 770.000
41.37500 772.000
41.39000 791.000
41.40500 780.000
41.42000 754.000
41.43500 757.000
41.45000 742.000
41.46500 752.000
41.48000 728.000
41.49500 746.000
41.51000 715.000
41.52500 783.000
41.54000 724.000
41.55500 695.000
41.57000 701.000
41.58500 747.000
41.60000 754.000
41.61500 718.000
41.63000 690.000
41.64500 676.000
41.66000 710.000
41.67500 716.000
41.69000 687.000
41.70500 675.000
41.72000 697.000
41.73500 684.000
41.75000 706.000
41.76500 711.000
41.78000 680.000
41.79500 700.000
41.81000 726.000
41.82500 703.000
41.84000 731.000
41.85500 688.000
41.87000 738.000
41.88500 707.000
41.90000 705.000
41.91500 685.000
41.93000 741.000
41.94500 716.000
41.96000 731.000
41.97500 688.000
41.99000 699.000
42.00500 718.000
42.02000 762.000
42.03500 761.000
42.05000 705.000
42.06500 686.000
42.08000 715.000
42.09500 707.000
42.11000 694.000
42.12500 703.000
42.14000 716.000
42.15500 686.000
42.17000 745.000
42.18500 719.000
42.20000 722.000
42.21500 726.000
42.23000 770.000
42.24500 750.000
42.26000 722.000
42.27500 697.000
42.29000 684.000
42.30500 691.000
42.32000 739.000
42.33500 713.000
42.35000 697.000
42.36500 696.000
42.38000 703.000
42.39500 730.000
42.41000 761.000
42.42500 716.000
42.44000 733.000
42.45500 704.000
42.47000 729.000
42.48500 741.000
42.50000 716.000
42.51500 734.000
42.53000 732.000
42.54500 723.000
42.56000 724.000
42.57500 690.000
42.59000 737.000
42.60500 711.000
42.62000 727.000
42.63500 720.000
42.65000 693.000
42.66500 715.000
42.68000 730.000
42.69500 740.000
42.71000 704.000
42.72500 707.000
42.74000 734.000
42.75500 731.000
42.77000 746.000
42.78500 712.000
42.80000 712.000
42.81500 691.000
42.83000 715.000
42.84500 739.000
42.86000 753.000
42.87500 751.000
42.89000 747.000
42.90500 732.000
42.92000 707.000
42.93500 722.000
42.95000 740.000
42.96500 680.000
42.98000 687.000
42.99500 746.000
43.01000 755.000
43.02500 729.000
43.04000 726.000
43.05500 719.000
43.07000 752.000
43.08500 706.000
43.10000 733.000
43.11500 732.000
43.13000 788.000
43.14500 751.000
43.16000 726.000
43.17500 745.000
43.19000 745.000
43.20500 745.000
43.22000 741.000
43.23500 733.000
43.25000 732.000
43.26500 732.000
43.28000 756.000
43.29500 698.000
43.31000 728.000
43.32500 730.000
43.34000 680.000
43.35500 668.000
43.37000 705.000
43.38500 723.000
43.40000 740.000
43.41500 665.000
43.43000 702.000
43.44500 702.000
43.46000 721.000
43.47500 716.000
43.49000 709.000
43.50500 735.000
43.52000 735.000
43.53500 742.000
43.55000 704.000
43.56500 734.000
43.58000 680.000
43.59500 677.000
43.61000 725.000
43.62500 727.000
43.64000 705.000
43.65500 695.000
43.67000 723.000
43.68500 733.000
43.70000 734.000
43.71500 707.000
43.73000 710.000
43.74500 728.000
43.76000 758.000
43.77500 761.000
43.79000 735.000
43.80500 717.000
43.82000 717.000
43.83500 748.000
43.85000 708.000
43.86500 687.000
43.88000 686.000
43.89500 676.000
43.91000 669.000
43.92500 711.000
43.94000 717.000
43.95500 721.000
43.97000 678.000
43.98500 714.000
44.00000 722.000
44.01500 680.000
44.03000 709.000
44.04500 697.000
44.06000 752.000
44.07500 714.000
44.09000 714.000
44.10500 684.000
44.12000 715.000
44.13500 734.000
44.15000 718.000
44.16500 755.000
44.18000 735.000
44.19500 715.000
44.21000 695.000
44.22500 707.000
44.24000 725.000
44.25500 708.000
44.27000 682.000
44.28500 679.000
44.30000 704.000
44.31500 710.000
44.33000 699.000
44.34500 706.000
44.36000 759.000
44.37500 733.000
44.39000 732.000
44.40500 723.000
44.42000 724.000
44.43500 708.000
44.45000 684.000
44.46500 668.000
44.48000 684.000
44.49500 707.000
44.51000 695.000
44.52500 692.000
44.54000 699.000
44.55500 692.000
44.57000 704.000
44.58500 724.000
44.60000 703.000
44.61500 696.000
44.63000 707.000
44.64500 675.000
44.66000 693.000
44.67500 661.000
44.69000 687.000
44.70500 695.000
44.72000 683.000
44.73500 683.000
44.75000 676.000
44.76500 688.000
44.78000 685.000
44.79500 681.000
44.81000 695.000
44.82500 701.000
44.84000 698.000
44.85500 672.000
44.87000 661.000
44.88500 708.000
44.90000 684.000
44.91500 726.000
44.93000 732.000
44.94500 693.000
44.96000 671.000
44.97500 674.000
44.99000 680.000
45.00500 679.000
45.02000 695.000
45.03500 714.000
45.05000 666.000
45.06500 655.000
45.08000 670.000
45.09500 738.000
45.11000 724.000
45.12500 682.000
45.14000 675.000
45.15500 715.000
45.17000 681.000
45.18500 708.000
45.20000 709.000
45.21500 706.000
45.23000 690.000
45.24500 662.000
45.26000 691.000
45.27500 708.000
45.29000 674.000
45.30500 710.000
45.32000 723.000
45.33500 720.000
45.35000 703.000
45.36500 725.000
45.38000 721.000
45.39500 694.000
45.41000 699.000
45.42500 693.000
45.44000 701.000
45.45500 746.000
45.47000 704.000
45.48500 696.000
45.50000 706.000
45.51500 750.000
45.53000 712.000
45.54500 691.000
45.56000 714.000
45.57500 670.000
45.59000 738.000
45.60500 700.000
45.62000 700.000
45.63500 696.000
45.65000 696.000
45.66500 685.000
45.68000 709.000
45.69500 736.000
45.71000 718.000
45.72500 714.000
45.74000 688.000
45.75500 668.000
45.77000 679.000
45.78500 699.000
45.80000 707.000
45.81500 690.000
45.83000 677.000
45.84500 730.000
45.86000 726.000
45.87500 703.000
45.89000 719.000
45.90500 710.000
45.92000 719.000
45.93500 686.000
45.95000 705.000
45.96500 699.000
45.98000 721.000
45.99500 731.000
46.01000 703.000
46.02500 716.000
46.04000 707.000
46.05500 662.000
46.07000 685.000
46.08500 719.000
46.10000 700.000
46.11500 715.000
46.13000 693.000
46.14500 687.000
46.16000 683.000
46.17500 716.000
46.19000 712.000
46.20500 690.000
46.22000 711.000
46.23500 694.000
46.25000 654.000
46.26500 668.000
46.28000 691.000
46.29500 697.000
46.31000 670.000
46.32500 685.000
46.34000 675.000
46.35500 690.000
46.37000 676.000
46.38500 677.000
46.40000 676.000
46.41500 674.000
46.43000 688.000
46.44500 694.000
46.46000 692.000
46.47500 698.000
46.49000 692.000
46.50500 651.000
46.52000 662.000
46.53500 657.000
46.55000 667.000
46.56500 677.000
46.58000 698.000
46.59500 733.000
46.61000 723.000
46.62500 726.000
46.64000 657.000
46.65500 665.000
46.67000 720.000
46.68500 686.000
46.70000 712.000
46.71500 675.000
46.73000 662.000
46.74500 693.000
46.76000 691.000
46.77500 663.000
46.79000 695.000
46.80500 694.000
46.82000 663.000
46.83500 681.000
46.85000 665.000
46.86500 658.000
46.88000 663.000
46.89500 665.000
46.91000 670.000
46.92500 639.000
46.94000 657.000
46.95500 689.000
46.97000 691.000
46.98500 662.000
47.00000 661.000
47.01500 634.000
47.03000 639.000
47.04500 667.000
47.06000 670.000
47.07500 657.000
47.09000 692.000
47.10500 634.000
47.12000 660.000
47.13500 661.000
47.15000 644.000
47.16500 696.000
47.18000 662.000
47.19500 629.000
47.21000 637.000
47.22500 689.000
47.24000 690.000
47.25500 652.000
47.27000 652.000
47.28500 639.000
47.30000 635.000
47.31500 678.000
47.33000 680.000
47.34500 677.000
47.36000 666.000
47.37500 642.000
47.39000 665.000
47.40500 632.000
47.42000 656.000
47.43500 644.000
47.45000 676.000
47.46500 612.000
47.48000 647.000
47.49500 629.000
47.51000 651.000
47.52500 631.000
47.54000 645.000
47.55500 638.000
47.57000 635.000
47.58500 679.000
47.60000 662.000
47.61500 628.000
47.63000 645.000
47.64500 625.000
47.66000 660.000
47.67500 656.000
47.69000 639.000
47.70500 605.000
47.72000 622.000
47.73500 633.000
47.75000 607.000
47.76500 642.000
47.78000 636.000
47.79500 612.000
47.81000 620.000
47.82500 662.000
47.84000 656.000
47.85500 588.000
47.87000 608.000
47.88500 616.000
47.90000 602.000
47.91500 609.000
47.93000 622.000
47.94500 601.000
47.96000 648.000
47.97500 599.000
47.99000 594.000
48.00500 597.000
48.02000 623.000
48.03500 614.000
48.05000 616.000
48.06500 614.000
48.08000 599.000
48.09500 588.000
48.11000 617.000
48.12500 595.000
48.14000 598.000
48.15500 574.000
48.17000 586.000
48.18500 614.000
48.20000 580.000
48.21500 600.000
48.23000 604.000
48.24500 576.000
48.26000 573.000
48.27500 584.000
48.29000 579.000
48.30500 591.000
48.32000 580.000
48.33500 588.000
48.35000 560.000
48.36500 571.000
48.38000 587.000
48.39500 586.000
48.41000 628.000
48.42500 607.000
48.44000 597.000
48.45500 578.000
48.47000 570.000
48.48500 592.000
48.50000 577.000
48.51500 600.000
48.53000 587.000
48.54500 596.000
48.56000 612.000
48.57500 622.000
48.59000 633.000
48.60500 597.000
48.62000 593.000
48.63500 584.000
48.65000 596.000
48.66500 561.000
48.68000 563.000
48.69500 572.000
48.71000 560.000
48.72500 570.000
48.74000 583.000
48.75500 581.000
48.77000 556.000
48.78500 544.000
48.80000 554.000
48.81500 557.000
48.83000 593.000
48.84500 568.000
48.86000 554.000
48.87500 579.000
48.89000 594.000
48.90500 535.000
48.92000 573.000
48.93500 565.000
48.95000 563.000
48.96500 560.000
48.98000 547.000
48.99500 572.000
49.01000 599.000
49.02500 593.000
49.04000 579.000
49.05500 566.000
49.07000 536.000
49.08500 587.000
49.10000 588.000
49.11500 558.000
49.13000 549.000
49.14500 593.000
49.16000 578.000
49.17500 574.000
49.19000 590.000
49.20500 582.000
49.22000 594.000
49.23500 586.000
49.25000 606.000
49.26500 571.000
49.28000 597.000
49.29500 615.000
49.31000 617.000
49.32500 605.000
49.34000 616.000
49.35500 587.000
49.37000 587.000
49.38500 589.000
49.40000 598.000
49.41500 603.000
49.43000 614.000
49.44500 594.000
49.46000 614.000
49.47500 619.000
49.49000 593.000
49.50500 581.000
49.52000 596.000
49.53500 590.000
49.55000 592.000
49.56500 622.000
49.58000 593.000
49.59500 592.000
49.61000 583.000
49.62500 603.000
49.64000 546.000
49.65500 582.000
49.67000 616.000
49.68500 556.000
49.70000 560.000
49.71500 582.000
49.73000 577.000
49.74500 581.000
49.76000 588.000
49.77500 590.000
49.79000 547.000
49.80500 569.000
49.82000 573.000
49.83500 570.000
49.85000 543.000
49.86500 521.000
49.88000 566.000
49.89500 583.000
49.91000 580.000
49.92500 547.000
49.94000 592.000
49.95500 582.000
49.97000 593.000
49.98500 584.000
50.00000 536.000
50.01500 566.000
50.03000 549.000
50.04500 567.000
50.06000 539.000
50.07500 563.000
50.09000 593.000
50.10500 596.000
50.12000 574.000
50.13500 556.000
50.15000 543.000
50.16500 600.000
50.18000 584.000
50.19500 580.000
50.21000 586.000
50.22500 582.000
50.24000 578.000
50.25500 588.000
50.27000 606.000
50.28500 593.000
50.30000 578.000
50.31500 559.000
50.33000 553.000
50.34500 574.000
50.36000 548.000
50.37500 602.000
50.39000 594.000
50.40500 548.000
50.42000 561.000
50.43500 568.000
50.45000 572.000
50.46500 561.000
50.48000 574.000
50.49500 597.000
50.51000 568.000
50.52500 562.000
50.54000 577.000
50.55500 585.000
50.57000 553.000
50.58500 561.000
50.60000 592.000
50.61500 589.000
50.63000 598.000
50.64500 576.000
50.66000 559.000
50.67500 553.000
50.69000 530.000
50.70500 533.000
50.72000 580.000
50.73500 550.000
50.75000 561.000
50.76500 587.000
50.78000 580.000
50.79500 604.000
50.81000 568.000
50.82500 550.000
50.84000 634.000
50.85500 601.000
50.87000 571.000
50.88500 580.000
50.90000 560.000
50.91500 585.000
50.93000 598.000
50.94500 586.000
50.96000 616.000
50.97500 586.000
50.99000 572.000
51.00500 575.000
51.02000 612.000
51.03500 592.000
51.05000 614.000
51.06500 569.000
51.08000 592.000
51.09500 594.000
51.11000 579.000
51.12500 553.000
51.14000 565.000
51.15500 588.000
51.17000 594.000
51.18500 562.000
51.20000 551.000
51.21500 622.000
51.23000 628.000
51.24500 560.000
51.26000 567.000
51.27500 573.000
51.29000 582.000
51.30500 550.000
51.32000 579.000
51.33500 610.000
51.35000 596.000
51.36500 602.000
51.38000 612.000
51.39500 594.000
51.41000 607.000
51.42500 612.000
51.44000 605.000
51.45500 617.000
51.47000 620.000
51.48500 624.000
51.50000 593.000
51.51500 611.000
51.53000 598.000
51.54500 622.000
51.56000 615.000
51.57500 586.000
51.59000 617.000
51.60500 623.000
51.62000 574.000
51.63500 636.000
51.65000 582.000
51.66500 603.000
51.68000 636.000
51.69500 611.000
51.71000 629.000
51.72500 642.000
51.74000 611.000
51.75500 646.000
51.77000 622.000
51.78500 628.000
51.80000 638.000
51.81500 633.000
51.83000 628.000
51.84500 636.000
51.86000 652.000
51.87500 637.000
51.89000 689.000
51.90500 684.000
51.92000 692.000
51.93500 686.000
51.95000 681.000
51.96500 664.000
51.98000 685.000
51.99500 684.000
52.01000 675.000
52.02500 709.000
52.04000 715.000
52.05500 712.000
52.07000 641.000
52.08500 693.000
52.10000 688.000
52.11500 694.000
52.13000 706.000
52.14500 710.000
52.16000 710.000
52.17500 701.000
52.19000 690.000
52.20500 707.000
52.22000 722.000
52.23500 718.000
52.25000 647.000
52.26500 628.000
52.28000 652.000
52.29500 677.000
52.31000 680.000
52.32500 663.000
52.34000 632.000
52.35500 645.000
52.37000 633.000
52.38500 680.000
52.40000 675.000
52.41500 682.000
52.43000 685.000
52.44500 645.000
52.46000 627.000
52.47500 687.000
52.49000 687.000
52.50500 658.000
52.52000 658.000
52.53500 642.000
52.55000 653.000
52.56500 675.000
52.58000 650.000
52.59500 626.000
52.61000 657.000
52.62500 620.000
52.64000 645.000
52.65500 649.000
52.67000 631.000
52.68500 626.000
52.70000 635.000
52.71500 601.000
52.73000 602.000
52.74500 642.000
52.76000 650.000
52.77500 623.000
52.79000 636.000
52.80500 644.000
52.82000 654.000
52.83500 695.000
52.85000 637.000
52.86500 646.000
52.88000 627.000
52.89500 657.000
52.91000 649.000
52.92500 646.000
52.94000 646.000
52.95500 664.000
52.97000 664.000
52.98500 646.000
53.00000 645.000
53.01500 701.000
53.03000 724.000
53.04500 706.000
53.06000 633.000
53.07500 653.000
53.09000 677.000
53.10500 654.000
53.12000 672.000
53.13500 654.000
53.15000 648.000
53.16500 652.000
53.18000 626.000
53.19500 679.000
53.21000 649.000
53.22500 637.000
53.24000 676.000
53.25500 663.000
53.27000 662.000
53.28500 648.000
53.30000 651.000
53.31500 645.000
53.33000 607.000
53.34500 645.000
53.36000 659.000
53.37500 637.000
53.39000 676.000
53.40500 697.000
53.42000 681.000
53.43500 629.000
53.45000 617.000
53.46500 663.000
53.48000 661.000
53.49500 639.000
53.51000 654.000
53.52500 677.000
53.54000 672.000
53.55500 654.000
53.57000 645.000
53.58500 691.000
53.60000 655.000
53.61500 653.000
53.63000 690.000
53.64500 659.000
53.66000 636.000
53.67500 679.000
53.69000 654.000
53.70500 636.000
53.72000 649.000
53.73500 619.000
53.75000 646.000
53.76500 652.000
53.78000 650.000
53.79500 692.000
53.81000 658.000
53.82500 662.000
53.84000 684.000
53.85500 677.000
53.87000 642.000
53.88500 659.000
53.90000 691.000
53.91500 632.000
53.93000 647.000
53.94500 674.000
53.96000 666.000
53.97500 665.000
53.99000 661.000
54.00500 687.000
54.02000 663.000
54.03500 686.000
54.05000 652.000
54.06500 670.000
54.08000 642.000
54.09500 676.000
54.11000 694.000
54.12500 703.000
54.14000 646.000
54.15500 678.000
54.17000 682.000
54.18500 640.000
54.20000 651.000
54.21500 659.000
54.23000 690.000
54.24500 635.000
54.26000 665.000
54.27500 645.000
54.29000 639.000
54.30500 660.000
54.32000 657.000
54.33500 662.000
54.35000 685.000
54.36500 684.000
54.38000 667.000
54.39500 635.000
54.41000 672.000
54.42500 686.000
54.44000 719.000
54.45500 695.000
54.47000 693.000
54.48500 705.000
54.50000 676.000
54.51500 664.000
54.53000 694.000
54.54500 670.000
54.56000 660.000
54.57500 684.000
54.59000 674.000
54.60500 645.000
54.62000 695.000
54.63500 671.000
54.65000 726.000
54.66500 658.000
54.68000 693.000
54.69500 697.000
54.71000 677.000
54.72500 702.000
54.74000 704.000
54.75500 663.000
54.77000 677.000
54.78500 686.000
54.80000 665.000
54.81500 654.000
54.83000 640.000
54.84500 683.000
54.86000 691.000
54.87500 665.000
54.89000 688.000
54.90500 708.000
54.92000 666.000
54.93500 664.000
54.95000 677.000
54.96500 666.000
54.98000 694.000
54.99500 685.000
55.01000 685.000
55.02500 725.000
55.04000 738.000
55.05500 675.000
55.07000 646.000
55.08500 687.000
55.10000 700.000
55.11500 631.000
55.13000 629.000
55.14500 614.000
55.16000 648.000
55.17500 657.000
55.19000 676.000
55.20500 688.000
55.22000 672.000
55.23500 706.000
55.25000 701.000
55.26500 673.000
55.28000 637.000
55.29500 697.000
55.31000 680.000
55.32500 699.000
55.34000 675.000
55.35500 659.000
55.37000 648.000
55.38500 666.000
55.40000 658.000
55.41500 648.000
55.43000 648.000
55.44500 660.000
55.46000 638.000
55.47500 676.000
55.49000 693.000
55.50500 700.000
55.52000 655.000
55.53500 628.000
55.55000 660.000
55.56500 654.000
55.58000 646.000
55.59500 646.000
55.61000 665.000
55.62500 641.000
55.64000 613.000
55.65500 626.000
55.67000 648.000
55.68500 651.000
55.70000 641.000
55.71500 680.000
55.73000 651.000
55.74500 647.000
55.76000 656.000
55.77500 695.000
55.79000 658.000
55.80500 674.000
55.82000 647.000
55.83500 685.000
55.85000 624.000
55.86500 632.000
55.88000 627.000
55.89500 634.000
55.91000 635.000
55.92500 662.000
55.94000 672.000
55.95500 620.000
55.97000 598.000
55.98500 615.000
56.00000 590.000
56.01500 631.000
56.03000 640.000
56.04500 629.000
56.06000 623.000
56.07500 619.000
56.09000 635.000
56.10500 622.000
56.12000 617.000
56.13500 622.000
56.15000 625.000
56.16500 632.000
56.18000 623.000
56.19500 610.000
56.21000 618.000
56.22500 609.000
56.24000 593.000
56.25500 624.000
56.27000 608.000
56.28500 594.000
56.30000 586.000
56.31500 612.000
56.33000 606.000
56.34500 593.000
56.36000 591.000
56.37500 533.000
56.39000 593.000
56.40500 579.000
56.42000 585.000
56.43500 584.000
56.45000 579.000
56.46500 602.000
56.48000 612.000
56.49500 623.000
56.51000 581.000
56.52500 588.000
56.54000 593.000
56.55500 563.000
56.57000 576.000
56.58500 592.000
56.60000 578.000
56.61500 592.000
56.63000 588.000
56.64500 553.000
56.66000 580.000
56.67500 577.000
56.69000 595.000
56.70500 598.000
56.72000 579.000
56.73500 579.000
56.75000 597.000
56.76500 604.000
56.78000 527.000
56.79500 573.000
56.81000 601.000
56.82500 607.000
56.84000 582.000
56.85500 553.000
56.87000 556.000
56.88500 553.000
56.90000 526.000
56.91500 527.000
56.93000 581.000
56.94500 576.000
56.96000 587.000
56.97500 561.000
56.99000 551.000
57.00500 526.000
57.02000 506.000
57.03500 539.000
57.05000 578.000
57.06500 545.000
57.08000 569.000
57.09500 560.000
57.11000 581.000
57.12500 568.000
57.14000 571.000
57.15500 537.000
57.17000 533.000
57.18500 544.000
57.20000 535.000
57.21500 543.000
57.23000 563.000
57.24500 576.000
57.26000 533.000
57.27500 543.000
57.29000 523.000
57.30500 511.000
57.32000 541.000
57.33500 541.000
57.35000 565.000
57.36500 538.000
57.38000 547.000
57.39500 566.000
57.41000 530.000
57.42500 546.000
57.44000 577.000
57.45500 550.000
57.47000 521.000
57.48500 544.000
57.50000 531.000
57.51500 536.000
57.53000 550.000
57.54500 540.000
57.56000 563.000
57.57500 537.000
57.59000 575.000
57.60500 528.000
57.62000 520.000
57.63500 551.000
57.65000 536.000
57.66500 556.000
57.68000 536.000
57.69500 514.000
57.71000 544.000
57.72500 526.000
57.74000 559.000
57.75500 494.000
57.77000 514.000
57.78500 524.000
57.80000 553.000
57.81500 563.000
57.83000 566.000
57.84500 543.000
57.86000 517.000
57.87500 482.000
57.89000 525.000
57.90500 531.000
57.92000 515.000
57.93500 539.000
57.95000 511.000
57.96500 514.000
57.98000 523.000
57.99500 546.000
58.01000 515.000
58.02500 535.000
58.04000 541.000
58.05500 563.000
58.07000 545.000
58.08500 550.000
58.10000 538.000
58.11500 537.000
58.13000 514.000
58.14500 551.000
58.16000 544.000
58.17500 541.000
58.19000 539.000
58.20500 545.000
58.22000 551.000
58.23500 548.000
58.25000 528.000
58.26500 514.000
58.28000 481.000
58.29500 519.000
58.31000 539.000
58.32500 515.000
58.34000 510.000
58.35500 534.000
58.37000 487.000
58.38500 522.000
58.40000 517.000
58.41500 487.000
58.43000 517.000
58.44500 485.000
58.46000 515.000
58.47500 515.000
58.49000 501.000
58.50500 514.000
58.52000 480.000
58.53500 487.000
58.55000 517.000
58.56500 487.000
58.58000 451.000
58.59500 536.000
58.61000 501.000
58.62500 513.000
58.64000 515.000
58.65500 551.000
58.67000 522.000
58.68500 504.000
58.70000 499.000
58.71500 505.000
58.73000 507.000
58.74500 516.000
58.76000 501.000
58.77500 488.000
58.79000 509.000
58.80500 483.000
58.82000 459.000
58.83500 508.000
58.85000 482.000
58.86500 485.000
58.88000 501.000
58.89500 475.000
58.91000 483.000
58.92500 518.000
58.94000 524.000
58.95500 524.000
58.97000 538.000
58.98500 503.000
59.00000 495.000
59.01500 480.000
59.03000 478.000
59.04500 470.000
59.06000 481.000
59.07500 473.000
59.09000 477.000
59.10500 472.000
59.12000 473.000
59.13500 477.000
59.15000 466.000
59.16500 446.000
59.18000 483.000
59.19500 487.000
59.21000 470.000
59.22500 495.000
59.24000 472.000
59.25500 485.000
59.27000 492.000
59.28500 483.000
59.30000 501.000
59.31500 501.000
59.33000 484.000
59.34500 491.000
59.36000 478.000
59.37500 456.000
59.39000 447.000
59.40500 463.000
59.42000 461.000
59.43500 473.000
59.45000 490.000
59.46500 476.000
59.48000 456.000
59.49500 492.000
59.51000 483.000
59.52500 464.000
59.54000 461.000
59.55500 480.000
59.57000 472.000
59.58500 466.000
59.60000 455.000
59.61500 467.000
59.63000 432.000
59.64500 474.000
59.66000 455.000
59.67500 487.000
59.69000 506.000
59.70500 494.000
59.72000 481.000
59.73500 461.000
59.75000 466.000
59.76500 462.000
59.78000 446.000
59.79500 450.000
59.81000 478.000
59.82500 466.000
59.84000 458.000
59.85500 454.000
59.87000 457.000
59.88500 457.000
59.90000 499.000
59.91500 440.000
59.93000 461.000
59.94500 511.000
59.96000 463.000
59.97500 480.000
59.99000 480.000
60.00500 477.000
60.02000 439.000
60.03500 486.000
60.05000 470.000
60.06500 454.000
60.08000 444.000
60.09500 457.000
60.11000 447.000
60.12500 464.000
60.14000 466.000
60.15500 489.000
60.17000 449.000
60.18500 452.000
60.20000 426.000
60.21500 459.000
60.23000 454.000
60.24500 478.000
60.26000 481.000
60.27500 472.000
60.29000 449.000
60.30500 492.000
60.32000 465.000
60.33500 452.000
60.35000 426.000
60.36500 460.000
60.38000 447.000
60.39500 445.000
60.41000 501.000
60.42500 462.000
60.44000 469.000
60.45500 494.000
60.47000 475.000
60.48500 433.000
60.50000 419.000
60.51500 437.000
60.53000 460.000
60.54500 486.000
60.56000 467.000
60.57500 446.000
60.59000 459.000
60.60500 438.000
60.62000 451.000
60.63500 459.000
60.65000 487.000
60.66500 502.000
60.68000 486.000
60.69500 461.000
60.71000 469.000
60.72500 449.000
60.74000 468.000
60.75500 462.000
60.77000 468.000
60.78500 472.000
60.80000 449.000
60.81500 472.000
60.83000 448.000
60.84500 470.000
60.86000 484.000
60.87500 452.000
60.89000 448.000
60.90500 476.000
60.92000 417.000
60.93500 461.000
60.95000 440.000
60.96500 454.000
60.98000 422.000
60.99500 451.000
61.01000 433.000
61.02500 463.000
61.04000 429.000
61.05500 451.000
61.07000 438.000
61.08500 434.000
61.10000 442.000
61.11500 454.000
61.13000 438.000
61.14500 449.000
61.16000 453.000
61.17500 482.000
61.19000 453.000
61.20500 465.000
61.22000 470.000
61.23500 424.000
61.25000 436.000
61.26500 428.000
61.28000 463.000
61.29500 433.000
61.31000 448.000
61.32500 446.000
61.34000 439.000
61.35500 442.000
61.37000 460.000
61.38500 435.000
61.40000 456.000
61.41500 419.000
61.43000 483.000
61.44500 440.000
61.46000 433.000
61.47500 443.000
61.49000 475.000
61.50500 457.000
61.52000 446.000
61.53500 447.000
61.55000 452.000
61.56500 434.000
61.58000 426.000
61.59500 449.000
61.61000 473.000
61.62500 434.000
61.64000 445.000
61.65500 467.000
61.67000 426.000
61.68500 443.000
61.70000 436.000
61.71500 470.000
61.73000 446.000
61.74500 416.000
61.76000 444.000
61.77500 430.000
61.79000 443.000
61.80500 435.000
61.82000 432.000
61.83500 457.000
61.85000 463.000
61.86500 456.000
61.88000 454.000
61.89500 447.000
61.91000 434.000
61.92500 468.000
61.94000 453.000
61.95500 450.000
61.97000 453.000
61.98500 454.000
