2.00000 3.000
2.01500 3.000
2.03000 3.000
2.04500 3.000
2.06000 5.000
2.07500 2.000
2.09000 3.000
2.10500 4.000
2.12000 2.000
2.13500 3.000
2.15000 3.000
2.16500 1.000
2.18000 1.000
2.19500 1.000
2.21000 1.000
2.22500 3.000
2.24000 6.000
2.25500 3.000
2.27000 3.000
2.28500 3.000
2.30000 3.000
2.31500 2.000
2.33000 1.000
2.34500 1.000
2.36000 0.000
2.37500 2.000
2.39000 1.000
2.40500 1.000
2.42000 0.000
2.43500 0.000
2.45000 1.000
2.46500 2.000
2.48000 2.000
2.49500 7.000
2.51000 9.000
2.52500 14.000
2.54000 12.000
2.55500 21.000
2.57000 34.000
2.58500 45.000
2.60000 56.000
2.61500 65.000
2.63000 64.000
2.64500 73.000
2.66000 84.000
2.67500 87.000
2.69000 88.000
2.70500 83.000
2.72000 94.000
2.73500 102.000
2.75000 85.000
2.76500 90.000
2.78000 84.000
2.79500 94.000
2.81000 93.000
2.82500 84.000
2.84000 83.000
2.85500 78.000
2.87000 92.000
2.88500 103.000
2.90000 82.000
2.91500 84.000
2.93000 95.000
2.94500 84.000
2.96000 87.000
2.97500 98.000
2.99000 83.000
3.00500 78.000
3.02000 81.000
3.03500 90.000
3.05000 84.000
3.06500 92.000
3.08000 94.000
3.09500 99.000
3.11000 83.000
3.12500 88.000
3.14000 86.000
3.15500 92.000
3.17000 100.000
3.18500 95.000
3.20000 92.000
3.21500 83.000
3.23000 98.000
3.24500 86.000
3.26000 94.000
3.27500 92.000
3.29000 89.000
3.30500 99.000
3.32000 96.000
3.33500 108.000
3.35000 101.000
3.36500 107.000
3.38000 95.000
3.39500 99.000
3.41000 106.000
3.42500 90.000
3.44000 85.000
3.45500 81.000
3.47000 80.000
3.48500 77.000
3.50000 87.000
3.51500 92.000
3.53000 92.000
3.54500 110.000
3.56000 79.000
3.57500 83.000
3.59000 89.000
3.60500 97.000
3.62000 96.000
3.63500 82.000
3.65000 108.000
3.66500 94.000
3.68000 101.000
3.69500 92.000
3.71000 79.000
3.72500 95.000
3.74000 93.000
3.75500 94.000
3.77000 87.000
3.78500 93.000
3.80000 86.000
3.81500 94.000
3.83000 102.000
3.84500 118.000
3.86000 113.000
3.87500 94.000
3.89000 84.000
3.90500 85.000
3.92000 92.000
3.93500 103.000
3.95000 101.000
3.96500 93.000
3.98000 97.000
3.99500 96.000
4.01000 102.000
4.02500 102.000
4.04000 99.000
4.05500 97.000
4.07000 94.000
4.08500 103.000
4.10000 109.000
4.11500 108.000
4.13000 102.000
4.14500 97.000
4.16000 104.000
4.17500 93.000
4.19000 94.000
4.20500 108.000
4.22000 93.000
4.23500 96.000
4.25000 96.000
4.26500 100.000
4.28000 96.000
4.29500 104.000
4.31000 96.000
4.32500 99.000
4.34000 114.000
4.35500 98.000
4.37000 101.000
4.38500 93.000
4.40000 98.000
4.41500 95.000
4.43000 96.000
4.44500 125.000
4.46000 96.000
4.47500 105.000
4.49000 117.000
4.50500 101.000
4.52000 96.000
4.53500 105.000
4.55000 92.000
4.56500 99.000
4.58000 109.000
4.59500 106.000
4.61000 112.000
4.62500 120.000
4.64000 109.000
4.65500 123.000
4.67000 105.000
4.68500 98.000
4.70000 98.000
4.71500 99.000
4.73000 87.000
4.74500 98.000
4.76000 122.000
4.77500 101.000
4.79000 114.000
4.80500 93.000
4.82000 88.000
4.83500 95.000
4.85000 111.000
4.86500 87.000
4.88000 106.000
4.89500 112.000
4.91000 103.000
4.92500 101.000
4.94000 110.000
4.95500 100.000
4.97000 97.000
4.98500 120.000
5.00000 94.000
5.01500 107.000
5.03000 91.000
5.04500 100.000
5.06000 109.000
5.07500 106.000
5.09000 116.000
5.10500 106.000
5.12000 106.000
5.13500 108.000
5.15000 102.000
5.16500 94.000
5.18000 106.000
5.19500 135.000
5.21000 117.000
5.22500 114.000
5.24000 118.000
5.25500 111.000
5.27000 103.000
5.28500 110.000
5.30000 123.000
5.31500 128.000
5.33000 116.000
5.34500 94.000
5.36000 112.000
5.37500 122.000
5.39000 116.000
5.40500 116.000
5.42000 116.000
5.43500 108.000
5.45000 102.000
5.46500 83.000
5.48000 111.000
5.49500 123.000
5.51000 120.000
5.52500 113.000
5.54000 108.000
5.55500 113.000
5.57000 93.000
5.58500 104.000
5.60000 112.000
5.61500 120.000
5.63000 115.000
5.64500 116.000
5.66000 103.000
5.67500 116.000
5.69000 104.000
5.70500 105.000
5.72000 110.000
5.73500 113.000
5.75000 123.000
5.76500 108.000
5.78000 102.000
5.79500 110.000
5.81000 114.000
5.82500 116.000
5.84000 114.000
5.85500 125.000
5.87000 116.000
5.88500 124.000
5.90000 113.000
5.91500 100.000
5.93000 99.000
5.94500 115.000
5.96000 114.000
5.97500 115.000
5.99000 109.000
6.00500 112.000
6.02000 119.000
6.03500 114.000
6.05000 110.000
6.06500 100.000
6.08000 107.000
6.09500 121.000
6.11000 102.000
6.12500 127.000
6.14000 126.000
6.15500 135.000
6.17000 116.000
6.18500 124.000
6.20000 111.000
6.21500 108.000
6.23000 114.000
6.24500 110.000
6.26000 110.000
6.27500 119.000
6.29000 118.000
6.30500 105.000
6.32000 122.000
6.33500 144.000
6.35000 126.000
6.36500 103.000
6.38000 111.000
6.39500 128.000
6.41000 126.000
6.42500 135.000
6.44000 133.000
6.45500 138.000
6.47000 113.000
6.48500 114.000
6.50000 115.000
6.51500 119.000
6.53000 105.000
6.54500 114.000
6.56000 122.000
6.57500 143.000
6.59000 121.000
6.60500 116.000
6.62000 124.000
6.63500 134.000
6.65000 117.000
6.66500 118.000
6.68000 115.000
6.69500 135.000
6.71000 127.000
6.72500 119.000
6.74000 118.000
6.75500 121.000
6.77000 115.000
6.78500 123.000
6.80000 114.000
6.81500 116.000
6.83000 108.000
6.84500 116.000
6.86000 109.000
6.87500 134.000
6.89000 137.000
6.90500 114.000
6.92000 119.000
6.93500 123.000
6.95000 120.000
6.96500 122.000
6.98000 116.000
6.99500 124.000
7.01000 114.000
7.02500 105.000
7.04000 132.000
7.05500 129.000
7.07000 105.000
7.08500 101.000
7.10000 125.000
7.11500 105.000
7.13000 115.000
7.14500 117.000
7.16000 116.000
7.17500 121.000
7.19000 119.000
7.20500 113.000
7.22000 115.000
7.23500 113.000
7.25000 115.000
7.26500 119.000
7.28000 133.000
7.29500 115.000
7.31000 116.000
7.32500 108.000
7.34000 125.000
7.35500 123.000
7.37000 123.000
7.38500 131.000
7.40000 115.000
7.41500 116.000
7.43000 125.000
7.44500 115.000
7.46000 110.000
7.47500 110.000
7.49000 135.000
7.50500 124.000
7.52000 130.000
7.53500 131.000
7.55000 130.000
7.56500 124.000
7.58000 122.000
7.59500 121.000
7.61000 120.000
7.62500 114.000
7.64000 111.000
7.65500 124.000
7.67000 138.000
7.68500 119.000
7.70000 125.000
7.71500 117.000
7.73000 128.000
7.74500 124.000
7.76000 116.000
7.77500 120.000
7.79000 114.000
7.80500 121.000
7.82000 129.000
7.83500 139.000
7.85000 130.000
7.86500 129.000
7.88000 125.000
7.89500 142.000
7.91000 121.000
7.92500 120.000
7.94000 116.000
7.95500 112.000
7.97000 130.000
7.98500 116.000
8.00000 135.000
8.01500 137.000
8.03000 135.000
8.04500 124.000
8.06000 144.000
8.07500 109.000
8.09000 105.000
8.10500 116.000
8.12000 136.000
8.13500 121.000
8.15000 112.000
8.16500 118.000
8.18000 109.000
8.19500 124.000
8.21000 125.000
8.22500 128.000
8.24000 114.000
8.25500 113.000
8.27000 124.000
8.28500 127.000
8.30000 120.000
8.31500 123.000
8.33000 128.000
8.34500 135.000
8.36000 125.000
8.37500 128.000
8.39000 120.000
8.40500 137.000
8.42000 135.000
8.43500 129.000
8.45000 138.000
8.46500 128.000
8.48000 125.000
8.49500 119.000
8.51000 136.000
8.52500 122.000
8.54000 120.000
8.55500 131.000
8.57000 122.000
8.58500 120.000
8.60000 124.000
8.61500 124.000
8.63000 124.000
8.64500 134.000
8.66000 125.000
8.67500 135.000
8.69000 130.000
8.70500 130.000
8.72000 149.000
8.73500 136.000
8.75000 119.000
8.76500 128.000
8.78000 128.000
8.79500 142.000
8.81000 122.000
8.82500 105.000
8.84000 120.000
8.85500 123.000
8.87000 127.000
8.88500 133.000
8.90000 110.000
8.91500 121.000
8.93000 129.000
8.94500 122.000
8.96000 126.000
8.97500 133.000
8.99000 145.000
9.00500 124.000
9.02000 117.000
9.03500 120.000
9.05000 116.000
9.06500 129.000
9.08000 142.000
9.09500 128.000
9.11000 130.000
9.12500 126.000
9.14000 124.000
9.15500 132.000
9.17000 135.000
9.18500 134.000
9.20000 144.000
9.21500 135.000
9.23000 132.000
9.24500 135.000
9.26000 132.000
9.27500 139.000
9.29000 136.000
9.30500 115.000
9.32000 131.000
9.33500 112.000
9.35000 124.000
9.36500 126.000
9.38000 121.000
9.39500 117.000
9.41000 119.000
9.42500 114.000
9.44000 117.000
9.45500 135.000
9.47000 133.000
9.48500 113.000
9.50000 129.000
9.51500 121.000
9.53000 135.000
9.54500 122.000
9.56000 123.000
9.57500 123.000
9.59000 130.000
9.60500 119.000
9.62000 113.000
9.63500 124.000
9.65000 133.000
9.66500 130.000
9.68000 132.000
9.69500 130.000
9.71000 131.000
9.72500 153.000
9.74000 130.000
9.75500 106.000
9.77000 119.000
9.78500 141.000
9.80000 137.000
9.81500 119.000
9.83000 128.000
9.84500 120.000
9.86000 126.000
9.87500 148.000
9.89000 134.000
9.90500 141.000
9.92000 143.000
9.93500 151.000
9.95000 140.000
9.96500 172.000
9.98000 197.000
9.99500 207.000
10.01000 232.000
10.02500 251.000
10.04000 211.000
10.05500 168.000
10.07000 159.000
10.08500 146.000
10.10000 140.000
10.11500 136.000
10.13000 137.000
10.14500 148.000
10.16000 129.000
10.17500 149.000
10.19000 158.000
10.20500 180.000
10.22000 171.000
10.23500 172.000
10.25000 221.000
10.26500 231.000
10.28000 241.000
10.29500 306.000
10.31000 341.000
10.32500 299.000
10.34000 235.000
10.35500 165.000
10.37000 137.000
10.38500 128.000
10.40000 148.000
10.41500 131.000
10.43000 136.000
10.44500 141.000
10.46000 118.000
10.47500 129.000
10.49000 127.000
10.50500 124.000
10.52000 143.000
10.53500 147.000
10.55000 123.000
10.56500 139.000
10.58000 129.000
10.59500 121.000
10.61000 160.000
10.62500 137.000
10.64000 126.000
10.65500 127.000
10.67000 135.000
10.68500 107.000
10.70000 126.000
10.71500 132.000
10.73000 130.000
10.74500 126.000
10.76000 128.000
10.77500 115.000
10.79000 121.000
10.80500 129.000
10.82000 130.000
10.83500 123.000
10.85000 124.000
10.86500 110.000
10.88000 127.000
10.89500 125.000
10.91000 114.000
10.92500 120.000
10.94000 144.000
10.95500 134.000
10.97000 106.000
10.98500 113.000
11.00000 122.000
11.01500 132.000
11.03000 119.000
11.04500 108.000
11.06000 121.000
11.07500 131.000
11.09000 127.000
11.10500 113.000
11.12000 129.000
11.13500 147.000
11.15000 138.000
11.16500 129.000
11.18000 124.000
11.19500 124.000
11.21000 125.000
11.22500 125.000
11.24000 131.000
11.25500 131.000
11.27000 137.000
11.28500 129.000
11.30000 140.000
11.31500 133.000
11.33000 138.000
11.34500 124.000
11.36000 125.000
11.37500 124.000
11.39000 149.000
11.40500 125.000
11.42000 116.000
11.43500 131.000
11.45000 105.000
11.46500 116.000
11.48000 128.000
11.49500 131.000
11.51000 140.000
11.52500 129.000
11.54000 127.000
11.55500 124.000
11.57000 127.000
11.58500 132.000
11.60000 119.000
11.61500 116.000
11.63000 125.000
11.64500 132.000
11.66000 118.000
11.67500 132.000
11.69000 129.000
11.70500 133.000
11.72000 119.000
11.73500 121.000
11.75000 135.000
11.76500 122.000
11.78000 145.000
11.79500 139.000
11.81000 128.000
11.82500 139.000
11.84000 132.000
11.85500 151.000
11.87000 135.000
11.88500 122.000
11.90000 136.000
11.91500 125.000
11.93000 140.000
11.94500 157.000
11.96000 151.000
11.97500 130.000
11.99000 162.000
12.00500 166.000
12.02000 206.000
12.03500 238.000
12.05000 218.000
12.06500 198.000
12.08000 174.000
12.09500 155.000
12.11000 143.000
12.12500 146.000
12.14000 139.000
12.15500 134.000
12.17000 129.000
12.18500 141.000
12.20000 128.000
12.21500 139.000
12.23000 147.000
12.24500 126.000
12.26000 135.000
12.27500 121.000
12.29000 148.000
12.30500 128.000
12.32000 130.000
12.33500 131.000
12.35000 131.000
12.36500 134.000
12.38000 125.000
12.39500 134.000
12.41000 141.000
12.42500 124.000
12.44000 113.000
12.45500 128.000
12.47000 124.000
12.48500 138.000
12.50000 132.000
12.51500 116.000
12.53000 108.000
12.54500 136.000
12.56000 124.000
12.57500 111.000
12.59000 126.000
12.60500 144.000
12.62000 126.000
12.63500 125.000
12.65000 137.000
12.66500 130.000
12.68000 134.000
12.69500 131.000
12.71000 124.000
12.72500 129.000
12.74000 130.000
12.75500 135.000
12.77000 123.000
12.78500 139.000
12.80000 136.000
12.81500 145.000
12.83000 143.000
12.84500 144.000
12.86000 120.000
12.87500 127.000
12.89000 118.000
12.90500 125.000
12.92000 116.000
12.93500 126.000
12.95000 132.000
12.96500 135.000
12.98000 131.000
12.99500 145.000
13.01000 135.000
13.02500 138.000
13.04000 137.000
13.05500 137.000
13.07000 138.000
13.08500 141.000
13.10000 135.000
13.11500 125.000
13.13000 153.000
13.14500 154.000
13.16000 138.000
13.17500 146.000
13.19000 142.000
13.20500 144.000
13.22000 153.000
13.23500 158.000
13.25000 176.000
13.26500 180.000
13.28000 203.000
13.29500 217.000
13.31000 238.000
13.32500 276.000
13.34000 291.000
13.35500 340.000
13.37000 416.000
13.38500 485.000
13.40000 604.000
13.41500 774.000
13.43000 1062.000
13.44500 1119.000
13.46000 1004.000
13.47500 797.000
13.49000 475.000
13.50500 287.000
13.52000 214.000
13.53500 193.000
13.55000 173.000
13.56500 169.000
13.58000 158.000
13.59500 140.000
13.61000 151.000
13.62500 138.000
13.64000 122.000
13.65500 125.000
13.67000 135.000
13.68500 155.000
13.70000 129.000
13.71500 122.000
13.73000 125.000
13.74500 119.000
13.76000 123.000
13.77500 142.000
13.79000 128.000
13.80500 143.000
13.82000 132.000
13.83500 125.000
13.85000 131.000
13.86500 138.000
13.88000 140.000
13.89500 125.000
13.91000 129.000
13.92500 137.000
13.94000 146.000
13.95500 146.000
13.97000 137.000
13.98500 139.000
14.00000 138.000
14.01500 120.000
14.03000 134.000
14.04500 121.000
14.06000 132.000
14.07500 146.000
14.09000 134.000
14.10500 135.000
14.12000 142.000
14.13500 129.000
14.15000 119.000
14.16500 103.000
14.18000 131.000
14.19500 131.000
14.21000 134.000
14.22500 124.000
14.24000 137.000
14.25500 136.000
14.27000 136.000
14.28500 128.000
14.30000 138.000
14.31500 128.000
14.33000 126.000
14.34500 136.000
14.36000 126.000
14.37500 125.000
14.39000 128.000
14.40500 138.000
14.42000 120.000
14.43500 125.000
14.45000 120.000
14.46500 120.000
14.48000 134.000
14.49500 130.000
14.51000 120.000
14.52500 129.000
14.54000 121.000
14.55500 116.000
14.57000 132.000
14.58500 131.000
14.60000 135.000
14.61500 133.000
14.63000 118.000
14.64500 121.000
14.66000 129.000
14.67500 127.000
14.69000 128.000
14.70500 136.000
14.72000 131.000
14.73500 138.000
14.75000 143.000
14.76500 122.000
14.78000 123.000
14.79500 149.000
14.81000 134.000
14.82500 133.000
14.84000 124.000
14.85500 116.000
14.87000 121.000
14.88500 138.000
14.90000 134.000
14.91500 130.000
14.93000 124.000
14.94500 130.000
14.96000 124.000
14.97500 121.000
14.99000 126.000
15.00500 131.000
15.02000 136.000
15.03500 148.000
15.05000 137.000
15.06500 139.000
15.08000 138.000
15.09500 127.000
15.11000 132.000
15.12500 125.000
15.14000 135.000
15.15500 141.000
15.17000 123.000
15.18500 128.000
15.20000 135.000
15.21500 127.000
15.23000 119.000
15.24500 108.000
15.26000 124.000
15.27500 130.000
15.29000 117.000
15.30500 151.000
15.32000 129.000
15.33500 122.000
15.35000 140.000
15.36500 139.000
15.38000 145.000
15.39500 138.000
15.41000 126.000
15.42500 135.000
15.44000 145.000
15.45500 124.000
15.47000 112.000
15.48500 116.000
15.50000 117.000
15.51500 126.000
15.53000 136.000
15.54500 132.000
15.56000 141.000
15.57500 124.000
15.59000 129.000
15.60500 131.000
15.62000 136.000
15.63500 119.000
15.65000 126.000
15.66500 122.000
15.68000 140.000
15.69500 131.000
15.71000 149.000
15.72500 137.000
15.74000 139.000
15.75500 133.000
15.77000 137.000
15.78500 142.000
15.80000 149.000
15.81500 148.000
15.83000 148.000
15.84500 161.000
15.86000 174.000
15.87500 185.000
15.89000 213.000
15.90500 223.000
15.92000 247.000
15.93500 234.000
15.95000 206.000
15.96500 178.000
15.98000 140.000
15.99500 159.000
16.01000 145.000
16.02500 137.000
16.04000 155.000
16.05500 164.000
16.07000 138.000
16.08500 150.000
16.10000 140.000
16.11500 132.000
16.13000 130.000
16.14500 146.000
16.16000 173.000
16.17500 165.000
16.19000 164.000
16.20500 147.000
16.22000 144.000
16.23500 123.000
16.25000 121.000
16.26500 121.000
16.28000 120.000
16.29500 110.000
16.31000 126.000
16.32500 140.000
16.34000 148.000
16.35500 140.000
16.37000 130.000
16.38500 118.000
16.40000 121.000
16.41500 125.000
16.43000 101.000
16.44500 122.000
16.46000 152.000
16.47500 138.000
16.49000 151.000
16.50500 145.000
16.52000 135.000
16.53500 149.000
16.55000 143.000
16.56500 133.000
16.58000 121.000
16.59500 126.000
16.61000 122.000
16.62500 135.000
16.64000 112.000
16.65500 146.000
16.67000 130.000
16.68500 132.000
16.70000 135.000
16.71500 121.000
16.73000 138.000
16.74500 124.000
16.76000 129.000
16.77500 125.000
16.79000 137.000
16.80500 127.000
16.82000 132.000
16.83500 149.000
16.85000 152.000
16.86500 146.000
16.88000 142.000
16.89500 129.000
16.91000 149.000
16.92500 127.000
16.94000 137.000
16.95500 142.000
16.97000 144.000
16.98500 141.000
17.00000 130.000
17.01500 122.000
17.03000 140.000
17.04500 133.000
17.06000 127.000
17.07500 143.000
17.09000 147.000
17.10500 126.000
17.12000 132.000
17.13500 137.000
17.15000 133.000
17.16500 136.000
17.18000 139.000
17.19500 140.000
17.21000 139.000
17.22500 157.000
17.24000 145.000
17.25500 133.000
17.27000 141.000
17.28500 130.000
17.30000 128.000
17.31500 149.000
17.33000 139.000
17.34500 132.000
17.36000 143.000
17.37500 132.000
17.39000 144.000
17.40500 119.000
17.42000 124.000
17.43500 138.000
17.45000 132.000
17.46500 123.000
17.48000 119.000
17.49500 121.000
17.51000 133.000
17.52500 140.000
17.54000 142.000
17.55500 143.000
17.57000 141.000
17.58500 155.000
17.60000 147.000
17.61500 136.000
17.63000 166.000
17.64500 180.000
17.66000 161.000
17.67500 186.000
17.69000 209.000
17.70500 240.000
17.72000 259.000
17.73500 375.000
17.75000 412.000
17.76500 328.000
17.78000 224.000
17.79500 166.000
17.81000 148.000
17.82500 160.000
17.84000 156.000
17.85500 163.000
17.87000 150.000
17.88500 148.000
17.90000 173.000
17.91500 188.000
17.93000 199.000
17.94500 212.000
17.96000 240.000
17.97500 331.000
17.99000 371.000
18.00500 354.000
18.02000 259.000
18.03500 192.000
18.05000 149.000
18.06500 137.000
18.08000 138.000
18.09500 150.000
18.11000 155.000
18.12500 157.000
18.14000 179.000
18.15500 186.000
18.17000 193.000
18.18500 219.000
18.20000 220.000
18.21500 273.000
18.23000 290.000
18.24500 375.000
18.26000 485.000
18.27500 580.000
18.29000 577.000
18.30500 489.000
18.32000 373.000
18.33500 248.000
18.35000 189.000
18.36500 171.000
18.38000 160.000
18.39500 155.000
18.41000 155.000
18.42500 140.000
18.44000 143.000
18.45500 144.000
18.47000 135.000
18.48500 127.000
18.50000 128.000
18.51500 137.000
18.53000 127.000
18.54500 140.000
18.56000 139.000
18.57500 143.000
18.59000 130.000
18.60500 124.000
18.62000 125.000
18.63500 142.000
18.65000 124.000
18.66500 134.000
18.68000 143.000
18.69500 137.000
18.71000 142.000
18.72500 135.000
18.74000 120.000
18.75500 142.000
18.77000 140.000
18.78500 146.000
18.80000 136.000
18.81500 145.000
18.83000 151.000
18.84500 139.000
18.86000 135.000
18.87500 140.000
18.89000 146.000
18.90500 145.000
18.92000 142.000
18.93500 117.000
18.95000 113.000
18.96500 125.000
18.98000 131.000
18.99500 150.000
19.01000 155.000
19.02500 129.000
19.04000 131.000
19.05500 137.000
19.07000 145.000
19.08500 136.000
19.10000 146.000
19.11500 155.000
19.13000 141.000
19.14500 142.000
19.16000 130.000
19.17500 131.000
19.19000 131.000
19.20500 146.000
19.22000 142.000
19.23500 143.000
19.25000 131.000
19.26500 136.000
19.28000 132.000
19.29500 135.000
19.31000 132.000
19.32500 137.000
19.34000 145.000
19.35500 131.000
19.37000 132.000
19.38500 151.000
19.40000 140.000
19.41500 145.000
19.43000 128.000
19.44500 125.000
19.46000 129.000
19.47500 134.000
19.49000 149.000
19.50500 127.000
19.52000 130.000
19.53500 146.000
19.55000 137.000
19.56500 146.000
19.58000 149.000
19.59500 125.000
19.61000 126.000
19.62500 138.000
19.64000 138.000
19.65500 127.000
19.67000 144.000
19.68500 152.000
19.70000 138.000
19.71500 154.000
19.73000 136.000
19.74500 146.000
19.76000 135.000
19.77500 118.000
19.79000 132.000
19.80500 157.000
19.82000 136.000
19.83500 146.000
19.85000 154.000
19.86500 144.000
19.88000 147.000
19.89500 158.000
19.91000 137.000
19.92500 149.000
19.94000 151.000
19.95500 139.000
19.97000 139.000
19.98500 156.000
20.00000 143.000
20.01500 161.000
20.03000 173.000
20.04500 163.000
20.06000 194.000
20.07500 205.000
20.09000 227.000
20.10500 230.000
20.12000 251.000
20.13500 256.000
20.15000 203.000
20.16500 170.000
20.18000 164.000
20.19500 161.000
20.21000 171.000
20.22500 157.000
20.24000 140.000
20.25500 137.000
20.27000 135.000
20.28500 129.000
20.30000 129.000
20.31500 139.000
20.33000 150.000
20.34500 168.000
20.36000 138.000
20.37500 154.000
20.39000 139.000
20.40500 122.000
20.42000 128.000
20.43500 132.000
20.45000 147.000
20.46500 135.000
20.48000 132.000
20.49500 150.000
20.51000 145.000
20.52500 158.000
20.54000 153.000
20.55500 154.000
20.57000 149.000
20.58500 154.000
20.60000 158.000
20.61500 175.000
20.63000 183.000
20.64500 169.000
20.66000 182.000
20.67500 208.000
20.69000 274.000
20.70500 332.000
20.72000 327.000
20.73500 291.000
20.75000 241.000
20.76500 178.000
20.78000 165.000
20.79500 141.000
20.81000 148.000
20.82500 136.000
20.84000 150.000
20.85500 157.000
20.87000 147.000
20.88500 136.000
20.90000 143.000
20.91500 142.000
20.93000 148.000
20.94500 158.000
20.96000 150.000
20.97500 146.000
20.99000 160.000
21.00500 143.000
21.02000 145.000
21.03500 136.000
21.05000 129.000
21.06500 143.000
21.08000 148.000
21.09500 156.000
21.11000 169.000
21.12500 149.000
21.14000 153.000
21.15500 155.000
21.17000 154.000
21.18500 152.000
21.20000 157.000
21.21500 153.000
21.23000 153.000
21.24500 144.000
21.26000 149.000
21.27500 147.000
21.29000 148.000
21.30500 165.000
21.32000 156.000
21.33500 148.000
21.35000 157.000
21.36500 129.000
21.38000 138.000
21.39500 145.000
21.41000 155.000
21.42500 159.000
21.44000 131.000
21.45500 150.000
21.47000 164.000
21.48500 138.000
21.50000 132.000
21.51500 158.000
21.53000 148.000
21.54500 155.000
21.56000 167.000
21.57500 176.000
21.59000 144.000
21.60500 152.000
21.62000 146.000
21.63500 175.000
21.65000 183.000
21.66500 208.000
21.68000 215.000
21.69500 217.000
21.71000 249.000
21.72500 256.000
21.74000 299.000
21.75500 369.000
21.77000 346.000
21.78500 402.000
21.80000 359.000
21.81500 369.000
21.83000 351.000
21.84500 274.000
21.86000 267.000
21.87500 232.000
21.89000 222.000
21.90500 242.000
21.92000 247.000
21.93500 300.000
21.95000 345.000
21.96500 387.000
21.98000 499.000
21.99500 684.000
22.01000 791.000
22.02500 932.000
22.04000 836.000
22.05500 687.000
22.07000 459.000
22.08500 361.000
22.10000 248.000
22.11500 207.000
22.13000 188.000
22.14500 186.000
22.16000 181.000
22.17500 184.000
22.19000 166.000
22.20500 168.000
22.22000 157.000
22.23500 155.000
22.25000 153.000
22.26500 149.000
22.28000 154.000
22.29500 161.000
22.31000 160.000
22.32500 170.000
22.34000 163.000
22.35500 165.000
22.37000 167.000
22.38500 194.000
22.40000 189.000
22.41500 242.000
22.43000 250.000
22.44500 288.000
22.46000 342.000
22.47500 322.000
22.49000 262.000
22.50500 212.000
22.52000 169.000
22.53500 166.000
22.55000 152.000
22.56500 155.000
22.58000 169.000
22.59500 144.000
22.61000 147.000
22.62500 169.000
22.64000 159.000
22.65500 145.000
22.67000 143.000
22.68500 145.000
22.70000 142.000
22.71500 137.000
22.73000 164.000
22.74500 168.000
22.76000 153.000
22.77500 157.000
22.79000 155.000
22.80500 167.000
22.82000 159.000
22.83500 175.000
22.85000 168.000
22.86500 168.000
22.88000 151.000
22.89500 165.000
22.91000 148.000
22.92500 150.000
22.94000 149.000
22.95500 160.000
22.97000 170.000
22.98500 157.000
23.00000 172.000
23.01500 148.000
23.03000 152.000
23.04500 164.000
23.06000 159.000
23.07500 146.000
23.09000 146.000
23.10500 157.000
23.12000 163.000
23.13500 173.000
23.15000 164.000
23.16500 193.000
23.18000 217.000
23.19500 232.000
23.21000 242.000
23.22500 300.000
23.24000 353.000
23.25500 395.000
23.27000 353.000
23.28500 294.000
23.30000 216.000
23.31500 184.000
23.33000 164.000
23.34500 152.000
23.36000 140.000
23.37500 150.000
23.39000 162.000
23.40500 150.000
23.42000 159.000
23.43500 161.000
23.45000 165.000
23.46500 171.000
23.48000 171.000
23.49500 187.000
23.51000 186.000
23.52500 205.000
23.54000 225.000
23.55500 260.000
23.57000 321.000
23.58500 399.000
23.60000 497.000
23.61500 594.000
23.63000 620.000
23.64500 519.000
23.66000 390.000
23.67500 290.000
23.69000 229.000
23.70500 194.000
23.72000 187.000
23.73500 169.000
23.75000 185.000
23.76500 171.000
23.78000 184.000
23.79500 185.000
23.81000 179.000
23.82500 192.000
23.84000 180.000
23.85500 180.000
23.87000 172.000
23.88500 157.000
23.90000 184.000
23.91500 171.000
23.93000 169.000
23.94500 173.000
23.96000 162.000
23.97500 175.000
23.99000 178.000
24.00500 182.000
24.02000 189.000
24.03500 221.000
24.05000 201.000
24.06500 237.000
24.08000 241.000
24.09500 235.000
24.11000 294.000
24.12500 302.000
24.14000 350.000
24.15500 462.000
24.17000 536.000
24.18500 659.000
24.20000 875.000
24.21500 1054.000
24.23000 1127.000
24.24500 1035.000
24.26000 763.000
24.27500 537.000
24.29000 396.000
24.30500 284.000
24.32000 265.000
24.33500 229.000
24.35000 185.000
24.36500 203.000
24.38000 178.000
24.39500 201.000
24.41000 200.000
24.42500 197.000
24.44000 185.000
24.45500 186.000
24.47000 199.000
24.48500 169.000
24.50000 166.000
24.51500 192.000
24.53000 172.000
24.54500 151.000
24.56000 166.000
24.57500 171.000
24.59000 183.000
24.60500 164.000
24.62000 169.000
24.63500 182.000
24.65000 161.000
24.66500 185.000
24.68000 179.000
24.69500 156.000
24.71000 164.000
24.72500 173.000
24.74000 177.000
24.75500 173.000
24.77000 162.000
24.78500 182.000
24.80000 174.000
24.81500 180.000
24.83000 190.000
24.84500 185.000
24.86000 207.000
24.87500 219.000
24.89000 281.000
24.90500 307.000
24.92000 411.000
24.93500 482.000
24.95000 620.000
24.96500 841.000
24.98000 1157.000
24.99500 1428.000
25.01000 1526.000
25.02500 1419.000
25.04000 985.000
25.05500 618.000
25.07000 398.000
25.08500 325.000
25.10000 266.000
25.11500 235.000
25.13000 211.000
25.14500 191.000
25.16000 197.000
25.17500 193.000
25.19000 180.000
25.20500 162.000
25.22000 143.000
25.23500 171.000
25.25000 185.000
25.26500 180.000
25.28000 190.000
25.29500 175.000
25.31000 171.000
25.32500 168.000
25.34000 166.000
25.35500 165.000
25.37000 161.000
25.38500 180.000
25.40000 179.000
25.41500 193.000
25.43000 198.000
25.44500 204.000
25.46000 237.000
25.47500 277.000
25.49000 307.000
25.50500 385.000
25.52000 443.000
25.53500 552.000
25.55000 572.000
25.56500 562.000
25.58000 463.000
25.59500 372.000
25.61000 303.000
25.62500 293.000
25.64000 281.000
25.65500 302.000
25.67000 352.000
25.68500 416.000
25.70000 487.000
25.71500 490.000
25.73000 420.000
25.74500 368.000
25.76000 353.000
25.77500 332.000
25.79000 329.000
25.80500 315.000
25.82000 286.000
25.83500 256.000
25.85000 209.000
25.86500 185.000
25.88000 187.000
25.89500 185.000
25.91000 180.000
25.92500 164.000
25.94000 176.000
25.95500 182.000
25.97000 163.000
25.98500 168.000
26.00000 171.000
26.01500 159.000
26.03000 158.000
26.04500 165.000
26.06000 160.000
26.07500 157.000
26.09000 176.000
26.10500 174.000
26.12000 157.000
26.13500 157.000
26.15000 157.000
26.16500 168.000
26.18000 177.000
26.19500 156.000
26.21000 164.000
26.22500 175.000
26.24000 157.000
26.25500 185.000
26.27000 179.000
26.28500 191.000
26.30000 206.000
26.31500 221.000
26.33000 228.000
26.34500 252.000
26.36000 291.000
26.37500 326.000
26.39000 359.000
26.40500 404.000
26.42000 372.000
26.43500 382.000
26.45000 380.000
26.46500 385.000
26.48000 509.000
26.49500 615.000
26.51000 803.000
26.52500 996.000
26.54000 1316.000
26.55500 1696.000
26.57000 1840.000
26.58500 1714.000
26.60000 1272.000
26.61500 835.000
26.63000 563.000
26.64500 391.000
26.66000 344.000
26.67500 301.000
26.69000 265.000
26.70500 265.000
26.72000 266.000
26.73500 267.000
26.75000 266.000
26.76500 289.000
26.78000 294.000
26.79500 342.000
26.81000 442.000
26.82500 539.000
26.84000 680.000
26.85500 889.000
26.87000 1102.000
26.88500 1503.000
26.90000 1893.000
26.91500 2245.000
26.93000 2282.000
26.94500 1891.000
26.96000 1446.000
26.97500 1205.000
26.99000 1233.000
27.00500 1402.000
27.02000 1772.000
27.03500 2421.000
27.05000 3219.000
27.06500 4301.000
27.08000 5382.000
27.09500 5606.000
27.11000 5172.000
27.12500 4202.000
27.14000 2999.000
27.15500 2018.000
27.17000 1348.000
27.18500 900.000
27.20000 653.000
27.21500 544.000
27.23000 446.000
27.24500 390.000
27.26000 347.000
27.27500 307.000
27.29000 284.000
27.30500 265.000
27.32000 252.000
27.33500 238.000
27.35000 230.000
27.36500 227.000
27.38000 235.000
27.39500 242.000
27.41000 194.000
27.42500 223.000
27.44000 220.000
27.45500 194.000
27.47000 175.000
27.48500 174.000
27.50000 180.000
27.51500 176.000
27.53000 169.000
27.54500 190.000
27.56000 179.000
27.57500 189.000
27.59000 191.000
27.60500 155.000
27.62000 170.000
27.63500 176.000
27.65000 170.000
27.66500 176.000
27.68000 171.000
27.69500 171.000
27.71000 153.000
27.72500 164.000
27.74000 186.000
27.75500 168.000
27.77000 188.000
27.78500 191.000
27.80000 173.000
27.81500 181.000
27.83000 182.000
27.84500 171.000
27.86000 149.000
27.87500 151.000
27.89000 176.000
27.90500 192.000
27.92000 190.000
27.93500 211.000
27.95000 225.000
27.96500 264.000
27.98000 343.000
27.99500 395.000
28.01000 436.000
28.02500 397.000
28.04000 314.000
28.05500 241.000
28.07000 202.000
28.08500 203.000
28.10000 185.000
28.11500 177.000
28.13000 181.000
28.14500 173.000
28.16000 165.000
28.17500 176.000
28.19000 168.000
28.20500 170.000
28.22000 173.000
28.23500 176.000
28.25000 155.000
28.26500 163.000
28.28000 190.000
28.29500 194.000
28.31000 159.000
28.32500 181.000
28.34000 191.000
28.35500 197.000
28.37000 186.000
28.38500 190.000
28.40000 206.000
28.41500 242.000
28.43000 229.000
28.44500 247.000
28.46000 269.000
28.47500 273.000
28.49000 300.000
28.50500 346.000
28.52000 425.000
28.53500 544.000
28.55000 740.000
28.56500 806.000
28.58000 786.000
28.59500 702.000
28.61000 540.000
28.62500 400.000
28.64000 335.000
28.65500 283.000
28.67000 262.000
28.68500 251.000
28.70000 247.000
28.71500 242.000
28.73000 224.000
28.74500 223.000
28.76000 243.000
28.77500 249.000
28.79000 238.000
28.80500 237.000
28.82000 249.000
28.83500 244.000
28.85000 256.000
28.86500 261.000
28.88000 283.000
28.89500 311.000
28.91000 280.000
28.92500 231.000
28.94000 229.000
28.95500 223.000
28.97000 200.000
28.98500 206.000
29.00000 188.000
29.01500 191.000
29.03000 180.000
29.04500 172.000
29.06000 191.000
29.07500 205.000
29.09000 204.000
29.10500 197.000
29.12000 216.000
29.13500 219.000
29.15000 261.000
29.16500 321.000
29.18000 392.000
29.19500 494.000
29.21000 656.000
29.22500 832.000
29.24000 955.000
29.25500 974.000
29.27000 800.000
29.28500 566.000
29.30000 389.000
29.31500 279.000
29.33000 233.000
29.34500 228.000
29.36000 219.000
29.37500 217.000
29.39000 208.000
29.40500 228.000
29.42000 236.000
29.43500 277.000
29.45000 275.000
29.46500 314.000
29.48000 312.000
29.49500 308.000
29.51000 269.000
29.52500 231.000
29.54000 204.000
29.55500 190.000
29.57000 182.000
29.58500 180.000
29.60000 176.000
29.61500 184.000
29.63000 199.000
29.64500 181.000
29.66000 155.000
29.67500 166.000
29.69000 158.000
29.70500 178.000
29.72000 187.000
29.73500 193.000
29.75000 206.000
29.76500 207.000
29.78000 253.000
29.79500 268.000
29.81000 295.000
29.82500 301.000
29.84000 258.000
29.85500 214.000
29.87000 212.000
29.88500 240.000
29.90000 230.000
29.91500 251.000
29.93000 276.000
29.94500 329.000
29.96000 342.000
29.97500 347.000
29.99000 370.000
30.00500 373.000
30.02000 401.000
30.03500 475.000
30.05000 499.000
30.06500 527.000
30.08000 490.000
30.09500 476.000
30.11000 486.000
30.12500 479.000
30.14000 515.000
30.15500 525.000
30.17000 478.000
30.18500 440.000
30.20000 363.000
30.21500 298.000
30.23000 303.000
30.24500 269.000
30.26000 233.000
30.27500 218.000
30.29000 253.000
30.30500 255.000
30.32000 282.000
30.33500 331.000
30.35000 410.000
30.36500 431.000
30.38000 474.000
30.39500 457.000
30.41000 399.000
30.42500 315.000
30.44000 236.000
30.45500 200.000
30.47000 220.000
30.48500 198.000
30.50000 178.000
30.51500 182.000
30.53000 185.000
30.54500 216.000
30.56000 223.000
30.57500 266.000
30.59000 323.000
30.60500 362.000
30.62000 401.000
30.63500 468.000
30.65000 605.000
30.66500 732.000
30.68000 768.000
30.69500 750.000
30.71000 693.000
30.72500 617.000
30.74000 609.000
30.75500 621.000
30.77000 600.000
30.78500 629.000
30.80000 671.000
30.81500 684.000
30.83000 825.000
30.84500 927.000
30.86000 967.000
30.87500 927.000
30.89000 840.000
30.90500 735.000
30.92000 620.000
30.93500 561.000
30.95000 419.000
30.96500 347.000
30.98000 313.000
30.99500 272.000
31.01000 277.000
31.02500 270.000
31.04000 305.000
31.05500 391.000
31.07000 400.000
31.08500 522.000
31.10000 626.000
31.11500 711.000
31.13000 776.000
31.14500 706.000
31.16000 686.000
31.17500 583.000
31.19000 517.000
31.20500 522.000
31.22000 615.000
31.23500 698.000
31.25000 864.000
31.26500 1013.000
31.28000 1199.000
31.29500 1384.000
31.31000 1418.000
31.32500 1338.000
31.34000 1325.000
31.35500 1099.000
31.37000 861.000
31.38500 662.000
31.40000 529.000
31.41500 395.000
31.43000 347.000
31.44500 362.000
31.46000 329.000
31.47500 300.000
31.49000 277.000
31.50500 302.000
31.52000 276.000
31.53500 250.000
31.55000 246.000
31.56500 244.000
31.58000 214.000
31.59500 209.000
31.61000 212.000
31.62500 217.000
31.64000 200.000
31.65500 197.000
31.67000 194.000
31.68500 192.000
31.70000 204.000
31.71500 209.000
31.73000 215.000
31.74500 250.000
31.76000 274.000
31.77500 287.000
31.79000 255.000
31.80500 236.000
31.82000 216.000
31.83500 200.000
31.85000 178.000
31.86500 190.000
31.88000 194.000
31.89500 192.000
31.91000 170.000
31.92500 179.000
31.94000 236.000
31.95500 199.000
31.97000 197.000
31.98500 220.000
32.00000 227.000
32.01500 278.000
32.03000 288.000
32.04500 338.000
32.06000 417.000
32.07500 535.000
32.09000 707.000
32.10500 956.000
32.12000 1274.000
32.13500 1690.000
32.15000 2119.000
32.16500 2408.000
32.18000 2277.000
32.19500 1754.000
32.21000 1247.000
32.22500 882.000
32.24000 632.000
32.25500 461.000
32.27000 367.000
32.28500 351.000
32.30000 346.000
32.31500 363.000
32.33000 358.000
32.34500 410.000
32.36000 473.000
32.37500 568.000
32.39000 748.000
32.40500 982.000
32.42000 1293.000
32.43500 1571.000
32.45000 1707.000
32.46500 1764.000
32.48000 1735.000
32.49500 1726.000
32.51000 1682.000
32.52500 1495.000
32.54000 1140.000
32.55500 733.000
32.57000 482.000
32.58500 359.000
32.60000 290.000
32.61500 286.000
32.63000 249.000
32.64500 235.000
32.66000 239.000
32.67500 233.000
32.69000 262.000
32.70500 246.000
32.72000 244.000
32.73500 276.000
32.75000 281.000
32.76500 318.000
32.78000 328.000
32.79500 418.000
32.81000 526.000
32.82500 689.000
32.84000 780.000
32.85500 660.000
32.87000 518.000
32.88500 401.000
32.90000 299.000
32.91500 260.000
32.93000 208.000
32.94500 197.000
32.96000 182.000
32.97500 159.000
32.99000 188.000
33.00500 191.000
33.02000 170.000
33.03500 184.000
33.05000 193.000
33.06500 174.000
33.08000 170.000
33.09500 160.000
33.11000 172.000
33.12500 161.000
33.14000 173.000
33.15500 158.000
33.17000 146.000
33.18500 164.000
33.20000 150.000
33.21500 164.000
33.23000 126.000
33.24500 141.000
33.26000 146.000
33.27500 158.000
33.29000 134.000
33.30500 147.000
33.32000 150.000
33.33500 149.000
33.35000 144.000
33.36500 146.000
33.38000 183.000
33.39500 190.000
33.41000 212.000
33.42500 287.000
33.44000 308.000
33.45500 303.000
33.47000 278.000
33.48500 235.000
33.50000 198.000
33.51500 180.000
33.53000 167.000
33.54500 166.000
33.56000 152.000
33.57500 145.000
33.59000 181.000
33.60500 189.000
33.62000 199.000
33.63500 209.000
33.65000 203.000
33.66500 239.000
33.68000 281.000
33.69500 313.000
33.71000 367.000
33.72500 446.000
33.74000 562.000
33.75500 680.000
33.77000 815.000
33.78500 878.000
33.80000 786.000
33.81500 677.000
33.83000 603.000
33.84500 492.000
33.86000 454.000
33.87500 416.000
33.89000 401.000
33.90500 420.000
33.92000 416.000
33.93500 373.000
33.95000 320.000
33.96500 269.000
33.98000 248.000
33.99500 226.000
34.01000 209.000
34.02500 207.000
34.04000 194.000
34.05500 206.000
34.07000 230.000
34.08500 241.000
34.10000 241.000
34.11500 241.000
34.13000 220.000
34.14500 218.000
34.16000 204.000
34.17500 217.000
34.19000 278.000
34.20500 298.000
34.22000 345.000
34.23500 434.000
34.25000 487.000
34.26500 625.000
34.28000 650.000
34.29500 605.000
34.31000 480.000
34.32500 383.000
34.34000 322.000
34.35500 273.000
34.37000 215.000
34.38500 205.000
34.40000 216.000
34.41500 237.000
34.43000 241.000
34.44500 224.000
34.46000 222.000
34.47500 266.000
34.49000 323.000
34.50500 413.000
34.52000 460.000
34.53500 506.000
34.55000 495.000
34.56500 469.000
34.58000 362.000
34.59500 287.000
34.61000 251.000
34.62500 211.000
34.64000 167.000
34.65500 182.000
34.67000 174.000
34.68500 173.000
34.70000 161.000
34.71500 149.000
34.73000 154.000
34.74500 150.000
34.76000 156.000
34.77500 149.000
34.79000 169.000
34.80500 183.000
34.82000 206.000
34.83500 210.000
34.85000 224.000
34.86500 245.000
34.88000 260.000
34.89500 264.000
34.91000 261.000
34.92500 245.000
34.94000 271.000
34.95500 264.000
34.97000 245.000
34.98500 213.000
35.00000 196.000
35.01500 175.000
35.03000 154.000
35.04500 143.000
35.06000 166.000
35.07500 150.000
35.09000 138.000
35.10500 120.000
35.12000 132.000
35.13500 130.000
35.15000 137.000
35.16500 156.000
35.18000 159.000
35.19500 172.000
35.21000 211.000
35.22500 227.000
35.24000 286.000
35.25500 310.000
35.27000 357.000
35.28500 322.000
35.30000 271.000
35.31500 201.000
35.33000 172.000
35.34500 153.000
35.36000 145.000
35.37500 150.000
35.39000 145.000
35.40500 135.000
35.42000 134.000
35.43500 127.000
35.45000 122.000
35.46500 124.000
35.48000 124.000
35.49500 130.000
35.51000 144.000
35.52500 153.000
35.54000 140.000
35.55500 125.000
35.57000 125.000
35.58500 145.000
35.60000 138.000
35.61500 153.000
35.63000 150.000
35.64500 148.000
35.66000 163.000
35.67500 198.000
35.69000 211.000
35.70500 259.000
35.72000 259.000
35.73500 224.000
35.75000 209.000
35.76500 200.000
35.78000 155.000
35.79500 147.000
35.81000 163.000
35.82500 173.000
35.84000 190.000
35.85500 201.000
35.87000 215.000
35.88500 248.000
35.90000 317.000
35.91500 341.000
35.93000 331.000
35.94500 290.000
35.96000 271.000
35.97500 205.000
35.99000 169.000
36.00500 149.000
36.02000 155.000
36.03500 165.000
36.05000 139.000
36.06500 148.000
36.08000 176.000
36.09500 172.000
36.11000 196.000
36.12500 191.000
36.14000 218.000
36.15500 295.000
36.17000 320.000
36.18500 305.000
36.20000 263.000
36.21500 212.000
36.23000 187.000
36.24500 154.000
36.26000 148.000
36.27500 133.000
36.29000 146.000
36.30500 134.000
36.32000 133.000
36.33500 146.000
36.35000 154.000
36.36500 161.000
36.38000 147.000
36.39500 162.000
36.41000 167.000
36.42500 196.000
36.44000 220.000
36.45500 225.000
36.47000 208.000
36.48500 177.000
36.50000 154.000
36.51500 151.000
36.53000 139.000
36.54500 149.000
36.56000 158.000
36.57500 158.000
36.59000 146.000
36.60500 118.000
36.62000 135.000
36.63500 125.000
36.65000 124.000
36.66500 132.000
36.68000 139.000
36.69500 147.000
36.71000 143.000
36.72500 137.000
36.74000 141.000
36.75500 155.000
36.77000 140.000
36.78500 127.000
36.80000 142.000
36.81500 159.000
36.83000 146.000
36.84500 169.000
36.86000 163.000
36.87500 161.000
36.89000 182.000
36.90500 206.000
36.92000 243.000
36.93500 273.000
36.95000 285.000
36.96500 327.000
36.98000 375.000
36.99500 455.000
37.01000 521.000
37.02500 718.000
37.04000 870.000
37.05500 991.000
37.07000 1001.000
37.08500 831.000
37.10000 639.000
37.11500 456.000
37.13000 325.000
37.14500 261.000
37.16000 245.000
37.17500 242.000
37.19000 229.000
37.20500 225.000
37.22000 266.000
37.23500 314.000
37.25000 383.000
37.26500 442.000
37.28000 526.000
37.29500 597.000
37.31000 616.000
37.32500 594.000
37.34000 536.000
37.35500 490.000
37.37000 436.000
37.38500 407.000
37.40000 406.000
37.41500 405.000
37.43000 386.000
37.44500 319.000
37.46000 285.000
37.47500 279.000
37.49000 269.000
37.50500 255.000
37.52000 227.000
37.53500 207.000
37.55000 204.000
37.56500 208.000
37.58000 188.000
37.59500 194.000
37.61000 201.000
37.62500 248.000
37.64000 266.000
37.65500 317.000
37.67000 412.000
37.68500 486.000
37.70000 589.000
37.71500 612.000
37.73000 583.000
37.74500 544.000
37.76000 378.000
37.77500 301.000
37.79000 253.000
37.80500 248.000
37.82000 231.000
37.83500 199.000
37.85000 201.000
37.86500 187.000
37.88000 186.000
37.89500 162.000
37.91000 155.000
37.92500 164.000
37.94000 177.000
37.95500 168.000
37.97000 203.000
37.98500 237.000
38.00000 264.000
38.01500 334.000
38.03000 385.000
38.04500 475.000
38.06000 584.000
38.07500 643.000
38.09000 682.000
38.10500 638.000
38.12000 520.000
38.13500 402.000
38.15000 316.000
38.16500 275.000
38.18000 252.000
38.19500 221.000
38.21000 225.000
38.22500 247.000
38.24000 253.000
38.25500 294.000
38.27000 281.000
38.28500 300.000
38.30000 302.000
38.31500 244.000
38.33000 214.000
38.34500 216.000
38.36000 192.000
38.37500 174.000
38.39000 170.000
38.40500 207.000
38.42000 197.000
38.43500 212.000
38.45000 261.000
38.46500 320.000
38.48000 376.000
38.49500 531.000
38.51000 731.000
38.52500 912.000
38.54000 956.000
38.55500 860.000
38.57000 688.000
38.58500 499.000
38.60000 357.000
38.61500 258.000
38.63000 205.000
38.64500 185.000
38.66000 200.000
38.67500 175.000
38.69000 169.000
38.70500 172.000
38.72000 209.000
38.73500 235.000
38.75000 279.000
38.76500 326.000
38.78000 322.000
38.79500 314.000
38.81000 284.000
38.82500 247.000
38.84000 192.000
38.85500 166.000
38.87000 146.000
38.88500 160.000
38.90000 139.000
38.91500 144.000
38.93000 145.000
38.94500 122.000
38.96000 141.000
38.97500 138.000
38.99000 134.000
39.00500 124.000
39.02000 126.000
39.03500 132.000
39.05000 149.000
39.06500 123.000
39.08000 149.000
39.09500 174.000
39.11000 191.000
39.12500 209.000
39.14000 239.000
39.15500 262.000
39.17000 291.000
39.18500 321.000
39.20000 355.000
39.21500 431.000
39.23000 454.000
39.24500 436.000
39.26000 374.000
39.27500 313.000
39.29000 303.000
39.30500 345.000
39.32000 381.000
39.33500 398.000
39.35000 519.000
39.36500 566.000
39.38000 709.000
39.39500 739.000
39.41000 715.000
39.42500 564.000
39.44000 465.000
39.45500 351.000
39.47000 314.000
39.48500 264.000
39.50000 252.000
39.51500 298.000
39.53000 364.000
39.54500 411.000
39.56000 400.000
39.57500 433.000
39.59000 394.000
39.60500 336.000
39.62000 286.000
39.63500 238.000
39.65000 189.000
39.66500 176.000
39.68000 153.000
39.69500 144.000
39.71000 150.000
39.72500 150.000
39.74000 130.000
39.75500 151.000
39.77000 170.000
39.78500 171.000
39.80000 156.000
39.81500 183.000
39.83000 203.000
39.84500 245.000
39.86000 284.000
39.87500 330.000
39.89000 399.000
39.90500 439.000
39.92000 454.000
39.93500 429.000
39.95000 349.000
39.96500 281.000
39.98000 225.000
39.99500 195.000
40.01000 172.000
40.02500 163.000
40.04000 147.000
40.05500 146.000
40.07000 146.000
40.08500 134.000
40.10000 128.000
40.11500 145.000
40.13000 132.000
40.14500 128.000
40.16000 147.000
40.17500 154.000
40.19000 165.000
40.20500 149.000
40.22000 161.000
40.23500 203.000
40.25000 246.000
40.26500 277.000
40.28000 296.000
40.29500 301.000
40.31000 325.000
40.32500 332.000
40.34000 321.000
40.35500 283.000
40.37000 258.000
40.38500 254.000
40.40000 246.000
40.41500 227.000
40.43000 230.000
40.44500 251.000
40.46000 265.000
40.47500 273.000
40.49000 259.000
40.50500 286.000
40.52000 267.000
40.53500 264.000
40.55000 265.000
40.56500 292.000
40.58000 307.000
40.59500 353.000
40.61000 404.000
40.62500 392.000
40.64000 385.000
40.65500 336.000
40.67000 305.000
40.68500 235.000
40.70000 250.000
40.71500 228.000
40.73000 207.000
40.74500 215.000
40.76000 234.000
40.77500 275.000
40.79000 317.000
40.80500 303.000
40.82000 299.000
40.83500 316.000
40.85000 344.000
40.86500 391.000
40.88000 473.000
40.89500 563.000
40.91000 563.000
40.92500 468.000
40.94000 385.000
40.95500 299.000
40.97000 232.000
40.98500 215.000
41.00000 193.000
41.01500 167.000
41.03000 207.000
41.04500 213.000
41.06000 245.000
41.07500 298.000
41.09000 317.000
41.10500 374.000
41.12000 348.000
41.13500 371.000
41.15000 348.000
41.16500 337.000
41.18000 328.000
41.19500 305.000
41.21000 263.000
41.22500 245.000
41.24000 200.000
41.25500 184.000
41.27000 185.000
41.28500 220.000
41.30000 190.000
41.31500 188.000
41.33000 191.000
41.34500 221.000
41.36000 258.000
41.37500 318.000
41.39000 336.000
41.40500 344.000
41.42000 382.000
41.43500 383.000
41.45000 425.000
41.46500 505.000
41.48000 594.000
41.49500 650.000
41.51000 666.000
41.52500 662.000
41.54000 542.000
41.55500 417.000
41.57000 345.000
41.58500 292.000
41.60000 245.000
41.61500 229.000
41.63000 175.000
41.64500 162.000
41.66000 160.000
41.67500 160.000
41.69000 156.000
41.70500 130.000
41.72000 136.000
41.73500 129.000
41.75000 120.000
41.76500 127.000
41.78000 116.000
41.79500 118.000
41.81000 114.000
41.82500 134.000
41.84000 116.000
41.85500 124.000
41.87000 118.000
41.88500 138.000
41.90000 137.000
41.91500 119.000
41.93000 128.000
41.94500 135.000
41.96000 137.000
41.97500 155.000
41.99000 146.000
42.00500 146.000
42.02000 158.000
42.03500 165.000
42.05000 166.000
42.06500 159.000
42.08000 168.000
42.09500 178.000
42.11000 203.000
42.12500 214.000
42.14000 227.000
42.15500 211.000
42.17000 215.000
42.18500 184.000
42.20000 157.000
42.21500 157.000
42.23000 133.000
42.24500 140.000
42.26000 126.000
42.27500 145.000
42.29000 137.000
42.30500 156.000
42.32000 158.000
42.33500 188.000
42.35000 210.000
42.36500 224.000
42.38000 206.000
42.39500 242.000
42.41000 275.000
42.42500 251.000
42.44000 220.000
42.45500 219.000
42.47000 181.000
42.48500 171.000
42.50000 163.000
42.51500 140.000
42.53000 133.000
42.54500 133.000
42.56000 130.000
42.57500 126.000
42.59000 124.000
42.60500 125.000
42.62000 108.000
42.63500 102.000
42.65000 134.000
42.66500 150.000
42.68000 156.000
42.69500 145.000
42.71000 184.000
42.72500 189.000
42.74000 198.000
42.75500 237.000
42.77000 237.000
42.78500 238.000
42.80000 247.000
42.81500 247.000
42.83000 224.000
42.84500 232.000
42.86000 226.000
42.87500 212.000
42.89000 209.000
42.90500 181.000
42.92000 181.000
42.93500 167.000
42.95000 167.000
42.96500 181.000
42.98000 179.000
42.99500 232.000
43.01000 268.000
43.02500 322.000
43.04000 383.000
43.05500 419.000
43.07000 498.000
43.08500 665.000
43.10000 737.000
43.11500 675.000
43.13000 575.000
43.14500 450.000
43.16000 346.000
43.17500 261.000
43.19000 212.000
43.20500 203.000
43.22000 189.000
43.23500 159.000
43.25000 148.000
43.26500 136.000
43.28000 130.000
43.29500 123.000
43.31000 116.000
43.32500 110.000
43.34000 108.000
43.35500 110.000
43.37000 106.000
43.38500 119.000
43.40000 140.000
43.41500 112.000
43.43000 115.000
43.44500 111.000
43.46000 112.000
43.47500 118.000
43.49000 130.000
43.50500 113.000
43.52000 109.000
43.53500 115.000
43.55000 125.000
43.56500 118.000
43.58000 124.000
43.59500 130.000
43.61000 116.000
43.62500 111.000
43.64000 115.000
43.65500 125.000
43.67000 119.000
43.68500 102.000
43.70000 110.000
43.71500 121.000
43.73000 128.000
43.74500 107.000
43.76000 116.000
43.77500 110.000
43.79000 112.000
43.80500 117.000
43.82000 131.000
43.83500 127.000
43.85000 145.000
43.86500 159.000
43.88000 177.000
43.89500 187.000
43.91000 189.000
43.92500 256.000
43.94000 332.000
43.95500 409.000
43.97000 495.000
43.98500 532.000
44.00000 525.000
44.01500 452.000
44.03000 368.000
44.04500 291.000
44.06000 274.000
44.07500 260.000
44.09000 238.000
44.10500 256.000
44.12000 281.000
44.13500 259.000
44.15000 258.000
44.16500 207.000
44.18000 194.000
44.19500 158.000
44.21000 137.000
44.22500 148.000
44.24000 152.000
44.25500 143.000
44.27000 152.000
44.28500 152.000
44.30000 167.000
44.31500 190.000
44.33000 200.000
44.34500 233.000
44.36000 275.000
44.37500 339.000
44.39000 349.000
44.40500 377.000
44.42000 397.000
44.43500 455.000
44.45000 370.000
44.46500 331.000
44.48000 276.000
44.49500 252.000
44.51000 239.000
44.52500 199.000
44.54000 179.000
44.55500 172.000
44.57000 168.000
44.58500 172.000
44.60000 163.000
44.61500 161.000
44.63000 133.000
44.64500 140.000
44.66000 149.000
44.67500 154.000
44.69000 150.000
44.70500 129.000
44.72000 147.000
44.73500 148.000
44.75000 173.000
44.76500 170.000
44.78000 190.000
44.79500 212.000
44.81000 200.000
44.82500 197.000
44.84000 170.000
44.85500 166.000
44.87000 161.000
44.88500 179.000
44.90000 187.000
44.91500 203.000
44.93000 239.000
44.94500 289.000
44.96000 343.000
44.97500 411.000
44.99000 474.000
45.00500 552.000
45.02000 566.000
45.03500 550.000
45.05000 472.000
45.06500 409.000
45.08000 392.000
45.09500 341.000
45.11000 315.000
45.12500 261.000
45.14000 221.000
45.15500 188.000
45.17000 166.000
45.18500 158.000
45.20000 163.000
45.21500 176.000
45.23000 176.000
45.24500 218.000
45.26000 271.000
45.27500 331.000
45.29000 372.000
45.30500 397.000
45.32000 372.000
45.33500 317.000
45.35000 248.000
45.36500 194.000
45.38000 170.000
45.39500 161.000
45.41000 126.000
45.42500 120.000
45.44000 142.000
45.45500 150.000
45.47000 132.000
45.48500 127.000
45.50000 141.000
45.51500 131.000
45.53000 123.000
45.54500 122.000
45.56000 121.000
45.57500 123.000
45.59000 124.000
45.60500 109.000
45.62000 126.000
45.63500 128.000
45.65000 138.000
45.66500 138.000
45.68000 149.000
45.69500 148.000
45.71000 164.000
45.72500 163.000
45.74000 186.000
45.75500 208.000
45.77000 261.000
45.78500 240.000
45.80000 240.000
45.81500 239.000
45.83000 235.000
45.84500 226.000
45.86000 221.000
45.87500 198.000
45.89000 186.000
45.90500 211.000
45.92000 206.000
45.93500 209.000
45.95000 251.000
45.96500 296.000
45.98000 335.000
45.99500 377.000
46.01000 375.000
46.02500 331.000
46.04000 288.000
46.05500 253.000
46.07000 227.000
46.08500 208.000
46.10000 224.000
46.11500 243.000
46.13000 257.000
46.14500 238.000
46.16000 219.000
46.17500 202.000
46.19000 159.000
46.20500 149.000
46.22000 125.000
46.23500 139.000
46.25000 141.000
46.26500 147.000
46.28000 153.000
46.29500 143.000
46.31000 158.000
46.32500 187.000
46.34000 167.000
46.35500 169.000
46.37000 165.000
46.38500 151.000
46.40000 154.000
46.41500 141.000
46.43000 142.000
46.44500 160.000
46.46000 170.000
46.47500 193.000
46.49000 210.000
46.50500 218.000
46.52000 239.000
46.53500 265.000
46.55000 253.000
46.56500 231.000
46.58000 217.000
46.59500 217.000
46.61000 209.000
46.62500 170.000
46.64000 187.000
46.65500 184.000
46.67000 158.000
46.68500 143.000
46.70000 117.000
46.71500 111.000
46.73000 118.000
46.74500 113.000
46.76000 129.000
46.77500 116.000
46.79000 109.000
46.80500 113.000
46.82000 106.000
46.83500 104.000
46.85000 125.000
46.86500 117.000
46.88000 119.000
46.89500 131.000
46.91000 151.000
46.92500 154.000
46.94000 148.000
46.95500 114.000
46.97000 144.000
46.98500 153.000
47.00000 156.000
47.01500 162.000
47.03000 189.000
47.04500 213.000
47.06000 200.000
47.07500 178.000
47.09000 165.000
47.10500 140.000
47.12000 129.000
47.13500 133.000
47.15000 140.000
47.16500 122.000
47.18000 128.000
47.19500 140.000
47.21000 132.000
47.22500 145.000
47.24000 165.000
47.25500 162.000
47.27000 168.000
47.28500 177.000
47.30000 197.000
47.31500 195.000
47.33000 164.000
47.34500 161.000
47.36000 152.000
47.37500 147.000
47.39000 143.000
47.40500 138.000
47.42000 132.000
47.43500 169.000
47.45000 183.000
47.46500 201.000
47.48000 271.000
47.49500 336.000
47.51000 474.000
47.52500 548.000
47.54000 614.000
47.55500 643.000
47.57000 631.000
47.58500 464.000
47.60000 344.000
47.61500 240.000
47.63000 219.000
47.64500 186.000
47.66000 196.000
47.67500 154.000
47.69000 147.000
47.70500 134.000
47.72000 125.000
47.73500 110.000
47.75000 112.000
47.76500 109.000
47.78000 100.000
47.79500 131.000
47.81000 115.000
47.82500 116.000
47.84000 105.000
47.85500 114.000
47.87000 117.000
47.88500 122.000
47.90000 124.000
47.91500 128.000
47.93000 121.000
47.94500 138.000
47.96000 151.000
47.97500 165.000
47.99000 174.000
48.00500 183.000
48.02000 219.000
48.03500 202.000
48.05000 169.000
48.06500 148.000
48.08000 146.000
48.09500 129.000
48.11000 132.000
48.12500 128.000
48.14000 109.000
48.15500 91.000
48.17000 114.000
48.18500 114.000
48.20000 96.000
48.21500 101.000
48.23000 119.000
48.24500 120.000
48.26000 116.000
48.27500 108.000
48.29000 109.000
48.30500 113.000
48.32000 115.000
48.33500 128.000
48.35000 138.000
48.36500 133.000
48.38000 128.000
48.39500 120.000
48.41000 126.000
48.42500 121.000
48.44000 129.000
48.45500 139.000
48.47000 146.000
48.48500 168.000
48.50000 174.000
48.51500 208.000
48.53000 221.000
48.54500 261.000
48.56000 256.000
48.57500 276.000
48.59000 257.000
48.60500 217.000
48.62000 211.000
48.63500 202.000
48.65000 175.000
48.66500 147.000
48.68000 156.000
48.69500 159.000
48.71000 159.000
48.72500 159.000
48.74000 164.000
48.75500 197.000
48.77000 188.000
48.78500 168.000
48.80000 159.000
48.81500 184.000
48.83000 207.000
48.84500 195.000
48.86000 192.000
48.87500 202.000
48.89000 171.000
48.90500 162.000
48.92000 128.000
48.93500 119.000
48.95000 121.000
48.96500 121.000
48.98000 114.000
48.99500 118.000
49.01000 118.000
49.02500 123.000
49.04000 119.000
49.05500 115.000
49.07000 109.000
49.08500 123.000
49.10000 127.000
49.11500 118.000
49.13000 113.000
49.14500 122.000
49.16000 134.000
49.17500 124.000
49.19000 117.000
49.20500 125.000
49.22000 119.000
49.23500 118.000
49.25000 124.000
49.26500 132.000
49.28000 139.000
49.29500 117.000
49.31000 128.000
49.32500 128.000
49.34000 128.000
49.35500 120.000
49.37000 123.000
49.38500 131.000
49.40000 129.000
49.41500 117.000
49.43000 130.000
49.44500 133.000
49.46000 130.000
49.47500 132.000
49.49000 113.000
49.50500 115.000
49.52000 126.000
49.53500 102.000
49.55000 117.000
49.56500 123.000
49.58000 118.000
49.59500 134.000
49.61000 144.000
49.62500 138.000
49.64000 135.000
49.65500 131.000
49.67000 119.000
49.68500 143.000
49.70000 150.000
49.71500 152.000
49.73000 153.000
49.74500 153.000
49.76000 176.000
49.77500 186.000
49.79000 186.000
49.80500 206.000
49.82000 231.000
49.83500 230.000
49.85000 209.000
49.86500 214.000
49.88000 169.000
49.89500 158.000
49.91000 144.000
49.92500 138.000
49.94000 135.000
49.95500 110.000
49.97000 112.000
49.98500 120.000
50.00000 128.000
50.01500 127.000
50.03000 116.000
50.04500 125.000
50.06000 130.000
50.07500 116.000
50.09000 116.000
50.10500 111.000
50.12000 142.000
50.13500 141.000
50.15000 129.000
50.16500 163.000
50.18000 165.000
50.19500 155.000
50.21000 150.000
50.22500 137.000
50.24000 132.000
50.25500 131.000
50.27000 135.000
50.28500 135.000
50.30000 131.000
50.31500 147.000
50.33000 171.000
50.34500 185.000
50.36000 186.000
50.37500 157.000
50.39000 198.000
50.40500 207.000
50.42000 234.000
50.43500 199.000
50.45000 201.000
50.46500 178.000
50.48000 165.000
50.49500 157.000
50.51000 139.000
50.52500 123.000
50.54000 148.000
50.55500 141.000
50.57000 159.000
50.58500 158.000
50.60000 143.000
50.61500 127.000
50.63000 136.000
50.64500 120.000
50.66000 135.000
50.67500 150.000
50.69000 131.000
50.70500 147.000
50.72000 157.000
50.73500 183.000
50.75000 174.000
50.76500 183.000
50.78000 146.000
50.79500 161.000
50.81000 161.000
50.82500 142.000
50.84000 145.000
50.85500 153.000
50.87000 171.000
50.88500 163.000
50.90000 176.000
50.91500 212.000
50.93000 264.000
50.94500 290.000
50.96000 308.000
50.97500 342.000
50.99000 348.000
51.00500 290.000
51.02000 249.000
51.03500 225.000
51.05000 192.000
51.06500 205.000
51.08000 192.000
51.09500 194.000
51.11000 206.000
51.12500 216.000
51.14000 172.000
51.15500 205.000
51.17000 211.000
51.18500 228.000
51.20000 224.000
51.21500 279.000
51.23000 282.000
51.24500 323.000
51.26000 378.000
51.27500 446.000
51.29000 536.000
51.30500 611.000
51.32000 665.000
51.33500 627.000
51.35000 579.000
51.36500 467.000
51.38000 386.000
51.39500 334.000
51.41000 285.000
51.42500 278.000
51.44000 274.000
51.45500 267.000
51.47000 288.000
51.48500 312.000
51.50000 315.000
51.51500 282.000
51.53000 271.000
51.54500 294.000
51.56000 311.000
51.57500 347.000
51.59000 399.000
51.60500 435.000
51.62000 469.000
51.63500 432.000
51.65000 372.000
51.66500 348.000
51.68000 254.000
51.69500 205.000
51.71000 199.000
51.72500 188.000
51.74000 146.000
51.75500 154.000
51.77000 173.000
51.78500 168.000
51.80000 153.000
51.81500 157.000
51.83000 147.000
51.84500 138.000
51.86000 129.000
51.87500 131.000
51.89000 133.000
51.90500 125.000
51.92000 127.000
51.93500 122.000
51.95000 127.000
51.96500 132.000
51.98000 132.000
51.99500 143.000
52.01000 109.000
52.02500 112.000
52.04000 133.000
52.05500 112.000
52.07000 124.000
52.08500 129.000
52.10000 132.000
52.11500 127.000
52.13000 130.000
52.14500 144.000
52.16000 155.000
52.17500 142.000
52.19000 171.000
52.20500 153.000
52.22000 180.000
52.23500 170.000
52.25000 173.000
52.26500 170.000
52.28000 151.000
52.29500 151.000
52.31000 137.000
52.32500 131.000
52.34000 129.000
52.35500 131.000
52.37000 141.000
52.38500 130.000
52.40000 129.000
52.41500 144.000
52.43000 127.000
52.44500 139.000
52.46000 163.000
52.47500 176.000
52.49000 155.000
52.50500 176.000
52.52000 180.000
52.53500 178.000
52.55000 140.000
52.56500 139.000
52.58000 149.000
52.59500 150.000
52.61000 122.000
52.62500 152.000
52.64000 129.000
52.65500 128.000
52.67000 125.000
52.68500 113.000
52.70000 126.000
52.71500 137.000
52.73000 136.000
52.74500 132.000
52.76000 134.000
52.77500 154.000
52.79000 135.000
52.80500 162.000
52.82000 151.000
52.83500 152.000
52.85000 158.000
52.86500 148.000
52.88000 138.000
52.89500 155.000
52.91000 150.000
52.92500 149.000
52.94000 128.000
52.95500 133.000
52.97000 154.000
52.98500 136.000
53.00000 152.000
53.01500 154.000
53.03000 164.000
53.04500 152.000
53.06000 180.000
53.07500 190.000
53.09000 207.000
53.10500 206.000
53.12000 209.000
53.13500 192.000
53.15000 181.000
53.16500 188.000
53.18000 170.000
53.19500 166.000
53.21000 160.000
53.22500 150.000
53.24000 148.000
53.25500 136.000
53.27000 135.000
53.28500 146.000
53.30000 156.000
53.31500 168.000
53.33000 196.000
53.34500 199.000
53.36000 240.000
53.37500 248.000
53.39000 235.000
53.40500 244.000
53.42000 243.000
53.43500 255.000
53.45000 202.000
53.46500 168.000
53.48000 152.000
53.49500 142.000
53.51000 130.000
53.52500 128.000
53.54000 127.000
53.55500 117.000
53.57000 130.000
53.58500 141.000
53.60000 139.000
53.61500 141.000
53.63000 153.000
53.64500 169.000
53.66000 169.000
53.67500 192.000
53.69000 185.000
53.70500 168.000
53.72000 169.000
53.73500 143.000
53.75000 156.000
53.76500 147.000
53.78000 144.000
53.79500 148.000
53.81000 136.000
53.82500 137.000
53.84000 136.000
53.85500 136.000
53.87000 137.000
53.88500 125.000
53.90000 121.000
53.91500 113.000
53.93000 108.000
53.94500 104.000
53.96000 99.000
53.97500 96.000
53.99000 92.000
54.00500 102.000
54.02000 97.000
54.03500 108.000
54.05000 105.000
54.06500 103.000
54.08000 125.000
54.09500 108.000
54.11000 139.000
54.12500 121.000
54.14000 109.000
54.15500 111.000
54.17000 130.000
54.18500 150.000
54.20000 147.000
54.21500 158.000
54.23000 197.000
54.24500 202.000
54.26000 231.000
54.27500 218.000
54.29000 215.000
54.30500 218.000
54.32000 220.000
54.33500 191.000
54.35000 158.000
54.36500 134.000
54.38000 121.000
54.39500 130.000
54.41000 125.000
54.42500 117.000
54.44000 104.000
54.45500 121.000
54.47000 111.000
54.48500 109.000
54.50000 120.000
54.51500 104.000
54.53000 113.000
54.54500 109.000
54.56000 118.000
54.57500 126.000
54.59000 123.000
54.60500 125.000
54.62000 121.000
54.63500 135.000
54.65000 125.000
54.66500 115.000
54.68000 150.000
54.69500 160.000
54.71000 148.000
54.72500 142.000
54.74000 146.000
54.75500 132.000
54.77000 132.000
54.78500 125.000
54.80000 124.000
54.81500 137.000
54.83000 128.000
54.84500 124.000
54.86000 111.000
54.87500 108.000
54.89000 116.000
54.90500 130.000
54.92000 164.000
54.93500 197.000
54.95000 201.000
54.96500 209.000
54.98000 212.000
54.99500 211.000
55.01000 174.000
55.02500 156.000
55.04000 142.000
55.05500 137.000
55.07000 119.000
55.08500 125.000
55.10000 112.000
55.11500 112.000
55.13000 110.000
55.14500 123.000
55.16000 130.000
55.17500 151.000
55.19000 162.000
55.20500 175.000
55.22000 164.000
55.23500 152.000
55.25000 151.000
55.26500 137.000
55.28000 130.000
55.29500 143.000
55.31000 129.000
55.32500 150.000
55.34000 159.000
55.35500 168.000
55.37000 191.000
55.38500 170.000
55.40000 164.000
55.41500 151.000
55.43000 170.000
55.44500 181.000
55.46000 185.000
55.47500 167.000
55.49000 170.000
55.50500 162.000
55.52000 154.000
55.53500 144.000
55.55000 121.000
55.56500 125.000
55.58000 121.000
55.59500 114.000
55.61000 129.000
55.62500 108.000
55.64000 101.000
55.65500 119.000
55.67000 113.000
55.68500 128.000
55.70000 121.000
55.71500 106.000
55.73000 135.000
55.74500 143.000
55.76000 149.000
55.77500 156.000
55.79000 171.000
55.80500 223.000
55.82000 236.000
55.83500 265.000
55.85000 246.000
55.86500 208.000
55.88000 219.000
55.89500 220.000
55.91000 222.000
55.92500 184.000
55.94000 182.000
55.95500 189.000
55.97000 166.000
55.98500 137.000
56.00000 138.000
56.01500 129.000
56.03000 134.000
56.04500 141.000
56.06000 131.000
56.07500 126.000
56.09000 114.000
56.10500 115.000
56.12000 131.000
56.13500 142.000
56.15000 124.000
56.16500 110.000
56.18000 125.000
56.19500 91.000
56.21000 76.000
56.22500 120.000
56.24000 102.000
56.25500 106.000
56.27000 101.000
56.28500 109.000
56.30000 119.000
56.31500 116.000
56.33000 132.000
56.34500 122.000
56.36000 120.000
56.37500 99.000
56.39000 103.000
56.40500 106.000
56.42000 100.000
56.43500 106.000
56.45000 111.000
56.46500 107.000
56.48000 127.000
56.49500 119.000
56.51000 128.000
56.52500 123.000
56.54000 134.000
56.55500 142.000
56.57000 139.000
56.58500 164.000
56.60000 172.000
56.61500 168.000
56.63000 159.000
56.64500 167.000
56.66000 164.000
56.67500 153.000
56.69000 169.000
56.70500 187.000
56.72000 187.000
56.73500 194.000
56.75000 192.000
56.76500 202.000
56.78000 215.000
56.79500 194.000
56.81000 180.000
56.82500 164.000
56.84000 149.000
56.85500 149.000
56.87000 131.000
56.88500 129.000
56.90000 136.000
56.91500 145.000
56.93000 153.000
56.94500 134.000
56.96000 143.000
56.97500 144.000
56.99000 151.000
57.00500 166.000
57.02000 151.000
57.03500 168.000
57.05000 142.000
57.06500 129.000
57.08000 123.000
57.09500 118.000
57.11000 107.000
57.12500 114.000
57.14000 100.000
57.15500 104.000
57.17000 125.000
57.18500 108.000
57.20000 117.000
57.21500 116.000
57.23000 127.000
57.24500 126.000
57.26000 125.000
57.27500 133.000
57.29000 132.000
57.30500 127.000
57.32000 120.000
57.33500 122.000
57.35000 128.000
57.36500 127.000
57.38000 146.000
57.39500 175.000
57.41000 185.000
57.42500 191.000
57.44000 191.000
57.45500 186.000
57.47000 168.000
57.48500 157.000
57.50000 147.000
57.51500 119.000
57.53000 116.000
57.54500 122.000
57.56000 110.000
57.57500 110.000
57.59000 120.000
57.60500 119.000
57.62000 130.000
57.63500 113.000
57.65000 142.000
57.66500 154.000
57.68000 164.000
57.69500 175.000
57.71000 145.000
57.72500 166.000
57.74000 151.000
57.75500 143.000
57.77000 135.000
57.78500 125.000
57.80000 118.000
57.81500 128.000
57.83000 133.000
57.84500 133.000
57.86000 129.000
57.87500 124.000
57.89000 113.000
57.90500 115.000
57.92000 114.000
57.93500 112.000
57.95000 121.000
57.96500 111.000
57.98000 108.000
57.99500 114.000
58.01000 105.000
58.02500 117.000
58.04000 111.000
58.05500 126.000
58.07000 127.000
58.08500 154.000
58.10000 173.000
58.11500 150.000
58.13000 148.000
58.14500 160.000
58.16000 168.000
58.17500 150.000
58.19000 141.000
58.20500 130.000
58.22000 134.000
58.23500 149.000
58.25000 157.000
58.26500 153.000
58.28000 150.000
58.29500 139.000
58.31000 147.000
58.32500 140.000
58.34000 140.000
58.35500 135.000
58.37000 143.000
58.38500 143.000
58.40000 148.000
58.41500 140.000
58.43000 133.000
58.44500 129.000
58.46000 128.000
58.47500 125.000
58.49000 113.000
58.50500 100.000
58.52000 107.000
58.53500 121.000
58.55000 124.000
58.56500 124.000
58.58000 141.000
58.59500 153.000
58.61000 141.000
58.62500 130.000
58.64000 139.000
58.65500 148.000
58.67000 140.000
58.68500 161.000
58.70000 172.000
58.71500 138.000
58.73000 151.000
58.74500 155.000
58.76000 169.000
58.77500 152.000
58.79000 145.000
58.80500 153.000
58.82000 148.000
58.83500 145.000
58.85000 128.000
58.86500 133.000
58.88000 120.000
58.89500 127.000
58.91000 133.000
58.92500 118.000
58.94000 118.000
58.95500 128.000
58.97000 125.000
58.98500 102.000
59.00000 113.000
59.01500 118.000
59.03000 103.000
59.04500 110.000
59.06000 112.000
59.07500 110.000
59.09000 129.000
59.10500 127.000
59.12000 123.000
59.13500 134.000
59.15000 150.000
59.16500 152.000
59.18000 139.000
59.19500 150.000
59.21000 147.000
59.22500 145.000
59.24000 137.000
59.25500 128.000
59.27000 133.000
59.28500 114.000
59.30000 121.000
59.31500 112.000
59.33000 103.000
59.34500 105.000
59.36000 116.000
59.37500 112.000
59.39000 104.000
59.40500 97.000
59.42000 119.000
59.43500 90.000
59.45000 99.000
59.46500 102.000
59.48000 98.000
59.49500 95.000
59.51000 105.000
59.52500 94.000
59.54000 108.000
59.55500 123.000
59.57000 122.000
59.58500 114.000
59.60000 105.000
59.61500 120.000
59.63000 103.000
59.64500 129.000
59.66000 124.000
59.67500 133.000
59.69000 148.000
59.70500 139.000
59.72000 142.000
59.73500 145.000
59.75000 144.000
59.76500 141.000
59.78000 117.000
59.79500 121.000
59.81000 108.000
59.82500 112.000
59.84000 104.000
59.85500 110.000
59.87000 126.000
59.88500 119.000
59.90000 112.000
59.91500 110.000
59.93000 124.000
59.94500 122.000
59.96000 122.000
59.97500 107.000
59.99000 125.000
60.00500 148.000
60.02000 151.000
60.03500 156.000
60.05000 145.000
60.06500 128.000
60.08000 130.000
60.09500 123.000
60.11000 143.000
60.12500 128.000
60.14000 113.000
60.15500 133.000
60.17000 152.000
60.18500 128.000
60.20000 113.000
60.21500 129.000
60.23000 109.000
60.24500 109.000
60.26000 123.000
60.27500 106.000
60.29000 121.000
60.30500 133.000
60.32000 145.000
60.33500 130.000
60.35000 125.000
60.36500 129.000
60.38000 140.000
60.39500 135.000
60.41000 116.000
60.42500 110.000
60.44000 125.000
60.45500 123.000
60.47000 123.000
60.48500 122.000
60.50000 100.000
60.51500 106.000
60.53000 131.000
60.54500 135.000
60.56000 158.000
60.57500 149.000
60.59000 162.000
60.60500 163.000
60.62000 138.000
60.63500 150.000
60.65000 135.000
60.66500 148.000
60.68000 140.000
60.69500 139.000
60.71000 128.000
60.72500 130.000
60.74000 131.000
60.75500 140.000
60.77000 140.000
60.78500 143.000
60.80000 137.000
60.81500 145.000
60.83000 145.000
60.84500 160.000
60.86000 156.000
60.87500 143.000
60.89000 143.000
60.90500 137.000
60.92000 120.000
60.93500 113.000
60.95000 107.000
60.96500 118.000
60.98000 125.000
60.99500 148.000
61.01000 131.000
61.02500 140.000
61.04000 141.000
61.05500 128.000
61.07000 143.000
61.08500 142.000
61.10000 143.000
61.11500 149.000
61.13000 145.000
61.14500 132.000
61.16000 132.000
61.17500 145.000
61.19000 144.000
61.20500 121.000
61.22000 132.000
61.23500 121.000
61.25000 128.000
61.26500 117.000
61.28000 108.000
61.29500 125.000
61.31000 126.000
61.32500 125.000
61.34000 121.000
61.35500 117.000
61.37000 131.000
61.38500 123.000
61.40000 127.000
61.41500 140.000
61.43000 152.000
61.44500 162.000
61.46000 170.000
61.47500 178.000
61.49000 181.000
61.50500 220.000
61.52000 221.000
61.53500 203.000
61.55000 186.000
61.56500 176.000
61.58000 151.000
61.59500 153.000
61.61000 152.000
61.62500 150.000
61.64000 125.000
61.65500 122.000
61.67000 119.000
61.68500 121.000
61.70000 138.000
61.71500 120.000
61.73000 117.000
61.74500 122.000
61.76000 120.000
61.77500 124.000
61.79000 128.000
61.80500 123.000
61.82000 126.000
61.83500 126.000
61.85000 131.000
61.86500 120.000
61.88000 108.000
61.89500 100.000
61.91000 127.000
61.92500 123.000
61.94000 123.000
61.95500 102.000
61.97000 128.000
61.98500 139.000
