2.00000 4.000
2.01500 4.000
2.03000 5.000
2.04500 6.000
2.06000 8.000
2.07500 4.000
2.09000 3.000
2.10500 5.000
2.12000 3.000
2.13500 7.000
2.15000 6.000
2.16500 1.000
2.18000 3.000
2.19500 4.000
2.21000 3.000
2.22500 8.000
2.24000 4.000
2.25500 4.000
2.27000 4.000
2.28500 5.000
2.30000 4.000
2.31500 2.000
2.33000 4.000
2.34500 3.000
2.36000 4.000
2.37500 5.000
2.39000 7.000
2.40500 7.000
2.42000 3.000
2.43500 2.000
2.45000 2.000
2.46500 4.000
2.48000 4.000
2.49500 5.000
2.51000 4.000
2.52500 5.000
2.54000 6.000
2.55500 2.000
2.57000 4.000
2.58500 3.000
2.60000 6.000
2.61500 6.000
2.63000 6.000
2.64500 6.000
2.66000 3.000
2.67500 3.000
2.69000 4.000
2.70500 6.000
2.72000 7.000
2.73500 2.000
2.75000 1.000
2.76500 4.000
2.78000 5.000
2.79500 3.000
2.81000 6.000
2.82500 4.000
2.84000 4.000
2.85500 4.000
2.87000 4.000
2.88500 6.000
2.90000 4.000
2.91500 5.000
2.93000 3.000
2.94500 5.000
2.96000 4.000
2.97500 3.000
2.99000 5.000
3.00500 8.000
3.02000 4.000
3.03500 5.000
3.05000 3.000
3.06500 5.000
3.08000 6.000
3.09500 2.000
3.11000 6.000
3.12500 4.000
3.14000 6.000
3.15500 12.000
3.17000 15.000
3.18500 22.000
3.20000 27.000
3.21500 32.000
3.23000 48.000
3.24500 79.000
3.26000 95.000
3.27500 129.000
3.29000 159.000
3.30500 188.000
3.32000 231.000
3.33500 263.000
3.35000 292.000
3.36500 306.000
3.38000 299.000
3.39500 316.000
3.41000 300.000
3.42500 287.000
3.44000 318.000
3.45500 295.000
3.47000 278.000
3.48500 304.000
3.50000 302.000
3.51500 281.000
3.53000 292.000
3.54500 288.000
3.56000 279.000
3.57500 276.000
3.59000 308.000
3.60500 288.000
3.62000 288.000
3.63500 295.000
3.65000 289.000
3.66500 295.000
3.68000 290.000
3.69500 283.000
3.71000 292.000
3.72500 288.000
3.74000 269.000
3.75500 279.000
3.77000 264.000
3.78500 281.000
3.80000 295.000
3.81500 298.000
3.83000 280.000
3.84500 275.000
3.86000 263.000
3.87500 281.000
3.89000 281.000
3.90500 279.000
3.92000 278.000
3.93500 288.000
3.95000 296.000
3.96500 294.000
3.98000 291.000
3.99500 292.000
4.01000 283.000
4.02500 274.000
4.04000 289.000
4.05500 270.000
4.07000 277.000
4.08500 300.000
4.10000 270.000
4.11500 301.000
4.13000 280.000
4.14500 288.000
4.16000 269.000
4.17500 270.000
4.19000 295.000
4.20500 300.000
4.22000 284.000
4.23500 292.000
4.25000 275.000
4.26500 268.000
4.28000 271.000
4.29500 265.000
4.31000 271.000
4.32500 277.000
4.34000 296.000
4.35500 298.000
4.37000 266.000
4.38500 272.000
4.40000 295.000
4.41500 312.000
4.43000 313.000
4.44500 283.000
4.46000 311.000
4.47500 308.000
4.49000 275.000
4.50500 265.000
4.52000 246.000
4.53500 271.000
4.55000 273.000
4.56500 272.000
4.58000 301.000
4.59500 268.000
4.61000 298.000
4.62500 323.000
4.64000 307.000
4.65500 284.000
4.67000 315.000
4.68500 309.000
4.70000 276.000
4.71500 273.000
4.73000 285.000
4.74500 303.000
4.76000 282.000
4.77500 321.000
4.79000 303.000
4.80500 313.000
4.82000 306.000
4.83500 304.000
4.85000 302.000
4.86500 327.000
4.88000 295.000
4.89500 279.000
4.91000 294.000
4.92500 294.000
4.94000 288.000
4.95500 304.000
4.97000 295.000
4.98500 305.000
5.00000 302.000
5.01500 295.000
5.03000 281.000
5.04500 298.000
5.06000 330.000
5.07500 324.000
5.09000 331.000
5.10500 292.000
5.12000 316.000
5.13500 299.000
5.15000 321.000
5.16500 301.000
5.18000 305.000
5.19500 318.000
5.21000 309.000
5.22500 331.000
5.24000 304.000
5.25500 325.000
5.27000 315.000
5.28500 325.000
5.30000 296.000
5.31500 298.000
5.33000 302.000
5.34500 314.000
5.36000 296.000
5.37500 323.000
5.39000 311.000
5.40500 317.000
5.42000 336.000
5.43500 343.000
5.45000 313.000
5.46500 324.000
5.48000 343.000
5.49500 349.000
5.51000 308.000
5.52500 324.000
5.54000 310.000
5.55500 333.000
5.57000 360.000
5.58500 356.000
5.60000 328.000
5.61500 318.000
5.63000 343.000
5.64500 351.000
5.66000 336.000
5.67500 369.000
5.69000 365.000
5.70500 326.000
5.72000 340.000
5.73500 378.000
5.75000 340.000
5.76500 373.000
5.78000 368.000
5.79500 393.000
5.81000 394.000
5.82500 388.000
5.84000 431.000
5.85500 389.000
5.87000 394.000
5.88500 449.000
5.90000 471.000
5.91500 437.000
5.93000 458.000
5.94500 485.000
5.96000 497.000
5.97500 525.000
5.99000 534.000
6.00500 548.000
6.02000 586.000
6.03500 612.000
6.05000 637.000
6.06500 631.000
6.08000 696.000
6.09500 702.000
6.11000 773.000
6.12500 779.000
6.14000 860.000
6.15500 923.000
6.17000 937.000
6.18500 988.000
6.20000 1108.000
6.21500 1283.000
6.23000 1356.000
6.24500 1107.000
6.26000 802.000
6.27500 637.000
6.29000 538.000
6.30500 536.000
6.32000 480.000
6.33500 469.000
6.35000 448.000
6.36500 448.000
6.38000 477.000
6.39500 444.000
6.41000 419.000
6.42500 382.000
6.44000 391.000
6.45500 402.000
6.47000 405.000
6.48500 392.000
6.50000 370.000
6.51500 399.000
6.53000 401.000
6.54500 413.000
6.56000 369.000
6.57500 353.000
6.59000 375.000
6.60500 358.000
6.62000 359.000
6.63500 353.000
6.65000 352.000
6.66500 336.000
6.68000 369.000
6.69500 350.000
6.71000 337.000
6.72500 352.000
6.74000 346.000
6.75500 350.000
6.77000 365.000
6.78500 343.000
6.80000 334.000
6.81500 341.000
6.83000 344.000
6.84500 372.000
6.86000 364.000
6.87500 392.000
6.89000 362.000
6.90500 338.000
6.92000 358.000
6.93500 363.000
6.95000 360.000
6.96500 366.000
6.98000 346.000
6.99500 336.000
7.01000 356.000
7.02500 362.000
7.04000 346.000
7.05500 345.000
7.07000 365.000
7.08500 358.000
7.10000 355.000
7.11500 375.000
7.13000 360.000
7.14500 339.000
7.16000 358.000
7.17500 365.000
7.19000 380.000
7.20500 377.000
7.22000 355.000
7.23500 346.000
7.25000 343.000
7.26500 347.000
7.28000 374.000
7.29500 379.000
7.31000 374.000
7.32500 369.000
7.34000 355.000
7.35500 384.000
7.37000 349.000
7.38500 330.000
7.40000 330.000
7.41500 341.000
7.43000 354.000
7.44500 354.000
7.46000 360.000
7.47500 375.000
7.49000 381.000
7.50500 349.000
7.52000 372.000
7.53500 364.000
7.55000 359.000
7.56500 368.000
7.58000 367.000
7.59500 363.000
7.61000 347.000
7.62500 377.000
7.64000 364.000
7.65500 398.000
7.67000 370.000
7.68500 386.000
7.70000 373.000
7.71500 374.000
7.73000 390.000
7.74500 362.000
7.76000 367.000
7.77500 402.000
7.79000 372.000
7.80500 332.000
7.82000 385.000
7.83500 388.000
7.85000 350.000
7.86500 372.000
7.88000 337.000
7.89500 353.000
7.91000 370.000
7.92500 372.000
7.94000 374.000
7.95500 382.000
7.97000 363.000
7.98500 367.000
8.00000 353.000
8.01500 374.000
8.03000 404.000
8.04500 382.000
8.06000 367.000
8.07500 350.000
8.09000 394.000
8.10500 398.000
8.12000 399.000
8.13500 358.000
8.15000 379.000
8.16500 367.000
8.18000 365.000
8.19500 380.000
8.21000 374.000
8.22500 379.000
8.24000 365.000
8.25500 370.000
8.27000 388.000
8.28500 419.000
8.30000 391.000
8.31500 400.000
8.33000 391.000
8.34500 413.000
8.36000 426.000
8.37500 416.000
8.39000 396.000
8.40500 371.000
8.42000 382.000
8.43500 404.000
8.45000 419.000
8.46500 397.000
8.48000 417.000
8.49500 408.000
8.51000 431.000
8.52500 439.000
8.54000 448.000
8.55500 419.000
8.57000 435.000
8.58500 419.000
8.60000 432.000
8.61500 418.000
8.63000 408.000
8.64500 413.000
8.66000 440.000
8.67500 434.000
8.69000 421.000
8.70500 416.000
8.72000 459.000
8.73500 452.000
8.75000 451.000
8.76500 437.000
8.78000 424.000
8.79500 457.000
8.81000 447.000
8.82500 452.000
8.84000 441.000
8.85500 456.000
8.87000 486.000
8.88500 464.000
8.90000 462.000
8.91500 486.000
8.93000 500.000
8.94500 484.000
8.96000 481.000
8.97500 443.000
8.99000 416.000
9.00500 430.000
9.02000 442.000
9.03500 408.000
9.05000 381.000
9.06500 400.000
9.08000 417.000
9.09500 449.000
9.11000 425.000
9.12500 381.000
9.14000 383.000
9.15500 416.000
9.17000 418.000
9.18500 390.000
9.20000 416.000
9.21500 433.000
9.23000 423.000
9.24500 404.000
9.26000 419.000
9.27500 435.000
9.29000 412.000
9.30500 407.000
9.32000 421.000
9.33500 401.000
9.35000 414.000
9.36500 413.000
9.38000 393.000
9.39500 382.000
9.41000 400.000
9.42500 435.000
9.44000 441.000
9.45500 445.000
9.47000 424.000
9.48500 449.000
9.50000 412.000
9.51500 400.000
9.53000 396.000
9.54500 405.000
9.56000 397.000
9.57500 404.000
9.59000 447.000
9.60500 421.000
9.62000 396.000
9.63500 426.000
9.65000 401.000
9.66500 446.000
9.68000 439.000
9.69500 407.000
9.71000 433.000
9.72500 447.000
9.74000 433.000
9.75500 434.000
9.77000 421.000
9.78500 434.000
9.80000 458.000
9.81500 480.000
9.83000 466.000
9.84500 475.000
9.86000 466.000
9.87500 496.000
9.89000 499.000
9.90500 516.000
9.92000 520.000
9.93500 468.000
9.95000 483.000
9.96500 507.000
9.98000 506.000
9.99500 562.000
10.01000 567.000
10.02500 552.000
10.04000 572.000
10.05500 566.000
10.07000 546.000
10.08500 578.000
10.10000 584.000
10.11500 582.000
10.13000 566.000
10.14500 637.000
10.16000 664.000
10.17500 654.000
10.19000 662.000
10.20500 701.000
10.22000 755.000
10.23500 760.000
10.25000 761.000
10.26500 787.000
10.28000 866.000
10.29500 875.000
10.31000 906.000
10.32500 1017.000
10.34000 1137.000
10.35500 1192.000
10.37000 1250.000
10.38500 1406.000
10.40000 1605.000
10.41500 1833.000
10.43000 2201.000
10.44500 2495.000
10.46000 2168.000
10.47500 1632.000
10.49000 1177.000
10.50500 950.000
10.52000 874.000
10.53500 851.000
10.55000 853.000
10.56500 884.000
10.58000 938.000
10.59500 1069.000
10.61000 1068.000
10.62500 1033.000
10.64000 993.000
10.65500 970.000
10.67000 921.000
10.68500 887.000
10.70000 866.000
10.71500 834.000
10.73000 879.000
10.74500 875.000
10.76000 843.000
10.77500 849.000
10.79000 863.000
10.80500 955.000
10.82000 941.000
10.83500 1042.000
10.85000 1044.000
10.86500 1070.000
10.88000 1180.000
10.89500 1155.000
10.91000 1238.000
10.92500 1294.000
10.94000 1349.000
10.95500 1406.000
10.97000 1532.000
10.98500 1508.000
11.00000 1530.000
11.01500 1475.000
11.03000 1388.000
11.04500 1342.000
11.06000 1207.000
11.07500 1095.000
11.09000 976.000
11.10500 858.000
11.12000 820.000
11.13500 812.000
11.15000 746.000
11.16500 687.000
11.18000 666.000
11.19500 590.000
11.21000 614.000
11.22500 597.000
11.24000 564.000
11.25500 575.000
11.27000 527.000
11.28500 510.000
11.30000 521.000
11.31500 520.000
11.33000 508.000
11.34500 518.000
11.36000 505.000
11.37500 463.000
11.39000 499.000
11.40500 493.000
11.42000 503.000
11.43500 511.000
11.45000 475.000
11.46500 438.000
11.48000 462.000
11.49500 460.000
11.51000 459.000
11.52500 447.000
11.54000 458.000
11.55500 448.000
11.57000 440.000
11.58500 459.000
11.60000 481.000
11.61500 459.000
11.63000 473.000
11.64500 431.000
11.66000 434.000
11.67500 444.000
11.69000 455.000
11.70500 452.000
11.72000 414.000
11.73500 411.000
11.75000 476.000
11.76500 452.000
11.78000 421.000
11.79500 428.000
11.81000 427.000
11.82500 458.000
11.84000 437.000
11.85500 435.000
11.87000 413.000
11.88500 433.000
11.90000 453.000
11.91500 450.000
11.93000 432.000
11.94500 450.000
11.96000 442.000
11.97500 404.000
11.99000 422.000
12.00500 413.000
12.02000 421.000
12.03500 418.000
12.05000 418.000
12.06500 459.000
12.08000 414.000
12.09500 431.000
12.11000 419.000
12.12500 420.000
12.14000 404.000
12.15500 445.000
12.17000 421.000
12.18500 457.000
12.20000 464.000
12.21500 501.000
12.23000 488.000
12.24500 484.000
12.26000 533.000
12.27500 506.000
12.29000 534.000
12.30500 540.000
12.32000 482.000
12.33500 503.000
12.35000 486.000
12.36500 498.000
12.38000 509.000
12.39500 480.000
12.41000 521.000
12.42500 542.000
12.44000 557.000
12.45500 576.000
12.47000 598.000
12.48500 645.000
12.50000 607.000
12.51500 719.000
12.53000 735.000
12.54500 855.000
12.56000 911.000
12.57500 881.000
12.59000 740.000
12.60500 539.000
12.62000 464.000
12.63500 467.000
12.65000 443.000
12.66500 431.000
12.68000 443.000
12.69500 443.000
12.71000 419.000
12.72500 416.000
12.74000 404.000
12.75500 428.000
12.77000 424.000
12.78500 394.000
12.80000 394.000
12.81500 416.000
12.83000 404.000
12.84500 413.000
12.86000 429.000
12.87500 421.000
12.89000 439.000
12.90500 411.000
12.92000 432.000
12.93500 412.000
12.95000 384.000
12.96500 393.000
12.98000 413.000
12.99500 391.000
13.01000 419.000
13.02500 398.000
13.04000 420.000
13.05500 453.000
13.07000 411.000
13.08500 433.000
13.10000 433.000
13.11500 425.000
13.13000 382.000
13.14500 421.000
13.16000 459.000
13.17500 438.000
13.19000 406.000
13.20500 384.000
13.22000 406.000
13.23500 400.000
13.25000 399.000
13.26500 400.000
13.28000 416.000
13.29500 432.000
13.31000 400.000
13.32500 419.000
13.34000 408.000
13.35500 412.000
13.37000 406.000
13.38500 436.000
13.40000 435.000
13.41500 430.000
13.43000 420.000
13.44500 412.000
13.46000 435.000
13.47500 425.000
13.49000 391.000
13.50500 426.000
13.52000 421.000
13.53500 415.000
13.55000 430.000
13.56500 416.000
13.58000 414.000
13.59500 426.000
13.61000 421.000
13.62500 388.000
13.64000 403.000
13.65500 421.000
13.67000 396.000
13.68500 408.000
13.70000 415.000
13.71500 426.000
13.73000 397.000
13.74500 406.000
13.76000 410.000
13.77500 439.000
13.79000 450.000
13.80500 418.000
13.82000 410.000
13.83500 452.000
13.85000 445.000
13.86500 431.000
13.88000 435.000
13.89500 420.000
13.91000 395.000
13.92500 378.000
13.94000 419.000
13.95500 433.000
13.97000 430.000
13.98500 431.000
14.00000 406.000
14.01500 401.000
14.03000 400.000
14.04500 417.000
14.06000 428.000
14.07500 442.000
14.09000 419.000
14.10500 422.000
14.12000 436.000
14.13500 466.000
14.15000 402.000
14.16500 412.000
14.18000 431.000
14.19500 417.000
14.21000 398.000
14.22500 423.000
14.24000 448.000
14.25500 436.000
14.27000 438.000
14.28500 415.000
14.30000 398.000
14.31500 421.000
14.33000 424.000
14.34500 397.000
14.36000 409.000
14.37500 416.000
14.39000 416.000
14.40500 411.000
14.42000 414.000
14.43500 440.000
14.45000 426.000
14.46500 432.000
14.48000 441.000
14.49500 387.000
14.51000 391.000
14.52500 447.000
14.54000 423.000
14.55500 433.000
14.57000 418.000
14.58500 392.000
14.60000 422.000
14.61500 442.000
14.63000 465.000
14.64500 433.000
14.66000 439.000
14.67500 408.000
14.69000 441.000
14.70500 422.000
14.72000 408.000
14.73500 447.000
14.75000 414.000
14.76500 426.000
14.78000 405.000
14.79500 434.000
14.81000 438.000
14.82500 424.000
14.84000 461.000
14.85500 459.000
14.87000 453.000
14.88500 447.000
14.90000 479.000
14.91500 462.000
14.93000 425.000
14.94500 460.000
14.96000 493.000
14.97500 519.000
14.99000 528.000
15.00500 577.000
15.02000 635.000
15.03500 635.000
15.05000 640.000
15.06500 626.000
15.08000 571.000
15.09500 475.000
15.11000 461.000
15.12500 455.000
15.14000 428.000
15.15500 442.000
15.17000 431.000
15.18500 438.000
15.20000 417.000
15.21500 423.000
15.23000 438.000
15.24500 414.000
15.26000 440.000
15.27500 427.000
15.29000 422.000
15.30500 441.000
15.32000 453.000
15.33500 435.000
15.35000 457.000
15.36500 441.000
15.38000 422.000
15.39500 439.000
15.41000 413.000
15.42500 407.000
15.44000 438.000
15.45500 464.000
15.47000 436.000
15.48500 422.000
15.50000 435.000
15.51500 430.000
15.53000 448.000
15.54500 439.000
15.56000 389.000
15.57500 429.000
15.59000 404.000
15.60500 429.000
15.62000 399.000
15.63500 453.000
15.65000 410.000
15.66500 422.000
15.68000 444.000
15.69500 460.000
15.71000 452.000
15.72500 410.000
15.74000 423.000
15.75500 423.000
15.77000 440.000
15.78500 424.000
15.80000 443.000
15.81500 462.000
15.83000 397.000
15.84500 435.000
15.86000 406.000
15.87500 416.000
15.89000 452.000
15.90500 431.000
15.92000 407.000
15.93500 400.000
15.95000 412.000
15.96500 402.000
15.98000 447.000
15.99500 423.000
16.01000 431.000
16.02500 440.000
16.04000 407.000
16.05500 419.000
16.07000 427.000
16.08500 428.000
16.10000 429.000
16.11500 433.000
16.13000 452.000
16.14500 434.000
16.16000 410.000
16.17500 428.000
16.19000 424.000
16.20500 417.000
16.22000 435.000
16.23500 424.000
16.25000 416.000
16.26500 443.000
16.28000 462.000
16.29500 427.000
16.31000 431.000
16.32500 429.000
16.34000 444.000
16.35500 448.000
16.37000 437.000
16.38500 458.000
16.40000 485.000
16.41500 441.000
16.43000 429.000
16.44500 419.000
16.46000 408.000
16.47500 438.000
16.49000 456.000
16.50500 453.000
16.52000 450.000
16.53500 444.000
16.55000 436.000
16.56500 442.000
16.58000 449.000
16.59500 434.000
16.61000 445.000
16.62500 451.000
16.64000 420.000
16.65500 445.000
16.67000 469.000
16.68500 441.000
16.70000 450.000
16.71500 416.000
16.73000 471.000
16.74500 435.000
16.76000 452.000
16.77500 470.000
16.79000 452.000
16.80500 464.000
16.82000 487.000
16.83500 463.000
16.85000 460.000
16.86500 478.000
16.88000 441.000
16.89500 449.000
16.91000 474.000
16.92500 440.000
16.94000 438.000
16.95500 446.000
16.97000 435.000
16.98500 463.000
17.00000 433.000
17.01500 468.000
17.03000 456.000
17.04500 445.000
17.06000 453.000
17.07500 441.000
17.09000 475.000
17.10500 480.000
17.12000 466.000
17.13500 446.000
17.15000 465.000
17.16500 468.000
17.18000 514.000
17.19500 479.000
17.21000 471.000
17.22500 493.000
17.24000 450.000
17.25500 504.000
17.27000 491.000
17.28500 518.000
17.30000 467.000
17.31500 479.000
17.33000 504.000
17.34500 502.000
17.36000 490.000
17.37500 499.000
17.39000 498.000
17.40500 516.000
17.42000 560.000
17.43500 539.000
17.45000 509.000
17.46500 522.000
17.48000 532.000
17.49500 548.000
17.51000 562.000
17.52500 553.000
17.54000 537.000
17.55500 554.000
17.57000 562.000
17.58500 514.000
17.60000 540.000
17.61500 528.000
17.63000 524.000
17.64500 536.000
17.66000 487.000
17.67500 546.000
17.69000 506.000
17.70500 527.000
17.72000 543.000
17.73500 522.000
17.75000 513.000
17.76500 510.000
17.78000 516.000
17.79500 500.000
17.81000 513.000
17.82500 517.000
17.84000 530.000
17.85500 537.000
17.87000 565.000
17.88500 553.000
17.90000 571.000
17.91500 631.000
17.93000 692.000
17.94500 689.000
17.96000 637.000
17.97500 580.000
17.99000 538.000
18.00500 478.000
18.02000 499.000
18.03500 501.000
18.05000 477.000
18.06500 471.000
18.08000 469.000
18.09500 473.000
18.11000 495.000
18.12500 475.000
18.14000 497.000
18.15500 488.000
18.17000 505.000
18.18500 485.000
18.20000 479.000
18.21500 473.000
18.23000 494.000
18.24500 458.000
18.26000 480.000
18.27500 485.000
18.29000 473.000
18.30500 475.000
18.32000 500.000
18.33500 525.000
18.35000 498.000
18.36500 464.000
18.38000 471.000
18.39500 477.000
18.41000 493.000
18.42500 516.000
18.44000 521.000
18.45500 510.000
18.47000 510.000
18.48500 515.000
18.50000 504.000
18.51500 510.000
18.53000 537.000
18.54500 510.000
18.56000 540.000
18.57500 544.000
18.59000 597.000
18.60500 636.000
18.62000 590.000
18.63500 623.000
18.65000 655.000
18.66500 687.000
18.68000 741.000
18.69500 786.000
18.71000 915.000
18.72500 1075.000
18.74000 1206.000
18.75500 1273.000
18.77000 1122.000
18.78500 901.000
18.80000 766.000
18.81500 696.000
18.83000 651.000
18.84500 640.000
18.86000 616.000
18.87500 622.000
18.89000 612.000
18.90500 614.000
18.92000 597.000
18.93500 598.000
18.95000 589.000
18.96500 631.000
18.98000 598.000
18.99500 624.000
19.01000 622.000
19.02500 631.000
19.04000 622.000
19.05500 620.000
19.07000 607.000
19.08500 634.000
19.10000 654.000
19.11500 672.000
19.13000 672.000
19.14500 731.000
19.16000 762.000
19.17500 802.000
19.19000 895.000
19.20500 1019.000
19.22000 1163.000
19.23500 1329.000
19.25000 1628.000
19.26500 1728.000
19.28000 1480.000
19.29500 1165.000
19.31000 892.000
19.32500 690.000
19.34000 602.000
19.35500 537.000
19.37000 540.000
19.38500 525.000
19.40000 514.000
19.41500 511.000
19.43000 499.000
19.44500 500.000
19.46000 513.000
19.47500 486.000
19.49000 491.000
19.50500 487.000
19.52000 502.000
19.53500 474.000
19.55000 504.000
19.56500 494.000
19.58000 472.000
19.59500 447.000
19.61000 473.000
19.62500 513.000
19.64000 467.000
19.65500 509.000
19.67000 495.000
19.68500 444.000
19.70000 454.000
19.71500 438.000
19.73000 445.000
19.74500 486.000
19.76000 471.000
19.77500 456.000
19.79000 471.000
19.80500 490.000
19.82000 461.000
19.83500 470.000
19.85000 471.000
19.86500 463.000
19.88000 471.000
19.89500 484.000
19.91000 476.000
19.92500 495.000
19.94000 470.000
19.95500 476.000
19.97000 445.000
19.98500 457.000
20.00000 486.000
20.01500 494.000
20.03000 470.000
20.04500 503.000
20.06000 456.000
20.07500 447.000
20.09000 471.000
20.10500 456.000
20.12000 478.000
20.13500 474.000
20.15000 456.000
20.16500 456.000
20.18000 469.000
20.19500 460.000
20.21000 481.000
20.22500 477.000
20.24000 440.000
20.25500 465.000
20.27000 485.000
20.28500 464.000
20.30000 471.000
20.31500 480.000
20.33000 470.000
20.34500 447.000
20.36000 452.000
20.37500 460.000
20.39000 458.000
20.40500 464.000
20.42000 444.000
20.43500 493.000
20.45000 483.000
20.46500 468.000
20.48000 471.000
20.49500 473.000
20.51000 517.000
20.52500 512.000
20.54000 473.000
20.55500 465.000
20.57000 464.000
20.58500 480.000
20.60000 484.000
20.61500 472.000
20.63000 495.000
20.64500 469.000
20.66000 462.000
20.67500 471.000
20.69000 477.000
20.70500 489.000
20.72000 508.000
20.73500 489.000
20.75000 491.000
20.76500 483.000
20.78000 465.000
20.79500 480.000
20.81000 512.000
20.82500 519.000
20.84000 530.000
20.85500 473.000
20.87000 485.000
20.88500 535.000
20.90000 542.000
20.91500 518.000
20.93000 557.000
20.94500 569.000
20.96000 620.000
20.97500 620.000
20.99000 658.000
21.00500 611.000
21.02000 559.000
21.03500 567.000
21.05000 520.000
21.06500 546.000
21.08000 548.000
21.09500 544.000
21.11000 543.000
21.12500 524.000
21.14000 493.000
21.15500 534.000
21.17000 518.000
21.18500 491.000
21.20000 503.000
21.21500 528.000
21.23000 518.000
21.24500 522.000
21.26000 504.000
21.27500 531.000
21.29000 512.000
21.30500 518.000
21.32000 539.000
21.33500 511.000
21.35000 510.000
21.36500 495.000
21.38000 522.000
21.39500 494.000
21.41000 508.000
21.42500 552.000
21.44000 528.000
21.45500 504.000
21.47000 483.000
21.48500 490.000
21.50000 485.000
21.51500 484.000
21.53000 483.000
21.54500 487.000
21.56000 480.000
21.57500 484.000
21.59000 493.000
21.60500 477.000
21.62000 480.000
21.63500 491.000
21.65000 459.000
21.66500 480.000
21.68000 499.000
21.69500 478.000
21.71000 515.000
21.72500 528.000
21.74000 452.000
21.75500 456.000
21.77000 436.000
21.78500 471.000
21.80000 477.000
21.81500 480.000
21.83000 454.000
21.84500 480.000
21.86000 466.000
21.87500 458.000
21.89000 454.000
21.90500 465.000
21.92000 461.000
21.93500 469.000
21.95000 421.000
21.96500 462.000
21.98000 447.000
21.99500 510.000
22.01000 505.000
22.02500 545.000
22.04000 497.000
22.05500 481.000
22.07000 478.000
22.08500 464.000
22.10000 467.000
22.11500 497.000
22.13000 491.000
22.14500 465.000
22.16000 486.000
22.17500 493.000
22.19000 465.000
22.20500 460.000
22.22000 493.000
22.23500 469.000
22.25000 456.000
22.26500 516.000
22.28000 494.000
22.29500 473.000
22.31000 474.000
22.32500 471.000
22.34000 468.000
22.35500 494.000
22.37000 496.000
22.38500 488.000
22.40000 439.000
22.41500 441.000
22.43000 474.000
22.44500 486.000
22.46000 497.000
22.47500 503.000
22.49000 481.000
22.50500 481.000
22.52000 474.000
22.53500 506.000
22.55000 499.000
22.56500 474.000
22.58000 452.000
22.59500 475.000
22.61000 465.000
22.62500 482.000
22.64000 484.000
22.65500 535.000
22.67000 505.000
22.68500 508.000
22.70000 462.000
22.71500 492.000
22.73000 510.000
22.74500 516.000
22.76000 496.000
22.77500 507.000
22.79000 523.000
22.80500 503.000
22.82000 522.000
22.83500 539.000
22.85000 551.000
22.86500 488.000
22.88000 507.000
22.89500 502.000
22.91000 499.000
22.92500 516.000
22.94000 509.000
22.95500 496.000
22.97000 509.000
22.98500 523.000
23.00000 508.000
23.01500 519.000
23.03000 523.000
23.04500 469.000
23.06000 494.000
23.07500 504.000
23.09000 520.000
23.10500 490.000
23.12000 486.000
23.13500 476.000
23.15000 462.000
23.16500 505.000
23.18000 500.000
23.19500 481.000
23.21000 497.000
23.22500 489.000
23.24000 475.000
23.25500 533.000
23.27000 511.000
23.28500 496.000
23.30000 505.000
23.31500 520.000
23.33000 491.000
23.34500 491.000
23.36000 495.000
23.37500 456.000
23.39000 486.000
23.40500 493.000
23.42000 514.000
23.43500 524.000
23.45000 518.000
23.46500 481.000
23.48000 491.000
23.49500 512.000
23.51000 547.000
23.52500 502.000
23.54000 533.000
23.55500 497.000
23.57000 486.000
23.58500 489.000
23.60000 477.000
23.61500 507.000
23.63000 509.000
23.64500 459.000
23.66000 529.000
23.67500 529.000
23.69000 515.000
23.70500 494.000
23.72000 486.000
23.73500 473.000
23.75000 488.000
23.76500 527.000
23.78000 535.000
23.79500 526.000
23.81000 512.000
23.82500 510.000
23.84000 478.000
23.85500 504.000
23.87000 504.000
23.88500 507.000
23.90000 516.000
23.91500 534.000
23.93000 506.000
23.94500 523.000
23.96000 512.000
23.97500 508.000
23.99000 533.000
24.00500 525.000
24.02000 512.000
24.03500 510.000
24.05000 529.000
24.06500 531.000
24.08000 532.000
24.09500 496.000
24.11000 506.000
24.12500 551.000
24.14000 523.000
24.15500 513.000
24.17000 533.000
24.18500 545.000
24.20000 542.000
24.21500 537.000
24.23000 562.000
24.24500 551.000
24.26000 560.000
24.27500 538.000
24.29000 587.000
24.30500 571.000
24.32000 646.000
24.33500 684.000
24.35000 674.000
24.36500 677.000
24.38000 735.000
24.39500 776.000
24.41000 767.000
24.42500 765.000
24.44000 817.000
24.45500 846.000
24.47000 958.000
24.48500 1030.000
24.50000 1103.000
24.51500 1165.000
24.53000 1116.000
24.54500 998.000
24.56000 876.000
24.57500 795.000
24.59000 704.000
24.60500 641.000
24.62000 609.000
24.63500 621.000
24.65000 632.000
24.66500 633.000
24.68000 602.000
24.69500 610.000
24.71000 609.000
24.72500 580.000
24.74000 593.000
24.75500 562.000
24.77000 557.000
24.78500 592.000
24.80000 596.000
24.81500 584.000
24.83000 605.000
24.84500 627.000
24.86000 609.000
24.87500 592.000
24.89000 617.000
24.90500 640.000
24.92000 631.000
24.93500 646.000
24.95000 624.000
24.96500 638.000
24.98000 671.000
24.99500 692.000
25.01000 714.000
25.02500 713.000
25.04000 776.000
25.05500 827.000
25.07000 879.000
25.08500 918.000
25.10000 907.000
25.11500 859.000
25.13000 779.000
25.14500 754.000
25.16000 752.000
25.17500 731.000
25.19000 683.000
25.20500 703.000
25.22000 740.000
25.23500 722.000
25.25000 778.000
25.26500 782.000
25.28000 814.000
25.29500 786.000
25.31000 780.000
25.32500 762.000
25.34000 800.000
25.35500 796.000
25.37000 792.000
25.38500 803.000
25.40000 805.000
25.41500 821.000
25.43000 890.000
25.44500 895.000
25.46000 965.000
25.47500 965.000
25.49000 1004.000
25.50500 1034.000
25.52000 1159.000
25.53500 1168.000
25.55000 1123.000
25.56500 1039.000
25.58000 962.000
25.59500 989.000
25.61000 1038.000
25.62500 971.000
25.64000 937.000
25.65500 1016.000
25.67000 1098.000
25.68500 1083.000
25.70000 1042.000
25.71500 1010.000
25.73000 996.000
25.74500 1001.000
25.76000 1105.000
25.77500 1131.000
25.79000 1170.000
25.80500 1188.000
25.82000 1156.000
25.83500 1041.000
25.85000 945.000
25.86500 875.000
25.88000 846.000
25.89500 842.000
25.91000 816.000
25.92500 786.000
25.94000 775.000
25.95500 764.000
25.97000 793.000
25.98500 795.000
26.00000 820.000
26.01500 776.000
26.03000 788.000
26.04500 797.000
26.06000 906.000
26.07500 965.000
26.09000 1038.000
26.10500 1146.000
26.12000 1068.000
26.13500 1010.000
26.15000 889.000
26.16500 805.000
26.18000 765.000
26.19500 752.000
26.21000 763.000
26.22500 727.000
26.24000 752.000
26.25500 710.000
26.27000 711.000
26.28500 737.000
26.30000 740.000
26.31500 765.000
26.33000 749.000
26.34500 732.000
26.36000 733.000
26.37500 808.000
26.39000 820.000
26.40500 822.000
26.42000 849.000
26.43500 938.000
26.45000 999.000
26.46500 1061.000
26.48000 1240.000
26.49500 1331.000
26.51000 1491.000
26.52500 1449.000
26.54000 1492.000
26.55500 1648.000
26.57000 1748.000
26.58500 1885.000
26.60000 1852.000
26.61500 1760.000
26.63000 1532.000
26.64500 1333.000
26.66000 1122.000
26.67500 1004.000
26.69000 948.000
26.70500 831.000
26.72000 820.000
26.73500 789.000
26.75000 803.000
26.76500 751.000
26.78000 757.000
26.79500 762.000
26.81000 712.000
26.82500 682.000
26.84000 756.000
26.85500 749.000
26.87000 710.000
26.88500 719.000
26.90000 728.000
26.91500 703.000
26.93000 698.000
26.94500 698.000
26.96000 714.000
26.97500 691.000
26.99000 672.000
27.00500 673.000
27.02000 664.000
27.03500 721.000
27.05000 712.000
27.06500 696.000
27.08000 695.000
27.09500 698.000
27.11000 689.000
27.12500 671.000
27.14000 669.000
27.15500 727.000
27.17000 712.000
27.18500 741.000
27.20000 726.000
27.21500 732.000
27.23000 735.000
27.24500 765.000
27.26000 748.000
27.27500 757.000
27.29000 743.000
27.30500 760.000
27.32000 773.000
27.33500 829.000
27.35000 827.000
27.36500 786.000
27.38000 807.000
27.39500 794.000
27.41000 808.000
27.42500 873.000
27.44000 940.000
27.45500 953.000
27.47000 1013.000
27.48500 1124.000
27.50000 1178.000
27.51500 1293.000
27.53000 1433.000
27.54500 1548.000
27.56000 1724.000
27.57500 1843.000
27.59000 1993.000
27.60500 1896.000
27.62000 1765.000
27.63500 1666.000
27.65000 1558.000
27.66500 1403.000
27.68000 1321.000
27.69500 1348.000
27.71000 1368.000
27.72500 1412.000
27.74000 1369.000
27.75500 1451.000
27.77000 1416.000
27.78500 1324.000
27.80000 1245.000
27.81500 1200.000
27.83000 1206.000
27.84500 1284.000
27.86000 1300.000
27.87500 1348.000
27.89000 1362.000
27.90500 1392.000
27.92000 1455.000
27.93500 1491.000
27.95000 1509.000
27.96500 1591.000
27.98000 1680.000
27.99500 1785.000
28.01000 1877.000
28.02500 1958.000
28.04000 1991.000
28.05500 2112.000
28.07000 2250.000
28.08500 2304.000
28.10000 2334.000
28.11500 2296.000
28.13000 2218.000
28.14500 2068.000
28.16000 2060.000
28.17500 1863.000
28.19000 1760.000
28.20500 1685.000
28.22000 1646.000
28.23500 1619.000
28.25000 1630.000
28.26500 1669.000
28.28000 1744.000
28.29500 1876.000
28.31000 2018.000
28.32500 2150.000
28.34000 2233.000
28.35500 2113.000
28.37000 1864.000
28.38500 1557.000
28.40000 1370.000
28.41500 1166.000
28.43000 1050.000
28.44500 986.000
28.46000 914.000
28.47500 881.000
28.49000 854.000
28.50500 812.000
28.52000 813.000
28.53500 771.000
28.55000 781.000
28.56500 826.000
28.58000 766.000
28.59500 725.000
28.61000 761.000
28.62500 715.000
28.64000 741.000
28.65500 732.000
28.67000 669.000
28.68500 619.000
28.70000 661.000
28.71500 655.000
28.73000 621.000
28.74500 615.000
28.76000 590.000
28.77500 578.000
28.79000 565.000
28.80500 565.000
28.82000 558.000
28.83500 580.000
28.85000 586.000
28.86500 594.000
28.88000 560.000
28.89500 578.000
28.91000 558.000
28.92500 584.000
28.94000 574.000
28.95500 588.000
28.97000 588.000
28.98500 538.000
29.00000 594.000
29.01500 578.000
29.03000 553.000
29.04500 561.000
29.06000 557.000
29.07500 542.000
29.09000 559.000
29.10500 530.000
29.12000 514.000
29.13500 547.000
29.15000 547.000
29.16500 535.000
29.18000 520.000
29.19500 564.000
29.21000 550.000
29.22500 574.000
29.24000 557.000
29.25500 553.000
29.27000 529.000
29.28500 539.000
29.30000 550.000
29.31500 533.000
29.33000 545.000
29.34500 523.000
29.36000 494.000
29.37500 508.000
29.39000 544.000
29.40500 561.000
29.42000 535.000
29.43500 510.000
29.45000 508.000
29.46500 541.000
29.48000 530.000
29.49500 518.000
29.51000 582.000
29.52500 608.000
29.54000 615.000
29.55500 646.000
29.57000 649.000
29.58500 635.000
29.60000 620.000
29.61500 642.000
29.63000 638.000
29.64500 622.000
29.66000 626.000
29.67500 598.000
29.69000 581.000
29.70500 534.000
29.72000 520.000
29.73500 551.000
29.75000 535.000
29.76500 536.000
29.78000 527.000
29.79500 548.000
29.81000 549.000
29.82500 580.000
29.84000 587.000
29.85500 627.000
29.87000 582.000
29.88500 569.000
29.90000 556.000
29.91500 524.000
29.93000 511.000
29.94500 491.000
29.96000 502.000
29.97500 502.000
29.99000 537.000
30.00500 507.000
30.02000 481.000
30.03500 499.000
30.05000 516.000
30.06500 512.000
30.08000 512.000
30.09500 514.000
30.11000 486.000
30.12500 549.000
30.14000 540.000
30.15500 518.000
30.17000 551.000
30.18500 544.000
30.20000 576.000
30.21500 546.000
30.23000 576.000
30.24500 566.000
30.26000 545.000
30.27500 584.000
30.29000 600.000
30.30500 628.000
30.32000 705.000
30.33500 694.000
30.35000 786.000
30.36500 799.000
30.38000 958.000
30.39500 1067.000
30.41000 1166.000
30.42500 1288.000
30.44000 1351.000
30.45500 1284.000
30.47000 1176.000
30.48500 1044.000
30.50000 932.000
30.51500 836.000
30.53000 784.000
30.54500 717.000
30.56000 669.000
30.57500 631.000
30.59000 573.000
30.60500 536.000
30.62000 521.000
30.63500 508.000
30.65000 495.000
30.66500 506.000
30.68000 478.000
30.69500 452.000
30.71000 462.000
30.72500 482.000
30.74000 441.000
30.75500 447.000
30.77000 469.000
30.78500 480.000
30.80000 462.000
30.81500 450.000
30.83000 448.000
30.84500 466.000
30.86000 442.000
30.87500 442.000
30.89000 484.000
30.90500 524.000
30.92000 514.000
30.93500 499.000
30.95000 514.000
30.96500 489.000
30.98000 516.000
30.99500 495.000
31.01000 498.000
31.02500 476.000
31.04000 443.000
31.05500 456.000
31.07000 460.000
31.08500 437.000
31.10000 437.000
31.11500 424.000
31.13000 432.000
31.14500 425.000
31.16000 421.000
31.17500 433.000
31.19000 388.000
31.20500 399.000
31.22000 443.000
31.23500 424.000
31.25000 399.000
31.26500 416.000
31.28000 435.000
31.29500 434.000
31.31000 435.000
31.32500 389.000
31.34000 395.000
31.35500 424.000
31.37000 396.000
31.38500 415.000
31.40000 435.000
31.41500 437.000
31.43000 441.000
31.44500 461.000
31.46000 443.000
31.47500 470.000
31.49000 453.000
31.50500 470.000
31.52000 495.000
31.53500 511.000
31.55000 483.000
31.56500 478.000
31.58000 494.000
31.59500 531.000
31.61000 557.000
31.62500 568.000
31.64000 558.000
31.65500 539.000
31.67000 515.000
31.68500 470.000
31.70000 454.000
31.71500 438.000
31.73000 435.000
31.74500 410.000
31.76000 428.000
31.77500 409.000
31.79000 395.000
31.80500 442.000
31.82000 408.000
31.83500 386.000
31.85000 424.000
31.86500 413.000
31.88000 424.000
31.89500 410.000
31.91000 402.000
31.92500 446.000
31.94000 457.000
31.95500 457.000
31.97000 446.000
31.98500 486.000
32.00000 507.000
32.01500 517.000
32.03000 499.000
32.04500 509.000
32.06000 479.000
32.07500 462.000
32.09000 420.000
32.10500 412.000
32.12000 408.000
32.13500 402.000
32.15000 395.000
32.16500 387.000
32.18000 390.000
32.19500 383.000
32.21000 390.000
32.22500 403.000
32.24000 396.000
32.25500 393.000
32.27000 406.000
32.28500 405.000
32.30000 414.000
32.31500 397.000
32.33000 371.000
32.34500 420.000
32.36000 416.000
32.37500 390.000
32.39000 377.000
32.40500 406.000
32.42000 380.000
32.43500 389.000
32.45000 376.000
32.46500 373.000
32.48000 381.000
32.49500 394.000
32.51000 420.000
32.52500 392.000
32.54000 405.000
32.55500 392.000
32.57000 391.000
32.58500 383.000
32.60000 407.000
32.61500 447.000
32.63000 472.000
32.64500 456.000
32.66000 481.000
32.67500 462.000
32.69000 464.000
32.70500 434.000
32.72000 396.000
32.73500 384.000
32.75000 361.000
32.76500 334.000
32.78000 362.000
32.79500 374.000
32.81000 364.000
32.82500 399.000
32.84000 381.000
32.85500 377.000
32.87000 360.000
32.88500 371.000
32.90000 356.000
32.91500 358.000
32.93000 371.000
32.94500 356.000
32.96000 379.000
32.97500 398.000
32.99000 406.000
33.00500 379.000
33.02000 366.000
33.03500 383.000
33.05000 408.000
33.06500 429.000
33.08000 465.000
33.09500 461.000
33.11000 412.000
33.12500 427.000
33.14000 404.000
33.15500 412.000
33.17000 387.000
33.18500 368.000
33.20000 367.000
33.21500 366.000
33.23000 392.000
33.24500 370.000
33.26000 386.000
33.27500 358.000
33.29000 361.000
33.30500 397.000
33.32000 387.000
33.33500 391.000
33.35000 358.000
33.36500 360.000
33.38000 397.000
33.39500 394.000
33.41000 393.000
33.42500 381.000
33.44000 395.000
33.45500 391.000
33.47000 400.000
33.48500 357.000
33.50000 374.000
33.51500 386.000
33.53000 403.000
33.54500 394.000
33.56000 378.000
33.57500 362.000
33.59000 381.000
33.60500 417.000
33.62000 404.000
33.63500 440.000
33.65000 440.000
33.66500 448.000
33.68000 488.000
33.69500 488.000
33.71000 529.000
33.72500 596.000
33.74000 565.000
33.75500 586.000
33.77000 517.000
33.78500 465.000
33.80000 449.000
33.81500 446.000
33.83000 410.000
33.84500 420.000
33.86000 448.000
33.87500 437.000
33.89000 414.000
33.90500 424.000
33.92000 451.000
33.93500 499.000
33.95000 483.000
33.96500 491.000
33.98000 523.000
33.99500 514.000
34.01000 477.000
34.02500 477.000
34.04000 466.000
34.05500 427.000
34.07000 414.000
34.08500 404.000
34.10000 393.000
34.11500 398.000
34.13000 402.000
34.14500 404.000
34.16000 361.000
34.17500 405.000
34.19000 366.000
34.20500 340.000
34.22000 368.000
34.23500 392.000
34.25000 355.000
34.26500 366.000
34.28000 369.000
34.29500 368.000
34.31000 366.000
34.32500 360.000
34.34000 344.000
34.35500 358.000
34.37000 343.000
34.38500 351.000
34.40000 396.000
34.41500 400.000
34.43000 388.000
34.44500 364.000
34.46000 347.000
34.47500 347.000
34.49000 371.000
34.50500 339.000
34.52000 323.000
34.53500 355.000
34.55000 355.000
34.56500 345.000
34.58000 362.000
34.59500 355.000
34.61000 365.000
34.62500 355.000
34.64000 341.000
34.65500 363.000
34.67000 297.000
34.68500 286.000
34.70000 328.000
34.71500 329.000
34.73000 338.000
34.74500 310.000
34.76000 325.000
34.77500 308.000
34.79000 329.000
34.80500 313.000
34.82000 314.000
34.83500 334.000
34.85000 318.000
34.86500 327.000
34.88000 346.000
34.89500 314.000
34.91000 334.000
34.92500 345.000
34.94000 328.000
34.95500 340.000
34.97000 328.000
34.98500 357.000
35.00000 350.000
35.01500 331.000
35.03000 330.000
35.04500 340.000
35.06000 324.000
35.07500 308.000
35.09000 338.000
35.10500 328.000
35.12000 330.000
35.13500 307.000
35.15000 315.000
35.16500 320.000
35.18000 344.000
35.19500 319.000
35.21000 313.000
35.22500 306.000
35.24000 309.000
35.25500 343.000
35.27000 358.000
35.28500 354.000
35.30000 357.000
35.31500 372.000
35.33000 371.000
35.34500 400.000
35.36000 369.000
35.37500 354.000
35.39000 367.000
35.40500 360.000
35.42000 351.000
35.43500 339.000
35.45000 320.000
35.46500 318.000
35.48000 320.000
35.49500 335.000
35.51000 325.000
35.52500 332.000
35.54000 327.000
35.55500 325.000
35.57000 330.000
35.58500 357.000
35.60000 331.000
35.61500 350.000
35.63000 322.000
35.64500 318.000
35.66000 323.000
35.67500 327.000
35.69000 354.000
35.70500 351.000
35.72000 362.000
35.73500 382.000
35.75000 403.000
35.76500 445.000
35.78000 519.000
35.79500 561.000
35.81000 581.000
35.82500 572.000
35.84000 542.000
35.85500 439.000
35.87000 410.000
35.88500 368.000
35.90000 375.000
35.91500 352.000
35.93000 338.000
35.94500 343.000
35.96000 301.000
35.97500 328.000
35.99000 328.000
36.00500 320.000
36.02000 315.000
36.03500 285.000
36.05000 313.000
36.06500 304.000
36.08000 288.000
36.09500 291.000
36.11000 304.000
36.12500 273.000
36.14000 273.000
36.15500 292.000
36.17000 285.000
36.18500 285.000
36.20000 302.000
36.21500 321.000
36.23000 272.000
36.24500 278.000
36.26000 259.000
36.27500 289.000
36.29000 294.000
36.30500 334.000
36.32000 305.000
36.33500 292.000
36.35000 289.000
36.36500 291.000
36.38000 287.000
36.39500 276.000
36.41000 337.000
36.42500 339.000
36.44000 311.000
36.45500 314.000
36.47000 309.000
36.48500 327.000
36.50000 319.000
36.51500 308.000
36.53000 310.000
36.54500 325.000
36.56000 284.000
36.57500 279.000
36.59000 290.000
36.60500 311.000
36.62000 326.000
36.63500 309.000
36.65000 290.000
36.66500 291.000
36.68000 291.000
36.69500 291.000
36.71000 280.000
36.72500 269.000
36.74000 270.000
36.75500 283.000
36.77000 293.000
36.78500 308.000
36.80000 279.000
36.81500 274.000
36.83000 285.000
36.84500 279.000
36.86000 279.000
36.87500 288.000
36.89000 281.000
36.90500 267.000
36.92000 258.000
36.93500 306.000
36.95000 280.000
36.96500 265.000
36.98000 265.000
36.99500 284.000
37.01000 286.000
37.02500 294.000
37.04000 289.000
37.05500 293.000
37.07000 276.000
37.08500 268.000
37.10000 276.000
37.11500 305.000
37.13000 280.000
37.14500 286.000
37.16000 301.000
37.17500 284.000
37.19000 298.000
37.20500 277.000
37.22000 285.000
37.23500 274.000
37.25000 267.000
37.26500 278.000
37.28000 287.000
37.29500 278.000
37.31000 272.000
37.32500 282.000
37.34000 271.000
37.35500 283.000
37.37000 263.000
37.38500 271.000
37.40000 292.000
37.41500 282.000
37.43000 267.000
37.44500 306.000
37.46000 310.000
37.47500 324.000
37.49000 326.000
37.50500 322.000
37.52000 329.000
37.53500 339.000
37.55000 312.000
37.56500 301.000
37.58000 314.000
37.59500 328.000
37.61000 327.000
37.62500 301.000
37.64000 282.000
37.65500 295.000
37.67000 275.000
37.68500 262.000
37.70000 261.000
37.71500 255.000
37.73000 262.000
37.74500 251.000
37.76000 256.000
37.77500 239.000
37.79000 277.000
37.80500 258.000
37.82000 230.000
37.83500 244.000
37.85000 262.000
37.86500 250.000
37.88000 255.000
37.89500 260.000
37.91000 255.000
37.92500 260.000
37.94000 254.000
37.95500 276.000
37.97000 263.000
37.98500 278.000
38.00000 259.000
38.01500 278.000
38.03000 261.000
38.04500 269.000
38.06000 253.000
38.07500 284.000
38.09000 269.000
38.10500 265.000
38.12000 267.000
38.13500 248.000
38.15000 246.000
38.16500 265.000
38.18000 258.000
38.19500 276.000
38.21000 256.000
38.22500 281.000
38.24000 278.000
38.25500 260.000
38.27000 262.000
38.28500 260.000
38.30000 291.000
38.31500 274.000
38.33000 254.000
38.34500 272.000
38.36000 262.000
38.37500 267.000
38.39000 297.000
38.40500 258.000
38.42000 256.000
38.43500 271.000
38.45000 261.000
38.46500 282.000
38.48000 283.000
38.49500 287.000
38.51000 287.000
38.52500 328.000
38.54000 319.000
38.55500 329.000
38.57000 347.000
38.58500 323.000
38.60000 305.000
38.61500 353.000
38.63000 309.000
38.64500 324.000
38.66000 321.000
38.67500 325.000
38.69000 338.000
38.70500 324.000
38.72000 358.000
38.73500 356.000
38.75000 408.000
38.76500 436.000
38.78000 446.000
38.79500 467.000
38.81000 482.000
38.82500 465.000
38.84000 434.000
38.85500 424.000
38.87000 359.000
38.88500 387.000
38.90000 373.000
38.91500 344.000
38.93000 321.000
38.94500 332.000
38.96000 302.000
38.97500 321.000
38.99000 342.000
39.00500 361.000
39.02000 348.000
39.03500 344.000
39.05000 312.000
39.06500 324.000
39.08000 332.000
39.09500 339.000
39.11000 325.000
39.12500 332.000
39.14000 310.000
39.15500 330.000
39.17000 299.000
39.18500 286.000
39.20000 293.000
39.21500 284.000
39.23000 292.000
39.24500 294.000
39.26000 303.000
39.27500 281.000
39.29000 295.000
39.30500 290.000
39.32000 274.000
39.33500 307.000
39.35000 307.000
39.36500 327.000
39.38000 324.000
39.39500 343.000
39.41000 333.000
39.42500 319.000
39.44000 367.000
39.45500 355.000
39.47000 309.000
39.48500 325.000
39.50000 335.000
39.51500 319.000
39.53000 310.000
39.54500 297.000
39.56000 285.000
39.57500 283.000
39.59000 297.000
39.60500 290.000
39.62000 271.000
39.63500 263.000
39.65000 285.000
39.66500 275.000
39.68000 260.000
39.69500 266.000
39.71000 251.000
39.72500 274.000
39.74000 272.000
39.75500 272.000
39.77000 259.000
39.78500 249.000
39.80000 231.000
39.81500 262.000
39.83000 271.000
39.84500 261.000
39.86000 254.000
39.87500 260.000
39.89000 247.000
39.90500 273.000
39.92000 277.000
39.93500 259.000
39.95000 256.000
39.96500 256.000
39.98000 250.000
39.99500 262.000
40.01000 269.000
40.02500 252.000
40.04000 269.000
40.05500 262.000
40.07000 263.000
40.08500 246.000
40.10000 255.000
40.11500 273.000
40.13000 260.000
40.14500 246.000
40.16000 265.000
40.17500 282.000
40.19000 269.000
40.20500 245.000
40.22000 254.000
40.23500 270.000
40.25000 282.000
40.26500 262.000
40.28000 271.000
40.29500 276.000
40.31000 315.000
40.32500 288.000
40.34000 313.000
40.35500 326.000
40.37000 344.000
40.38500 364.000
40.40000 411.000
40.41500 484.000
40.43000 523.000
40.44500 554.000
40.46000 641.000
40.47500 747.000
40.49000 750.000
40.50500 741.000
40.52000 756.000
40.53500 673.000
40.55000 635.000
40.56500 571.000
40.58000 497.000
40.59500 441.000
40.61000 378.000
40.62500 334.000
40.64000 350.000
40.65500 344.000
40.67000 317.000
40.68500 321.000
40.70000 341.000
40.71500 315.000
40.73000 341.000
40.74500 323.000
40.76000 308.000
40.77500 350.000
40.79000 349.000
40.80500 401.000
40.82000 397.000
40.83500 389.000
40.85000 403.000
40.86500 339.000
40.88000 291.000
40.89500 289.000
40.91000 290.000
40.92500 274.000
40.94000 288.000
40.95500 251.000
40.97000 261.000
40.98500 280.000
41.00000 250.000
41.01500 224.000
41.03000 234.000
41.04500 263.000
41.06000 252.000
41.07500 240.000
41.09000 236.000
41.10500 243.000
41.12000 269.000
41.13500 241.000
41.15000 268.000
41.16500 264.000
41.18000 252.000
41.19500 242.000
41.21000 235.000
41.22500 242.000
41.24000 236.000
41.25500 220.000
41.27000 233.000
41.28500 251.000
41.30000 243.000
41.31500 247.000
41.33000 238.000
41.34500 248.000
41.36000 239.000
41.37500 227.000
41.39000 250.000
41.40500 237.000
41.42000 237.000
41.43500 217.000
41.45000 226.000
41.46500 229.000
41.48000 224.000
41.49500 240.000
41.51000 234.000
41.52500 239.000
41.54000 244.000
41.55500 239.000
41.57000 244.000
41.58500 248.000
41.60000 268.000
41.61500 257.000
41.63000 231.000
41.64500 233.000
41.66000 259.000
41.67500 237.000
41.69000 234.000
41.70500 237.000
41.72000 260.000
41.73500 246.000
41.75000 251.000
41.76500 230.000
41.78000 236.000
41.79500 230.000
41.81000 227.000
41.82500 221.000
41.84000 230.000
41.85500 249.000
41.87000 247.000
41.88500 246.000
41.90000 240.000
41.91500 227.000
41.93000 234.000
41.94500 265.000
41.96000 272.000
41.97500 257.000
41.99000 277.000
42.00500 245.000
42.02000 265.000
42.03500 247.000
42.05000 243.000
42.06500 231.000
42.08000 240.000
42.09500 263.000
42.11000 248.000
42.12500 272.000
42.14000 258.000
42.15500 252.000
42.17000 239.000
42.18500 269.000
42.20000 266.000
42.21500 281.000
42.23000 315.000
42.24500 317.000
42.26000 296.000
42.27500 284.000
42.29000 281.000
42.30500 285.000
42.32000 307.000
42.33500 290.000
42.35000 299.000
42.36500 280.000
42.38000 306.000
42.39500 284.000
42.41000 291.000
42.42500 298.000
42.44000 285.000
42.45500 281.000
42.47000 275.000
42.48500 258.000
42.50000 244.000
42.51500 298.000
42.53000 275.000
42.54500 288.000
42.56000 295.000
42.57500 248.000
42.59000 238.000
42.60500 270.000
42.62000 258.000
42.63500 236.000
42.65000 241.000
42.66500 245.000
42.68000 255.000
42.69500 239.000
42.71000 281.000
42.72500 284.000
42.74000 251.000
42.75500 257.000
42.77000 262.000
42.78500 268.000
42.80000 269.000
42.81500 272.000
42.83000 239.000
42.84500 252.000
42.86000 251.000
42.87500 263.000
42.89000 269.000
42.90500 256.000
42.92000 249.000
42.93500 275.000
42.95000 268.000
42.96500 246.000
42.98000 249.000
42.99500 268.000
43.01000 266.000
43.02500 277.000
43.04000 270.000
43.05500 291.000
43.07000 248.000
43.08500 259.000
43.10000 268.000
43.11500 270.000
43.13000 280.000
43.14500 274.000
43.16000 271.000
43.17500 303.000
43.19000 322.000
43.20500 273.000
43.22000 254.000
43.23500 289.000
43.25000 266.000
43.26500 282.000
43.28000 277.000
43.29500 279.000
43.31000 275.000
43.32500 300.000
43.34000 305.000
43.35500 292.000
43.37000 311.000
43.38500 295.000
43.40000 259.000
43.41500 257.000
43.43000 262.000
43.44500 258.000
43.46000 247.000
43.47500 265.000
43.49000 254.000
43.50500 257.000
43.52000 248.000
43.53500 257.000
43.55000 230.000
43.56500 240.000
43.58000 246.000
43.59500 224.000
43.61000 237.000
43.62500 239.000
43.64000 234.000
43.65500 233.000
43.67000 212.000
43.68500 237.000
43.70000 222.000
43.71500 228.000
43.73000 232.000
43.74500 230.000
43.76000 214.000
43.77500 217.000
43.79000 216.000
43.80500 253.000
43.82000 238.000
43.83500 237.000
43.85000 218.000
43.86500 224.000
43.88000 238.000
43.89500 249.000
43.91000 228.000
43.92500 241.000
43.94000 246.000
43.95500 223.000
43.97000 223.000
43.98500 245.000
44.00000 235.000
44.01500 214.000
44.03000 221.000
44.04500 213.000
44.06000 231.000
44.07500 224.000
44.09000 232.000
44.10500 236.000
44.12000 252.000
44.13500 214.000
44.15000 249.000
44.16500 242.000
44.18000 267.000
44.19500 254.000
44.21000 279.000
44.22500 269.000
44.24000 255.000
44.25500 254.000
44.27000 239.000
44.28500 250.000
44.30000 250.000
44.31500 248.000
44.33000 248.000
44.34500 235.000
44.36000 224.000
44.37500 236.000
44.39000 232.000
44.40500 222.000
44.42000 252.000
44.43500 242.000
44.45000 228.000
44.46500 232.000
44.48000 230.000
44.49500 215.000
44.51000 232.000
44.52500 213.000
44.54000 223.000
44.55500 248.000
44.57000 256.000
44.58500 230.000
44.60000 246.000
44.61500 260.000
44.63000 255.000
44.64500 247.000
44.66000 287.000
44.67500 305.000
44.69000 296.000
44.70500 270.000
44.72000 259.000
44.73500 254.000
44.75000 250.000
44.76500 237.000
44.78000 225.000
44.79500 238.000
44.81000 256.000
44.82500 261.000
44.84000 267.000
44.85500 254.000
44.87000 242.000
44.88500 270.000
44.90000 261.000
44.91500 261.000
44.93000 252.000
44.94500 253.000
44.96000 251.000
44.97500 276.000
44.99000 264.000
45.00500 284.000
45.02000 254.000
45.03500 256.000
45.05000 263.000
45.06500 237.000
45.08000 244.000
45.09500 248.000
45.11000 242.000
45.12500 253.000
45.14000 246.000
45.15500 235.000
45.17000 229.000
45.18500 235.000
45.20000 219.000
45.21500 254.000
45.23000 245.000
45.24500 238.000
45.26000 243.000
45.27500 238.000
45.29000 239.000
45.30500 255.000
45.32000 260.000
45.33500 246.000
45.35000 261.000
45.36500 247.000
45.38000 266.000
45.39500 256.000
45.41000 267.000
45.42500 270.000
45.44000 285.000
45.45500 276.000
45.47000 302.000
45.48500 294.000
45.50000 276.000
45.51500 270.000
45.53000 263.000
45.54500 271.000
45.56000 254.000
45.57500 256.000
45.59000 256.000
45.60500 268.000
45.62000 240.000
45.63500 232.000
45.65000 239.000
45.66500 239.000
45.68000 241.000
45.69500 246.000
45.71000 233.000
45.72500 244.000
45.74000 233.000
45.75500 237.000
45.77000 241.000
45.78500 241.000
45.80000 228.000
45.81500 227.000
45.83000 215.000
45.84500 248.000
45.86000 250.000
45.87500 230.000
45.89000 226.000
45.90500 224.000
45.92000 225.000
45.93500 233.000
45.95000 196.000
45.96500 213.000
45.98000 218.000
45.99500 201.000
46.01000 204.000
46.02500 229.000
46.04000 231.000
46.05500 215.000
46.07000 206.000
46.08500 241.000
46.10000 232.000
46.11500 226.000
46.13000 225.000
46.14500 229.000
46.16000 215.000
46.17500 226.000
46.19000 254.000
46.20500 247.000
46.22000 249.000
46.23500 256.000
46.25000 290.000
46.26500 296.000
46.28000 260.000
46.29500 256.000
46.31000 232.000
46.32500 219.000
46.34000 248.000
46.35500 225.000
46.37000 235.000
46.38500 242.000
46.40000 209.000
46.41500 216.000
46.43000 226.000
46.44500 219.000
46.46000 206.000
46.47500 191.000
46.49000 208.000
46.50500 201.000
46.52000 205.000
46.53500 210.000
46.55000 216.000
46.56500 206.000
46.58000 202.000
46.59500 210.000
46.61000 218.000
46.62500 220.000
46.64000 221.000
46.65500 196.000
46.67000 210.000
46.68500 213.000
46.70000 207.000
46.71500 209.000
46.73000 208.000
46.74500 218.000
46.76000 227.000
46.77500 236.000
46.79000 207.000
46.80500 251.000
46.82000 208.000
46.83500 221.000
46.85000 232.000
46.86500 202.000
46.88000 209.000
46.89500 192.000
46.91000 210.000
46.92500 227.000
46.94000 229.000
46.95500 229.000
46.97000 244.000
46.98500 263.000
47.00000 286.000
47.01500 314.000
47.03000 280.000
47.04500 273.000
47.06000 297.000
47.07500 250.000
47.09000 239.000
47.10500 239.000
47.12000 213.000
47.13500 226.000
47.15000 244.000
47.16500 225.000
47.18000 218.000
47.19500 225.000
47.21000 227.000
47.22500 229.000
47.24000 226.000
47.25500 210.000
47.27000 217.000
47.28500 214.000
47.30000 208.000
47.31500 212.000
47.33000 206.000
47.34500 194.000
47.36000 207.000
47.37500 219.000
47.39000 227.000
47.40500 218.000
47.42000 206.000
47.43500 222.000
47.45000 214.000
47.46500 222.000
47.48000 201.000
47.49500 203.000
47.51000 204.000
47.52500 233.000
47.54000 221.000
47.55500 218.000
47.57000 206.000
47.58500 202.000
47.60000 218.000
47.61500 240.000
47.63000 239.000
47.64500 236.000
47.66000 235.000
47.67500 225.000
47.69000 251.000
47.70500 247.000
47.72000 245.000
47.73500 231.000
47.75000 247.000
47.76500 264.000
47.78000 232.000
47.79500 225.000
47.81000 219.000
47.82500 237.000
47.84000 238.000
47.85500 230.000
47.87000 238.000
47.88500 270.000
47.90000 263.000
47.91500 281.000
47.93000 258.000
47.94500 250.000
47.96000 247.000
47.97500 237.000
47.99000 237.000
48.00500 249.000
48.02000 233.000
48.03500 213.000
48.05000 226.000
48.06500 239.000
48.08000 241.000
48.09500 229.000
48.11000 217.000
48.12500 201.000
48.14000 217.000
48.15500 212.000
48.17000 219.000
48.18500 207.000
48.20000 208.000
48.21500 199.000
48.23000 214.000
48.24500 209.000
48.26000 214.000
48.27500 226.000
48.29000 208.000
48.30500 186.000
48.32000 204.000
48.33500 212.000
48.35000 218.000
48.36500 237.000
48.38000 218.000
48.39500 231.000
48.41000 238.000
48.42500 252.000
48.44000 243.000
48.45500 235.000
48.47000 239.000
48.48500 222.000
48.50000 213.000
48.51500 219.000
48.53000 220.000
48.54500 212.000
48.56000 212.000
48.57500 229.000
48.59000 211.000
48.60500 231.000
48.62000 199.000
48.63500 199.000
48.65000 211.000
48.66500 240.000
48.68000 213.000
48.69500 218.000
48.71000 223.000
48.72500 200.000
48.74000 202.000
48.75500 199.000
48.77000 220.000
48.78500 223.000
48.80000 224.000
48.81500 226.000
48.83000 239.000
48.84500 240.000
48.86000 211.000
48.87500 198.000
48.89000 205.000
48.90500 223.000
48.92000 225.000
48.93500 228.000
48.95000 238.000
48.96500 227.000
48.98000 232.000
48.99500 220.000
49.01000 218.000
49.02500 231.000
49.04000 262.000
49.05500 227.000
49.07000 227.000
49.08500 228.000
49.10000 276.000
49.11500 264.000
49.13000 251.000
49.14500 253.000
49.16000 246.000
49.17500 235.000
49.19000 228.000
49.20500 219.000
49.22000 245.000
49.23500 224.000
49.25000 242.000
49.26500 211.000
49.28000 223.000
49.29500 216.000
49.31000 222.000
49.32500 243.000
49.34000 192.000
49.35500 204.000
49.37000 215.000
49.38500 209.000
49.40000 213.000
49.41500 220.000
49.43000 230.000
49.44500 222.000
49.46000 217.000
49.47500 222.000
49.49000 224.000
49.50500 202.000
49.52000 195.000
49.53500 215.000
49.55000 205.000
49.56500 202.000
49.58000 193.000
49.59500 217.000
49.61000 203.000
49.62500 202.000
49.64000 213.000
49.65500 209.000
49.67000 192.000
49.68500 197.000
49.70000 196.000
49.71500 199.000
49.73000 206.000
49.74500 206.000
49.76000 215.000
49.77500 229.000
49.79000 241.000
49.80500 242.000
49.82000 248.000
49.83500 241.000
49.85000 250.000
49.86500 235.000
49.88000 261.000
49.89500 252.000
49.91000 243.000
49.92500 234.000
49.94000 225.000
49.95500 229.000
49.97000 240.000
49.98500 235.000
50.00000 223.000
50.01500 232.000
50.03000 276.000
50.04500 264.000
50.06000 276.000
50.07500 283.000
50.09000 292.000
50.10500 282.000
50.12000 314.000
50.13500 341.000
50.15000 347.000
50.16500 360.000
50.18000 381.000
50.19500 354.000
50.21000 324.000
50.22500 294.000
50.24000 274.000
50.25500 288.000
50.27000 262.000
50.28500 253.000
50.30000 271.000
50.31500 232.000
50.33000 234.000
50.34500 246.000
50.36000 246.000
50.37500 225.000
50.39000 243.000
50.40500 236.000
50.42000 217.000
50.43500 228.000
50.45000 219.000
50.46500 213.000
50.48000 231.000
50.49500 248.000
50.51000 247.000
50.52500 250.000
50.54000 238.000
50.55500 229.000
50.57000 221.000
50.58500 227.000
50.60000 238.000
50.61500 259.000
50.63000 242.000
50.64500 241.000
50.66000 226.000
50.67500 201.000
50.69000 242.000
50.70500 225.000
50.72000 225.000
50.73500 237.000
50.75000 224.000
50.76500 215.000
50.78000 222.000
50.79500 211.000
50.81000 208.000
50.82500 216.000
50.84000 217.000
50.85500 200.000
50.87000 200.000
50.88500 205.000
50.90000 206.000
50.91500 191.000
50.93000 208.000
50.94500 218.000
50.96000 212.000
50.97500 212.000
50.99000 183.000
51.00500 209.000
51.02000 193.000
51.03500 212.000
51.05000 172.000
51.06500 210.000
51.08000 212.000
51.09500 194.000
51.11000 205.000
51.12500 211.000
51.14000 219.000
51.15500 208.000
51.17000 200.000
51.18500 197.000
51.20000 201.000
51.21500 219.000
51.23000 234.000
51.24500 223.000
51.26000 207.000
51.27500 243.000
51.29000 224.000
51.30500 221.000
51.32000 225.000
51.33500 209.000
51.35000 182.000
51.36500 203.000
51.38000 206.000
51.39500 200.000
51.41000 202.000
51.42500 208.000
51.44000 206.000
51.45500 211.000
51.47000 212.000
51.48500 196.000
51.50000 226.000
51.51500 183.000
51.53000 215.000
51.54500 188.000
51.56000 208.000
51.57500 192.000
51.59000 205.000
51.60500 216.000
51.62000 206.000
51.63500 211.000
51.65000 221.000
51.66500 240.000
51.68000 225.000
51.69500 223.000
51.71000 223.000
51.72500 216.000
51.74000 213.000
51.75500 197.000
51.77000 198.000
51.78500 198.000
51.80000 199.000
51.81500 220.000
51.83000 225.000
51.84500 214.000
51.86000 181.000
51.87500 206.000
51.89000 210.000
51.90500 215.000
51.92000 204.000
51.93500 213.000
51.95000 233.000
51.96500 224.000
51.98000 223.000
51.99500 207.000
52.01000 194.000
52.02500 226.000
52.04000 211.000
52.05500 197.000
52.07000 205.000
52.08500 205.000
52.10000 220.000
52.11500 224.000
52.13000 229.000
52.14500 228.000
52.16000 240.000
52.17500 218.000
52.19000 228.000
52.20500 251.000
52.22000 245.000
52.23500 250.000
52.25000 238.000
52.26500 262.000
52.28000 240.000
52.29500 235.000
52.31000 234.000
52.32500 237.000
52.34000 251.000
52.35500 250.000
52.37000 249.000
52.38500 241.000
52.40000 223.000
52.41500 226.000
52.43000 216.000
52.44500 199.000
52.46000 225.000
52.47500 212.000
52.49000 213.000
52.50500 223.000
52.52000 192.000
52.53500 224.000
52.55000 226.000
52.56500 215.000
52.58000 202.000
52.59500 204.000
52.61000 200.000
52.62500 201.000
52.64000 211.000
52.65500 196.000
52.67000 224.000
52.68500 210.000
52.70000 211.000
52.71500 226.000
52.73000 224.000
52.74500 229.000
52.76000 264.000
52.77500 241.000
52.79000 228.000
52.80500 234.000
52.82000 235.000
52.83500 259.000
52.85000 252.000
52.86500 223.000
52.88000 227.000
52.89500 257.000
52.91000 256.000
52.92500 259.000
52.94000 262.000
52.95500 265.000
52.97000 273.000
52.98500 268.000
53.00000 255.000
53.01500 262.000
53.03000 278.000
53.04500 244.000
53.06000 233.000
53.07500 246.000
53.09000 252.000
53.10500 235.000
53.12000 210.000
53.13500 227.000
53.15000 220.000
53.16500 229.000
53.18000 239.000
53.19500 236.000
53.21000 227.000
53.22500 208.000
53.24000 226.000
53.25500 253.000
53.27000 241.000
53.28500 217.000
53.30000 269.000
53.31500 236.000
53.33000 214.000
53.34500 232.000
53.36000 234.000
53.37500 239.000
53.39000 257.000
53.40500 265.000
53.42000 262.000
53.43500 267.000
53.45000 245.000
53.46500 238.000
53.48000 248.000
53.49500 280.000
53.51000 288.000
53.52500 256.000
53.54000 238.000
53.55500 251.000
53.57000 235.000
53.58500 232.000
53.60000 230.000
53.61500 224.000
53.63000 238.000
53.64500 241.000
53.66000 205.000
53.67500 233.000
53.69000 246.000
53.70500 250.000
53.72000 252.000
53.73500 251.000
53.75000 243.000
53.76500 246.000
53.78000 223.000
53.79500 230.000
53.81000 244.000
53.82500 223.000
53.84000 240.000
53.85500 231.000
53.87000 256.000
53.88500 246.000
53.90000 255.000
53.91500 275.000
53.93000 272.000
53.94500 261.000
53.96000 265.000
53.97500 264.000
53.99000 292.000
54.00500 284.000
54.02000 271.000
54.03500 262.000
54.05000 246.000
54.06500 261.000
54.08000 263.000
54.09500 276.000
54.11000 271.000
54.12500 278.000
54.14000 271.000
54.15500 270.000
54.17000 246.000
54.18500 267.000
54.20000 261.000
54.21500 238.000
54.23000 226.000
54.24500 203.000
54.26000 213.000
54.27500 228.000
54.29000 228.000
54.30500 214.000
54.32000 223.000
54.33500 214.000
54.35000 207.000
54.36500 205.000
54.38000 228.000
54.39500 223.000
54.41000 212.000
54.42500 203.000
54.44000 201.000
54.45500 208.000
54.47000 233.000
54.48500 209.000
54.50000 191.000
54.51500 216.000
54.53000 222.000
54.54500 235.000
54.56000 232.000
54.57500 236.000
54.59000 186.000
54.60500 200.000
54.62000 234.000
54.63500 214.000
54.65000 227.000
54.66500 228.000
54.68000 234.000
54.69500 225.000
54.71000 209.000
54.72500 223.000
54.74000 230.000
54.75500 226.000
54.77000 251.000
54.78500 247.000
54.80000 226.000
54.81500 240.000
54.83000 236.000
54.84500 217.000
54.86000 226.000
54.87500 217.000
54.89000 229.000
54.90500 202.000
54.92000 198.000
54.93500 225.000
54.95000 239.000
54.96500 228.000
54.98000 231.000
54.99500 245.000
55.01000 232.000
55.02500 207.000
55.04000 189.000
55.05500 218.000
55.07000 240.000
55.08500 250.000
55.10000 208.000
55.11500 225.000
55.13000 204.000
55.14500 197.000
55.16000 208.000
55.17500 191.000
55.19000 207.000
55.20500 222.000
55.22000 228.000
55.23500 204.000
55.25000 196.000
55.26500 204.000
55.28000 187.000
55.29500 195.000
55.31000 200.000
55.32500 197.000
55.34000 216.000
55.35500 207.000
55.37000 204.000
55.38500 214.000
55.40000 208.000
55.41500 207.000
55.43000 204.000
55.44500 207.000
55.46000 196.000
55.47500 203.000
55.49000 190.000
55.50500 193.000
55.52000 197.000
55.53500 204.000
55.55000 199.000
55.56500 200.000
55.58000 200.000
55.59500 210.000
55.61000 195.000
55.62500 214.000
55.64000 224.000
55.65500 247.000
55.67000 236.000
55.68500 240.000
55.70000 252.000
55.71500 259.000
55.73000 260.000
55.74500 264.000
55.76000 231.000
55.77500 219.000
55.79000 225.000
55.80500 219.000
55.82000 222.000
55.83500 201.000
55.85000 207.000
55.86500 212.000
55.88000 203.000
55.89500 215.000
55.91000 214.000
55.92500 209.000
55.94000 211.000
55.95500 203.000
55.97000 204.000
55.98500 210.000
56.00000 211.000
56.01500 221.000
56.03000 192.000
56.04500 200.000
56.06000 197.000
56.07500 213.000
56.09000 227.000
56.10500 224.000
56.12000 224.000
56.13500 220.000
56.15000 214.000
56.16500 215.000
56.18000 200.000
56.19500 196.000
56.21000 210.000
56.22500 226.000
56.24000 218.000
56.25500 210.000
56.27000 211.000
56.28500 210.000
56.30000 166.000
56.31500 218.000
56.33000 201.000
56.34500 211.000
56.36000 214.000
56.37500 203.000
56.39000 194.000
56.40500 176.000
56.42000 200.000
56.43500 189.000
56.45000 187.000
56.46500 185.000
56.48000 185.000
56.49500 177.000
56.51000 201.000
56.52500 202.000
56.54000 180.000
56.55500 193.000
56.57000 181.000
56.58500 188.000
56.60000 186.000
56.61500 185.000
56.63000 190.000
56.64500 203.000
56.66000 201.000
56.67500 196.000
56.69000 192.000
56.70500 192.000
56.72000 205.000
56.73500 198.000
56.75000 198.000
56.76500 214.000
56.78000 204.000
56.79500 180.000
56.81000 197.000
56.82500 208.000
56.84000 200.000
56.85500 205.000
56.87000 197.000
56.88500 201.000
56.90000 199.000
56.91500 214.000
56.93000 222.000
56.94500 193.000
56.96000 209.000
56.97500 199.000
56.99000 200.000
57.00500 202.000
57.02000 210.000
57.03500 203.000
57.05000 202.000
57.06500 175.000
57.08000 186.000
57.09500 195.000
57.11000 196.000
57.12500 196.000
57.14000 181.000
57.15500 206.000
57.17000 192.000
57.18500 180.000
57.20000 193.000
57.21500 188.000
57.23000 184.000
57.24500 198.000
57.26000 200.000
57.27500 178.000
57.29000 186.000
57.30500 213.000
57.32000 198.000
57.33500 203.000
57.35000 194.000
57.36500 212.000
57.38000 198.000
57.39500 184.000
57.41000 187.000
57.42500 212.000
57.44000 186.000
57.45500 199.000
57.47000 188.000
57.48500 186.000
57.50000 203.000
57.51500 245.000
57.53000 197.000
57.54500 202.000
57.56000 193.000
57.57500 199.000
57.59000 188.000
57.60500 221.000
57.62000 214.000
57.63500 180.000
57.65000 181.000
57.66500 199.000
57.68000 186.000
57.69500 189.000
57.71000 193.000
57.72500 224.000
57.74000 218.000
57.75500 228.000
57.77000 197.000
57.78500 208.000
57.80000 221.000
57.81500 198.000
57.83000 220.000
57.84500 219.000
57.86000 206.000
57.87500 196.000
57.89000 199.000
57.90500 192.000
57.92000 192.000
57.93500 210.000
57.95000 213.000
57.96500 204.000
57.98000 218.000
57.99500 226.000
58.01000 208.000
58.02500 208.000
58.04000 207.000
58.05500 233.000
58.07000 231.000
58.08500 229.000
58.10000 225.000
58.11500 212.000
58.13000 224.000
58.14500 241.000
58.16000 225.000
58.17500 217.000
58.19000 225.000
58.20500 230.000
58.22000 235.000
58.23500 232.000
58.25000 202.000
58.26500 223.000
58.28000 212.000
58.29500 220.000
58.31000 211.000
58.32500 221.000
58.34000 203.000
58.35500 223.000
58.37000 187.000
58.38500 201.000
58.40000 224.000
58.41500 212.000
58.43000 227.000
58.44500 227.000
58.46000 226.000
58.47500 261.000
58.49000 244.000
58.50500 238.000
58.52000 265.000
58.53500 269.000
58.55000 262.000
58.56500 253.000
58.58000 243.000
58.59500 284.000
58.61000 282.000
58.62500 265.000
58.64000 258.000
58.65500 278.000
58.67000 286.000
58.68500 261.000
58.70000 223.000
58.71500 210.000
58.73000 216.000
58.74500 195.000
58.76000 203.000
58.77500 208.000
58.79000 180.000
58.80500 206.000
58.82000 208.000
58.83500 197.000
58.85000 193.000
58.86500 194.000
58.88000 200.000
58.89500 193.000
58.91000 178.000
58.92500 186.000
58.94000 184.000
58.95500 170.000
58.97000 202.000
58.98500 196.000
59.00000 188.000
59.01500 182.000
59.03000 171.000
59.04500 169.000
59.06000 193.000
59.07500 196.000
59.09000 180.000
59.10500 174.000
59.12000 178.000
59.13500 169.000
59.15000 186.000
59.16500 188.000
59.18000 201.000
59.19500 201.000
59.21000 197.000
59.22500 194.000
59.24000 196.000
59.25500 188.000
59.27000 179.000
59.28500 163.000
59.30000 187.000
59.31500 196.000
59.33000 177.000
59.34500 180.000
59.36000 204.000
59.37500 195.000
59.39000 205.000
59.40500 204.000
59.42000 198.000
59.43500 181.000
59.45000 195.000
59.46500 189.000
59.48000 190.000
59.49500 195.000
59.51000 185.000
59.52500 184.000
59.54000 190.000
59.55500 167.000
59.57000 182.000
59.58500 195.000
59.60000 185.000
59.61500 177.000
59.63000 189.000
59.64500 206.000
59.66000 188.000
59.67500 163.000
59.69000 170.000
59.70500 179.000
59.72000 180.000
59.73500 183.000
59.75000 165.000
59.76500 193.000
59.78000 190.000
59.79500 178.000
59.81000 176.000
59.82500 187.000
59.84000 190.000
59.85500 170.000
59.87000 158.000
59.88500 173.000
59.90000 193.000
59.91500 183.000
59.93000 194.000
59.94500 188.000
59.96000 168.000
59.97500 169.000
59.99000 185.000
60.00500 173.000
60.02000 172.000
60.03500 181.000
60.05000 184.000
60.06500 169.000
60.08000 185.000
60.09500 181.000
60.11000 171.000
60.12500 194.000
60.14000 190.000
60.15500 173.000
60.17000 195.000
60.18500 174.000
60.20000 182.000
60.21500 174.000
60.23000 185.000
60.24500 179.000
60.26000 199.000
60.27500 197.000
60.29000 197.000
60.30500 189.000
60.32000 189.000
60.33500 183.000
60.35000 196.000
60.36500 164.000
60.38000 158.000
60.39500 194.000
60.41000 166.000
60.42500 167.000
60.44000 184.000
60.45500 193.000
60.47000 179.000
60.48500 185.000
60.50000 190.000
60.51500 186.000
60.53000 189.000
60.54500 194.000
60.56000 175.000
60.57500 179.000
60.59000 159.000
60.60500 171.000
60.62000 180.000
60.63500 181.000
60.65000 192.000
60.66500 163.000
60.68000 170.000
60.69500 173.000
60.71000 171.000
60.72500 177.000
60.74000 164.000
60.75500 151.000
60.77000 161.000
60.78500 137.000
60.80000 169.000
60.81500 161.000
60.83000 163.000
60.84500 172.000
60.86000 185.000
60.87500 169.000
60.89000 172.000
60.90500 185.000
60.92000 156.000
60.93500 148.000
60.95000 160.000
60.96500 165.000
60.98000 169.000
60.99500 183.000
61.01000 165.000
61.02500 143.000
61.04000 153.000
61.05500 165.000
61.07000 160.000
61.08500 192.000
61.10000 174.000
61.11500 162.000
61.13000 166.000
61.14500 165.000
61.16000 169.000
61.17500 167.000
61.19000 181.000
61.20500 180.000
61.22000 164.000
61.23500 163.000
61.25000 154.000
61.26500 160.000
61.28000 166.000
61.29500 152.000
61.31000 171.000
61.32500 152.000
61.34000 180.000
61.35500 139.000
61.37000 150.000
61.38500 172.000
61.40000 173.000
61.41500 166.000
61.43000 168.000
61.44500 172.000
61.46000 169.000
61.47500 183.000
61.49000 177.000
61.50500 171.000
61.52000 164.000
61.53500 178.000
61.55000 166.000
61.56500 184.000
61.58000 169.000
61.59500 173.000
61.61000 184.000
61.62500 177.000
61.64000 156.000
61.65500 169.000
61.67000 184.000
61.68500 163.000
61.70000 173.000
61.71500 177.000
61.73000 163.000
61.74500 155.000
61.76000 168.000
61.77500 166.000
61.79000 177.000
61.80500 173.000
61.82000 172.000
61.83500 180.000
61.85000 164.000
61.86500 179.000
61.88000 199.000
61.89500 188.000
61.91000 178.000
61.92500 180.000
61.94000 181.000
61.95500 175.000
61.97000 180.000
61.98500 176.000
