2.0 920.0
2.015 940.0
2.03 943.0
2.045 871.0
2.06 886.0
2.075 850.0
2.09 860.0
2.105 853.0
2.12 826.0
2.135 790.0
2.15 782.0
2.165 788.0
2.18 756.0
2.195 743.0
2.21 734.0
2.225 731.0
2.24 738.0
2.255 717.0
2.27 666.0
2.285 652.0
2.3 680.0
2.315 688.0
2.33 675.0
2.345 618.0
2.36 640.0
2.375 642.0
2.39 608.0
2.405 609.0
2.42 635.0
2.435 596.0
2.45 584.0
2.465 568.0
2.48 565.0
2.495 584.0
2.51 610.0
2.525 579.0
2.54 558.0
2.555 564.0
2.57 568.0
2.585 570.0
2.6 541.0
2.615 533.0
2.63 527.0
2.645 525.0
2.66 534.0
2.675 521.0
2.69 525.0
2.705 481.0
2.72 516.0
2.735 486.0
2.75 512.0
2.765 526.0
2.78 516.0
2.795 513.0
2.81 501.0
2.825 506.0
2.84 467.0
2.855 443.0
2.87 441.0
2.885 488.0
2.9 485.0
2.915 489.0
2.93 476.0
2.945 445.0
2.96 479.0
2.975 470.0
2.99 435.0
3.005 448.0
3.02 455.0
3.035 439.0
3.05 420.0
3.065 400.0
3.08 444.0
3.095 428.0
3.11 463.0
3.125 453.0
3.14 418.0
3.155 442.0
3.17 470.0
3.185 417.0
3.2 425.0
3.215 434.0
3.23 428.0
3.245 462.0
3.26 440.0
3.275 413.0
3.29 428.0
3.305 460.0
3.32 440.0
3.335 430.0
3.35 426.0
3.365 419.0
3.38 425.0
3.395 435.0
3.41 424.0
3.425 447.0
3.44 425.0
3.455 415.0
3.47 425.0
3.485 450.0
3.5 403.0
3.515 424.0
3.53 442.0
3.545 438.0
3.56 381.0
3.575 393.0
3.59 414.0
3.605 399.0
3.62 421.0
3.635 412.0
3.65 417.0
3.665 424.0
3.68 407.0
3.695 435.0
3.71 420.0
3.725 394.0
3.74 422.0
3.755 417.0
3.77 414.0
3.785 422.0
3.8 395.0
3.815 414.0
3.83 429.0
3.845 438.0
3.86 424.0
3.875 427.0
3.89 427.0
3.905 420.0
3.92 376.0
3.935 409.0
3.95 426.0
3.965 405.0
3.98 409.0
3.995 429.0
4.01 402.0
4.025 399.0
4.04 420.0
4.055 413.0
4.07 415.0
4.085 432.0
4.1 443.0
4.115 430.0
4.13 412.0
4.145 390.0
4.16 410.0
4.175 418.0
4.19 369.0
4.205 409.0
4.22 424.0
4.235 415.0
4.25 408.0
4.265 406.0
4.28 429.0
4.295 408.0
4.31 390.0
4.325 391.0
4.34 413.0
4.355 427.0
4.37 412.0
4.385 446.0
4.4 429.0
4.415 435.0
4.43 398.0
4.445 414.0
4.46 436.0
4.475 399.0
4.49 399.0
4.505 435.0
4.52 412.0
4.535 416.0
4.55 408.0
4.565 362.0
4.58 360.0
4.595 403.0
4.61 411.0
4.625 427.0
4.64 391.0
4.655 400.0
4.67 397.0
4.685 420.0
4.7 389.0
4.715 410.0
4.73 396.0
4.745 384.0
4.76 401.0
4.775 392.0
4.79 384.0
4.805 431.0
4.82 422.0
4.835 408.0
4.85 415.0
4.865 428.0
4.88 392.0
4.895 392.0
4.91 401.0
4.925 415.0
4.94 388.0
4.955 405.0
4.97 401.0
4.985 419.0
5.0 432.0
5.015 417.0
5.03 437.0
5.045 440.0
5.06 407.0
5.075 405.0
5.09 427.0
5.105 403.0
5.12 439.0
5.135 446.0
5.15 405.0
5.165 418.0
5.18 419.0
5.195 410.0
5.21 426.0
5.225 404.0
5.24 389.0
5.255 404.0
5.27 423.0
5.285 413.0
5.3 394.0
5.315 399.0
5.33 443.0
5.345 412.0
5.36 415.0
5.375 412.0
5.39 404.0
5.405 428.0
5.42 437.0
5.435 416.0
5.45 429.0
5.465 421.0
5.48 407.0
5.495 415.0
5.51 415.0
5.525 400.0
5.54 411.0
5.555 392.0
5.57 396.0
5.585 430.0
5.6 410.0
5.615 397.0
5.63 428.0
5.645 431.0
5.66 421.0
5.675 419.0
5.69 419.0
5.705 382.0
5.72 379.0
5.735 384.0
5.75 419.0
5.765 428.0
5.78 424.0
5.795 435.0
5.81 426.0
5.825 409.0
5.84 368.0
5.855 415.0
5.87 397.0
5.885 427.0
5.9 416.0
5.915 424.0
5.93 423.0
5.945 407.0
5.96 421.0
5.975 403.0
5.99 403.0
6.005 386.0
6.02 400.0
6.035 419.0
6.05 391.0
6.065 413.0
6.08 399.0
6.095 400.0
6.11 395.0
6.125 423.0
6.14 423.0
6.155 398.0
6.17 424.0
6.185 428.0
6.2 385.0
6.215 380.0
6.23 412.0
6.245 375.0
6.26 417.0
6.275 424.0
6.29 446.0
6.305 418.0
6.32 414.0
6.335 412.0
6.35 419.0
6.365 435.0
6.38 427.0
6.395 392.0
6.41 422.0
6.425 379.0
6.44 399.0
6.455 415.0
6.47 425.0
6.485 422.0
6.5 412.0
6.515 394.0
6.53 394.0
6.545 392.0
6.56 415.0
6.575 410.0
6.59 432.0
6.605 443.0
6.62 407.0
6.635 406.0
6.65 389.0
6.665 393.0
6.68 403.0
6.695 419.0
6.71 421.0
6.725 405.0
6.74 410.0
6.755 401.0
6.77 409.0
6.785 417.0
6.8 421.0
6.815 372.0
6.83 387.0
6.845 403.0
6.86 413.0
6.875 401.0
6.89 403.0
6.905 375.0
6.92 398.0
6.935 395.0
6.95 401.0
6.965 400.0
6.98 379.0
6.995 399.0
7.01 431.0
7.025 373.0
7.04 417.0
7.055 394.0
7.07 360.0
7.085 378.0
7.1 397.0
7.115 423.0
7.13 393.0
7.145 397.0
7.16 367.0
7.175 417.0
7.19 413.0
7.205 414.0
7.22 395.0
7.235 417.0
7.25 428.0
7.265 397.0
7.28 381.0
7.295 400.0
7.31 428.0
7.325 431.0
7.34 434.0
7.355 413.0
7.37 412.0
7.385 425.0
7.4 400.0
7.415 387.0
7.43 375.0
7.445 385.0
7.46 409.0
7.475 377.0
7.49 417.0
7.505 375.0
7.52 393.0
7.535 389.0
7.55 388.0
7.565 381.0
7.58 405.0
7.595 372.0
7.61 384.0
7.625 403.0
7.64 381.0
7.655 418.0
7.67 385.0
7.685 384.0
7.7 392.0
7.715 416.0
7.73 370.0
7.745 367.0
7.76 403.0
7.775 392.0
7.79 395.0
7.805 398.0
7.82 397.0
7.835 390.0
7.85 404.0
7.865 396.0
7.88 406.0
7.895 414.0
7.91 434.0
7.925 431.0
7.94 410.0
7.955 378.0
7.97 391.0
7.985 382.0
8.0 352.0
8.015 358.0
8.03 383.0
8.045 407.0
8.06 406.0
8.075 412.0
8.09 416.0
8.105 417.0
8.12 384.0
8.135 425.0
8.15 404.0
8.165 440.0
8.18 408.0
8.195 399.0
8.21 396.0
8.225 416.0
8.24 395.0
8.255 412.0
8.27 397.0
8.285 411.0
8.3 427.0
8.315 413.0
8.33 418.0
8.345 395.0
8.36 365.0
8.375 404.0
8.39 398.0
8.405 404.0
8.42 423.0
8.435 414.0
8.45 417.0
8.465 423.0
8.48 418.0
8.495 385.0
8.51 409.0
8.525 407.0
8.54 399.0
8.555 421.0
8.57 405.0
8.585 395.0
8.6 402.0
8.615 384.0
8.63 370.0
8.645 366.0
8.66 406.0
8.675 425.0
8.69 404.0
8.705 410.0
8.72 397.0
8.735 414.0
8.75 388.0
8.765 416.0
8.78 411.0
8.795 390.0
8.81 417.0
8.825 415.0
8.84 410.0
8.855 414.0
8.87 380.0
8.885 386.0
8.9 408.0
8.915 406.0
8.93 397.0
8.945 385.0
8.96 381.0
8.975 414.0
8.99 414.0
9.005 420.0
9.02 424.0
9.035 429.0
9.05 431.0
9.065 431.0
9.08 376.0
9.095 386.0
9.11 432.0
9.125 417.0
9.14 404.0
9.155 384.0
9.17 372.0
9.185 387.0
9.2 376.0
9.215 404.0
9.23 412.0
9.245 417.0
9.26 394.0
9.275 393.0
9.29 404.0
9.305 429.0
9.32 399.0
9.335 392.0
9.35 385.0
9.365 411.0
9.38 362.0
9.395 382.0
9.41 390.0
9.425 396.0
9.44 386.0
9.455 441.0
9.47 414.0
9.485 403.0
9.5 406.0
9.515 401.0
9.53 361.0
9.545 411.0
9.56 398.0
9.575 396.0
9.59 370.0
9.605 376.0
9.62 407.0
9.635 405.0
9.65 381.0
9.665 395.0
9.68 423.0
9.695 383.0
9.71 395.0
9.725 413.0
9.74 394.0
9.755 381.0
9.77 350.0
9.785 381.0
9.8 388.0
9.815 439.0
9.83 403.0
9.845 395.0
9.86 384.0
9.875 385.0
9.89 379.0
9.905 391.0
9.92 374.0
9.935 356.0
9.95 378.0
9.965 368.0
9.98 358.0
9.995 389.0
10.01 397.0
10.025 379.0
10.04 401.0
10.055 408.0
10.07 387.0
10.085 397.0
10.1 393.0
10.115 393.0
10.13 386.0
10.145 379.0
10.16 398.0
10.175 392.0
10.19 391.0
10.205 400.0
10.22 420.0
10.235 420.0
10.25 404.0
10.265 402.0
10.28 382.0
10.295 379.0
10.31 386.0
10.325 402.0
10.34 422.0
10.355 402.0
10.37 363.0
10.385 404.0
10.4 426.0
10.415 390.0
10.43 383.0
10.445 387.0
10.46 388.0
10.475 403.0
10.49 411.0
10.505 411.0
10.52 390.0
10.535 396.0
10.55 390.0
10.565 402.0
10.58 390.0
10.595 391.0
10.61 385.0
10.625 367.0
10.64 389.0
10.655 373.0
10.67 394.0
10.685 378.0
10.7 398.0
10.715 379.0
10.73 373.0
10.745 415.0
10.76 392.0
10.775 388.0
10.79 390.0
10.805 401.0
10.82 395.0
10.835 382.0
10.85 384.0
10.865 407.0
10.88 413.0
10.895 377.0
10.91 395.0
10.925 384.0
10.94 404.0
10.955 390.0
10.97 383.0
10.985 386.0
11.0 387.0
11.015 382.0
11.03 373.0
11.045 354.0
11.06 383.0
11.075 390.0
11.09 398.0
11.105 394.0
11.12 398.0
11.135 391.0
11.15 388.0
11.165 395.0
11.18 398.0
11.195 381.0
11.21 383.0
11.225 391.0
11.24 407.0
11.255 378.0
11.27 368.0
11.285 433.0
11.3 397.0
11.315 381.0
11.33 365.0
11.345 372.0
11.36 365.0
11.375 380.0
11.39 403.0
11.405 402.0
11.42 388.0
11.435 383.0
11.45 392.0
11.465 355.0
11.48 390.0
11.495 404.0
11.51 400.0
11.525 420.0
11.54 391.0
11.555 388.0
11.57 411.0
11.585 391.0
11.6 393.0
11.615 420.0
11.63 411.0
11.645 386.0
11.66 418.0
11.675 420.0
11.69 394.0
11.705 410.0
11.72 409.0
11.735 420.0
11.75 359.0
11.765 376.0
11.78 400.0
11.795 372.0
11.81 406.0
11.825 416.0
11.84 403.0
11.855 408.0
11.87 381.0
11.885 354.0
11.9 357.0
11.915 359.0
11.93 379.0
11.945 402.0
11.96 388.0
11.975 404.0
11.99 378.0
12.005 404.0
12.02 385.0
12.035 372.0
12.05 358.0
12.065 361.0
12.08 388.0
12.095 367.0
12.11 375.0
12.125 401.0
12.14 401.0
12.155 397.0
12.17 386.0
12.185 390.0
12.2 396.0
12.215 398.0
12.23 376.0
12.245 398.0
12.26 380.0
12.275 408.0
12.29 408.0
12.305 374.0
12.32 382.0
12.335 414.0
12.35 422.0
12.365 342.0
12.38 351.0
12.395 421.0
12.41 374.0
12.425 374.0
12.44 394.0
12.455 384.0
12.47 398.0
12.485 388.0
12.5 368.0
12.515 404.0
12.53 398.0
12.545 399.0
12.56 415.0
12.575 401.0
12.59 373.0
12.605 390.0
12.62 379.0
12.635 361.0
12.65 381.0
12.665 375.0
12.68 380.0
12.695 407.0
12.71 397.0
12.725 381.0
12.74 352.0
12.755 392.0
12.77 365.0
12.785 375.0
12.8 380.0
12.815 402.0
12.83 392.0
12.845 394.0
12.86 387.0
12.875 399.0
12.89 399.0
12.905 388.0
12.92 399.0
12.935 384.0
12.95 380.0
12.965 384.0
12.98 388.0
12.995 377.0
13.01 393.0
13.025 402.0
13.04 365.0
13.055 390.0
13.07 382.0
13.085 378.0
13.1 404.0
13.115 379.0
13.13 396.0
13.145 388.0
13.16 383.0
13.175 405.0
13.19 374.0
13.205 386.0
13.22 398.0
13.235 366.0
13.25 378.0
13.265 385.0
13.28 373.0
13.295 416.0
13.31 399.0
13.325 366.0
13.34 358.0
13.355 379.0
13.37 388.0
13.385 392.0
13.4 396.0
13.415 416.0
13.43 415.0
13.445 391.0
13.46 363.0
13.475 379.0
13.49 386.0
13.505 403.0
13.52 396.0
13.535 414.0
13.55 373.0
13.565 373.0
13.58 384.0
13.595 380.0
13.61 396.0
13.625 378.0
13.64 416.0
13.655 388.0
13.67 369.0
13.685 371.0
13.7 396.0
13.715 375.0
13.73 365.0
13.745 364.0
13.76 379.0
13.775 383.0
13.79 393.0
13.805 374.0
13.82 388.0
13.835 377.0
13.85 372.0
13.865 394.0
13.88 386.0
13.895 371.0
13.91 373.0
13.925 386.0
13.94 394.0
13.955 407.0
13.97 364.0
13.985 352.0
14.0 363.0
14.015 403.0
14.03 396.0
14.045 369.0
14.06 403.0
14.075 383.0
14.09 381.0
14.105 378.0
14.12 389.0
14.135 345.0
14.15 364.0
14.165 389.0
14.18 389.0
14.195 369.0
14.21 376.0
14.225 404.0
14.24 400.0
14.255 381.0
14.27 378.0
14.285 384.0
14.3 379.0
14.315 388.0
14.33 408.0
14.345 396.0
14.36 399.0
14.375 368.0
14.39 404.0
14.405 387.0
14.42 360.0
14.435 345.0
14.45 355.0
14.465 383.0
14.48 380.0
14.495 367.0
14.51 393.0
14.525 395.0
14.54 414.0
14.555 392.0
14.57 412.0
14.585 402.0
14.6 366.0
14.615 380.0
14.63 375.0
14.645 390.0
14.66 382.0
14.675 376.0
14.69 375.0
14.705 399.0
14.72 378.0
14.735 414.0
14.75 419.0
14.765 422.0
14.78 396.0
14.795 413.0
14.81 376.0
14.825 391.0
14.84 391.0
14.855 380.0
14.87 395.0
14.885 388.0
14.9 387.0
14.915 398.0
14.93 410.0
14.945 366.0
14.96 383.0
14.975 386.0
14.99 373.0
15.005 391.0
15.02 372.0
15.035 382.0
15.05 397.0
15.065 412.0
15.08 393.0
15.095 371.0
15.11 411.0
15.125 398.0
15.14 367.0
15.155 368.0
15.17 370.0
15.185 394.0
15.2 435.0
15.215 410.0
15.23 366.0
15.245 381.0
15.26 416.0
15.275 414.0
15.29 416.0
15.305 394.0
15.32 372.0
15.335 379.0
15.35 389.0
15.365 390.0
15.38 428.0
15.395 412.0
15.41 408.0
15.425 417.0
15.44 412.0
15.455 370.0
15.47 392.0
15.485 406.0
15.5 401.0
15.515 409.0
15.53 405.0
15.545 386.0
15.56 409.0
15.575 390.0
15.59 414.0
15.605 382.0
15.62 367.0
15.635 371.0
15.65 381.0
15.665 373.0
15.68 383.0
15.695 405.0
15.71 401.0
15.725 404.0
15.74 393.0
15.755 408.0
15.77 421.0
15.785 422.0
15.8 384.0
15.815 411.0
15.83 409.0
15.845 397.0
15.86 383.0
15.875 417.0
15.89 390.0
15.905 386.0
15.92 379.0
15.935 416.0
15.95 417.0
15.965 389.0
15.98 368.0
15.995 397.0
16.01 381.0
16.025 408.0
16.04 403.0
16.055 414.0
16.07 414.0
16.085 406.0
16.1 407.0
16.115 393.0
16.13 395.0
16.145 408.0
16.16 401.0
16.175 390.0
16.19 390.0
16.205 428.0
16.22 407.0
16.235 399.0
16.25 409.0
16.265 399.0
16.28 387.0
16.295 398.0
16.31 391.0
16.325 398.0
16.34 405.0
16.355 422.0
16.37 419.0
16.385 403.0
16.4 427.0
16.415 405.0
16.43 380.0
16.445 389.0
16.46 403.0
16.475 393.0
16.49 406.0
16.505 395.0
16.52 378.0
16.535 380.0
16.55 368.0
16.565 413.0
16.58 393.0
16.595 429.0
16.61 398.0
16.625 402.0
16.64 417.0
16.655 402.0
16.67 377.0
16.685 392.0
16.7 410.0
16.715 403.0
16.73 382.0
16.745 380.0
16.76 393.0
16.775 380.0
16.79 383.0
16.805 397.0
16.82 445.0
16.835 387.0
16.85 396.0
16.865 415.0
16.88 393.0
16.895 377.0
16.91 399.0
16.925 415.0
16.94 429.0
16.955 415.0
16.97 406.0
16.985 438.0
17.0 412.0
17.015 410.0
17.03 420.0
17.045 416.0
17.06 424.0
17.075 385.0
17.09 383.0
17.105 392.0
17.12 417.0
17.135 404.0
17.15 424.0
17.165 414.0
17.18 396.0
17.195 411.0
17.21 410.0
17.225 423.0
17.24 412.0
17.255 415.0
17.27 387.0
17.285 412.0
17.3 437.0
17.315 446.0
17.33 397.0
17.345 401.0
17.36 400.0
17.375 422.0
17.39 408.0
17.405 414.0
17.42 404.0
17.435 408.0
17.45 398.0
17.465 397.0
17.48 433.0
17.495 445.0
17.51 443.0
17.525 407.0
17.54 456.0
17.555 439.0
17.57 412.0
17.585 430.0
17.6 434.0
17.615 382.0
17.63 414.0
17.645 426.0
17.66 412.0
17.675 403.0
17.69 406.0
17.705 412.0
17.72 411.0
17.735 381.0
17.75 387.0
17.765 421.0
17.78 401.0
17.795 423.0
17.81 417.0
17.825 434.0
17.84 435.0
17.855 411.0
17.87 405.0
17.885 402.0
17.9 402.0
17.915 418.0
17.93 435.0
17.945 430.0
17.96 428.0
17.975 434.0
17.99 427.0
18.005 438.0
18.02 461.0
18.035 426.0
18.05 392.0
18.065 415.0
18.08 387.0
18.095 401.0
18.11 430.0
18.125 407.0
18.14 407.0
18.155 428.0
18.17 421.0
18.185 417.0
18.2 448.0
18.215 424.0
18.23 448.0
18.245 436.0
18.26 437.0
18.275 435.0
18.29 412.0
18.305 440.0
18.32 429.0
18.335 440.0
18.35 436.0
18.365 404.0
18.38 413.0
18.395 426.0
18.41 404.0
18.425 413.0
18.44 420.0
18.455 453.0
18.47 433.0
18.485 425.0
18.5 428.0
18.515 448.0
18.53 456.0
18.545 441.0
18.56 435.0
18.575 403.0
18.59 414.0
18.605 406.0
18.62 452.0
18.635 441.0
18.65 409.0
18.665 430.0
18.68 448.0
18.695 467.0
18.71 440.0
18.725 430.0
18.74 447.0
18.755 441.0
18.77 437.0
18.785 418.0
18.8 434.0
18.815 430.0
18.83 441.0
18.845 432.0
18.86 453.0
18.875 438.0
18.89 432.0
18.905 418.0
18.92 426.0
18.935 436.0
18.95 425.0
18.965 470.0
18.98 458.0
18.995 474.0
19.01 449.0
19.025 441.0
19.04 441.0
19.055 454.0
19.07 473.0
19.085 426.0
19.1 437.0
19.115 459.0
19.13 438.0
19.145 437.0
19.16 440.0
19.175 459.0
19.19 462.0
19.205 458.0
19.22 450.0
19.235 448.0
19.25 443.0
19.265 459.0
19.28 462.0
19.295 446.0
19.31 423.0
19.325 456.0
19.34 475.0
19.355 434.0
19.37 453.0
19.385 429.0
19.4 449.0
19.415 467.0
19.43 466.0
19.445 419.0
19.46 471.0
19.475 459.0
19.49 432.0
19.505 465.0
19.52 436.0
19.535 473.0
19.55 445.0
19.565 426.0
19.58 454.0
19.595 454.0
19.61 461.0
19.625 459.0
19.64 447.0
19.655 437.0
19.67 432.0
19.685 466.0
19.7 487.0
19.715 457.0
19.73 451.0
19.745 454.0
19.76 430.0
19.775 469.0
19.79 455.0
19.805 445.0
19.82 475.0
19.835 456.0
19.85 479.0
19.865 460.0
19.88 477.0
19.895 457.0
19.91 487.0
19.925 475.0
19.94 470.0
19.955 458.0
19.97 466.0
19.985 451.0
20.0 460.0
20.015 472.0
20.03 465.0
20.045 467.0
20.06 458.0
20.075 462.0
20.09 481.0
20.105 486.0
20.12 483.0
20.135 486.0
20.15 473.0
20.165 448.0
20.18 497.0
20.195 484.0
20.21 489.0
20.225 511.0
20.24 494.0
20.255 440.0
20.27 449.0
20.285 465.0
20.3 473.0
20.315 479.0
20.33 484.0
20.345 487.0
20.36 473.0
20.375 480.0
20.39 461.0
20.405 488.0
20.42 482.0
20.435 474.0
20.45 452.0
20.465 459.0
20.48 481.0
20.495 454.0
20.51 489.0
20.525 491.0
20.54 452.0
20.555 487.0
20.57 497.0
20.585 497.0
20.6 484.0
20.615 483.0
20.63 492.0
20.645 495.0
20.66 469.0
20.675 481.0
20.69 502.0
20.705 456.0
20.72 517.0
20.735 514.0
20.75 470.0
20.765 466.0
20.78 480.0
20.795 492.0
20.81 493.0
20.825 474.0
20.84 478.0
20.855 510.0
20.87 488.0
20.885 479.0
20.9 491.0
20.915 485.0
20.93 540.0
20.945 536.0
20.96 514.0
20.975 482.0
20.99 506.0
21.005 505.0
21.02 517.0
21.035 477.0
21.05 497.0
21.065 514.0
21.08 493.0
21.095 519.0
21.11 494.0
21.125 495.0
21.14 487.0
21.155 499.0
21.17 480.0
21.185 507.0
21.2 481.0
21.215 518.0
21.23 539.0
21.245 498.0
21.26 481.0
21.275 507.0
21.29 498.0
21.305 526.0
21.32 504.0
21.335 488.0
21.35 518.0
21.365 487.0
21.38 491.0
21.395 484.0
21.41 470.0
21.425 482.0
21.44 501.0
21.455 514.0
21.47 492.0
21.485 500.0
21.5 555.0
21.515 508.0
21.53 519.0
21.545 545.0
21.56 504.0
21.575 502.0
21.59 508.0
21.605 504.0
21.62 513.0
21.635 475.0
21.65 505.0
21.665 537.0
21.68 502.0
21.695 501.0
21.71 516.0
21.725 524.0
21.74 483.0
21.755 465.0
21.77 519.0
21.785 545.0
21.8 498.0
21.815 522.0
21.83 531.0
21.845 523.0
21.86 483.0
21.875 498.0
21.89 470.0
21.905 509.0
21.92 505.0
21.935 518.0
21.95 495.0
21.965 502.0
21.98 486.0
21.995 518.0
22.01 529.0
22.025 519.0
22.04 511.0
22.055 512.0
22.07 495.0
22.085 507.0
22.1 535.0
22.115 508.0
22.13 536.0
22.145 504.0
22.16 537.0
22.175 548.0
22.19 496.0
22.205 542.0
22.22 544.0
22.235 521.0
22.25 537.0
22.265 524.0
22.28 509.0
22.295 515.0
22.31 526.0
22.325 562.0
22.34 548.0
22.355 528.0
22.37 534.0
22.385 518.0
22.4 524.0
22.415 518.0
22.43 505.0
22.445 521.0
22.46 500.0
22.475 492.0
22.49 530.0
22.505 546.0
22.52 542.0
22.535 556.0
22.55 565.0
22.565 513.0
22.58 517.0
22.595 530.0
22.61 539.0
22.625 517.0
22.64 525.0
22.655 512.0
22.67 541.0
22.685 515.0
22.7 504.0
22.715 523.0
22.73 531.0
22.745 526.0
22.76 547.0
22.775 580.0
22.79 545.0
22.805 512.0
22.82 537.0
22.835 531.0
22.85 554.0
22.865 540.0
22.88 523.0
22.895 524.0
22.91 548.0
22.925 519.0
22.94 534.0
22.955 534.0
22.97 551.0
22.985 540.0
23.0 517.0
23.015 535.0
23.03 518.0
23.045 500.0
23.06 536.0
23.075 523.0
23.09 540.0
23.105 523.0
23.12 527.0
23.135 537.0
23.15 561.0
23.165 583.0
23.18 540.0
23.195 547.0
23.21 537.0
23.225 504.0
23.24 525.0
23.255 531.0
23.27 547.0
23.285 548.0
23.3 574.0
23.315 558.0
23.33 556.0
23.345 580.0
23.36 553.0
23.375 537.0
23.39 528.0
23.405 570.0
23.42 559.0
23.435 557.0
23.45 502.0
23.465 570.0
23.48 559.0
23.495 571.0
23.51 534.0
23.525 568.0
23.54 533.0
23.555 547.0
23.57 570.0
23.585 560.0
23.6 564.0
23.615 562.0
23.63 531.0
23.645 511.0
23.66 538.0
23.675 556.0
23.69 569.0
23.705 536.0
23.72 538.0
23.735 574.0
23.75 569.0
23.765 554.0
23.78 585.0
23.795 541.0
23.81 550.0
23.825 542.0
23.84 566.0
23.855 528.0
23.87 559.0
23.885 535.0
23.9 551.0
23.915 530.0
23.93 589.0
23.945 548.0
23.96 557.0
23.975 579.0
23.99 536.0
24.005 565.0
24.02 577.0
24.035 561.0
24.05 583.0
24.065 567.0
24.08 585.0
24.095 551.0
24.11 565.0
24.125 588.0
24.14 536.0
24.155 579.0
24.17 540.0
24.185 566.0
24.2 548.0
24.215 590.0
24.23 546.0
24.245 575.0
24.26 563.0
24.275 553.0
24.29 595.0
24.305 600.0
24.32 563.0
24.335 563.0
24.35 581.0
24.365 604.0
24.38 564.0
24.395 590.0
24.41 570.0
24.425 585.0
24.44 581.0
24.455 619.0
24.47 569.0
24.485 545.0
24.5 575.0
24.515 601.0
24.53 605.0
24.545 589.0
24.56 615.0
24.575 623.0
24.59 630.0
24.605 575.0
24.62 592.0
24.635 587.0
24.65 578.0
24.665 602.0
24.68 598.0
24.695 590.0
24.71 589.0
24.725 566.0
24.74 563.0
24.755 590.0
24.77 602.0
24.785 578.0
24.8 576.0
24.815 582.0
24.83 587.0
24.845 579.0
24.86 603.0
24.875 597.0
24.89 624.0
24.905 611.0
24.92 587.0
24.935 579.0
24.95 584.0
24.965 563.0
24.98 590.0
24.995 598.0
25.01 601.0
25.025 617.0
25.04 618.0
25.055 584.0
25.07 605.0
25.085 610.0
25.1 621.0
25.115 582.0
25.13 588.0
25.145 601.0
25.16 591.0
25.175 603.0
25.19 594.0
25.205 576.0
25.22 572.0
25.235 609.0
25.25 577.0
25.265 593.0
25.28 617.0
25.295 599.0
25.31 564.0
25.325 603.0
25.34 633.0
25.355 599.0
25.37 624.0
25.385 631.0
25.4 620.0
25.415 600.0
25.43 603.0
25.445 592.0
25.46 609.0
25.475 596.0
25.49 612.0
25.505 632.0
25.52 628.0
25.535 614.0
25.55 602.0
25.565 588.0
25.58 599.0
25.595 616.0
25.61 647.0
25.625 647.0
25.64 655.0
25.655 640.0
25.67 631.0
25.685 606.0
25.7 637.0
25.715 628.0
25.73 631.0
25.745 606.0
25.76 643.0
25.775 647.0
25.79 594.0
25.805 587.0
25.82 631.0
25.835 648.0
25.85 676.0
25.865 607.0
25.88 631.0
25.895 632.0
25.91 654.0
25.925 668.0
25.94 643.0
25.955 617.0
25.97 613.0
25.985 584.0
26.0 612.0
26.015 618.0
26.03 618.0
26.045 662.0
26.06 593.0
26.075 660.0
26.09 648.0
26.105 651.0
26.12 672.0
26.135 664.0
26.15 623.0
26.165 651.0
26.18 670.0
26.195 656.0
26.21 618.0
26.225 673.0
26.24 647.0
26.255 630.0
26.27 655.0
26.285 653.0
26.3 665.0
26.315 655.0
26.33 662.0
26.345 662.0
26.36 664.0
26.375 638.0
26.39 632.0
26.405 654.0
26.42 654.0
26.435 675.0
26.45 654.0
26.465 651.0
26.48 652.0
26.495 692.0
26.51 684.0
26.525 684.0
26.54 643.0
26.555 658.0
26.57 667.0
26.585 686.0
26.6 693.0
26.615 706.0
26.63 644.0
26.645 643.0
26.66 658.0
26.675 632.0
26.69 690.0
26.705 611.0
26.72 696.0
26.735 710.0
26.75 689.0
26.765 718.0
26.78 700.0
26.795 693.0
26.81 667.0
26.825 684.0
26.84 658.0
26.855 662.0
26.87 683.0
26.885 647.0
26.9 652.0
26.915 700.0
26.93 682.0
26.945 709.0
26.96 667.0
26.975 692.0
26.99 695.0
27.005 662.0
27.02 642.0
27.035 679.0
27.05 682.0
27.065 688.0
27.08 693.0
27.095 632.0
27.11 656.0
27.125 645.0
27.14 697.0
27.155 674.0
27.17 694.0
27.185 675.0
27.2 657.0
27.215 661.0
27.23 659.0
27.245 710.0
27.26 683.0
27.275 678.0
27.29 734.0
27.305 719.0
27.32 679.0
27.335 626.0
27.35 609.0
27.365 638.0
27.38 657.0
27.395 667.0
27.41 649.0
27.425 662.0
27.44 637.0
27.455 667.0
27.47 673.0
27.485 637.0
27.5 657.0
27.515 647.0
27.53 614.0
27.545 674.0
27.56 657.0
27.575 654.0
27.59 698.0
27.605 678.0
27.62 679.0
27.635 626.0
27.65 642.0
27.665 632.0
27.68 645.0
27.695 646.0
27.71 627.0
27.725 623.0
27.74 628.0
27.755 610.0
27.77 613.0
27.785 620.0
27.8 601.0
27.815 663.0
27.83 640.0
27.845 640.0
27.86 629.0
27.875 617.0
27.89 630.0
27.905 630.0
27.92 615.0
27.935 607.0
27.95 615.0
27.965 610.0
27.98 600.0
27.995 614.0
28.01 582.0
28.025 576.0
28.04 603.0
28.055 598.0
28.07 612.0
28.085 635.0
28.1 626.0
28.115 619.0
28.13 589.0
28.145 565.0
28.16 598.0
28.175 582.0
28.19 609.0
28.205 565.0
28.22 563.0
28.235 582.0
28.25 572.0
28.265 605.0
28.28 598.0
28.295 577.0
28.31 549.0
28.325 554.0
28.34 548.0
28.355 552.0
28.37 560.0
28.385 549.0
28.4 585.0
28.415 555.0
28.43 564.0
28.445 546.0
28.46 535.0
28.475 560.0
28.49 593.0
28.505 587.0
28.52 562.0
28.535 563.0
28.55 557.0
28.565 548.0
28.58 569.0
28.595 527.0
28.61 551.0
28.625 563.0
28.64 524.0
28.655 574.0
28.67 548.0
28.685 530.0
28.7 545.0
28.715 489.0
28.73 510.0
28.745 502.0
28.76 520.0
28.775 528.0
28.79 517.0
28.805 502.0
28.82 537.0
28.835 519.0
28.85 499.0
28.865 509.0
28.88 534.0
28.895 516.0
28.91 506.0
28.925 522.0
28.94 521.0
28.955 546.0
28.97 529.0
28.985 511.0
29.0 506.0
29.015 523.0
29.03 498.0
29.045 515.0
29.06 510.0
29.075 520.0
29.09 505.0
29.105 519.0
29.12 492.0
29.135 476.0
29.15 519.0
29.165 537.0
29.18 512.0
29.195 517.0
29.21 476.0
29.225 491.0
29.24 521.0
29.255 504.0
29.27 515.0
29.285 507.0
29.3 499.0
29.315 507.0
29.33 494.0
29.345 509.0
29.36 492.0
29.375 469.0
29.39 477.0
29.405 483.0
29.42 458.0
29.435 451.0
29.45 461.0
29.465 455.0
29.48 479.0
29.495 499.0
29.51 452.0
29.525 490.0
29.54 468.0
29.555 450.0
29.57 454.0
29.585 477.0
29.6 463.0
29.615 477.0
29.63 445.0
29.645 469.0
29.66 475.0
29.675 456.0
29.69 465.0
29.705 464.0
29.72 483.0
29.735 465.0
29.75 480.0
29.765 459.0
29.78 480.0
29.795 481.0
29.81 455.0
29.825 472.0
29.84 450.0
29.855 432.0
29.87 435.0
29.885 453.0
29.9 475.0
29.915 506.0
29.93 462.0
29.945 474.0
29.96 476.0
29.975 443.0
29.99 446.0
30.005 459.0
30.02 465.0
30.035 422.0
30.05 443.0
30.065 439.0
30.08 454.0
30.095 450.0
30.11 408.0
30.125 446.0
30.14 455.0
30.155 445.0
30.17 429.0
30.185 469.0
30.2 453.0
30.215 439.0
30.23 418.0
30.245 430.0
30.26 455.0
30.275 436.0
30.29 434.0
30.305 435.0
30.32 451.0
30.335 465.0
30.35 429.0
30.365 431.0
30.38 413.0
30.395 433.0
30.41 437.0
30.425 437.0
30.44 459.0
30.455 467.0
30.47 450.0
30.485 450.0
30.5 411.0
30.515 405.0
30.53 427.0
30.545 443.0
30.56 446.0
30.575 440.0
30.59 440.0
30.605 421.0
30.62 408.0
30.635 427.0
30.65 444.0
30.665 411.0
30.68 404.0
30.695 406.0
30.71 396.0
30.725 416.0
30.74 419.0
30.755 413.0
30.77 395.0
30.785 403.0
30.8 405.0
30.815 420.0
30.83 420.0
30.845 439.0
30.86 412.0
30.875 424.0
30.89 422.0
30.905 394.0
30.92 406.0
30.935 392.0
30.95 390.0
30.965 400.0
30.98 406.0
30.995 409.0
31.01 409.0
31.025 417.0
31.04 405.0
31.055 437.0
31.07 393.0
31.085 408.0
31.1 422.0
31.115 426.0
31.13 430.0
31.145 409.0
31.16 411.0
31.175 391.0
31.19 371.0
31.205 418.0
31.22 425.0
31.235 404.0
31.25 396.0
31.265 385.0
31.28 387.0
31.295 404.0
31.31 422.0
31.325 405.0
31.34 402.0
31.355 410.0
31.37 407.0
31.385 384.0
31.4 405.0
31.415 395.0
31.43 397.0
31.445 391.0
31.46 415.0
31.475 394.0
31.49 370.0
31.505 356.0
31.52 386.0
31.535 384.0
31.55 362.0
31.565 388.0
31.58 366.0
31.595 391.0
31.61 414.0
31.625 374.0
31.64 381.0
31.655 396.0
31.67 390.0
31.685 366.0
31.7 365.0
31.715 371.0
31.73 388.0
31.745 386.0
31.76 341.0
31.775 371.0
31.79 357.0
31.805 355.0
31.82 382.0
31.835 399.0
31.85 392.0
31.865 371.0
31.88 392.0
31.895 398.0
31.91 380.0
31.925 368.0
31.94 371.0
31.955 377.0
31.97 375.0
31.985 389.0
32.0 374.0
32.015 401.0
32.03 375.0
32.045 374.0
32.06 383.0
32.075 377.0
32.09 390.0
32.105 401.0
32.12 365.0
32.135 346.0
32.15 374.0
32.165 366.0
32.18 363.0
32.195 365.0
32.21 355.0
32.225 384.0
32.24 373.0
32.255 366.0
32.27 363.0
32.285 358.0
32.3 338.0
32.315 361.0
32.33 357.0
32.345 343.0
32.36 323.0
32.375 327.0
32.39 350.0
32.405 355.0
32.42 342.0
32.435 378.0
32.45 357.0
32.465 344.0
32.48 352.0
32.495 364.0
32.51 360.0
32.525 371.0
32.54 369.0
32.555 364.0
32.57 358.0
32.585 326.0
32.6 355.0
32.615 364.0
32.63 326.0
32.645 330.0
32.66 363.0
32.675 341.0
32.69 352.0
32.705 339.0
32.72 330.0
32.735 345.0
32.75 355.0
32.765 330.0
32.78 354.0
32.795 366.0
32.81 364.0
32.825 331.0
32.84 331.0
32.855 337.0
32.87 336.0
32.885 361.0
32.9 367.0
32.915 339.0
32.93 341.0
32.945 353.0
32.96 322.0
32.975 329.0
32.99 349.0
33.005 338.0
33.02 349.0
33.035 328.0
33.05 321.0
33.065 318.0
33.08 340.0
33.095 339.0
33.11 344.0
33.125 353.0
33.14 338.0
33.155 354.0
33.17 336.0
33.185 347.0
33.2 311.0
33.215 341.0
33.23 341.0
33.245 295.0
33.26 337.0
33.275 342.0
33.29 311.0
33.305 354.0
33.32 346.0
33.335 364.0
33.35 334.0
33.365 312.0
33.38 332.0
33.395 327.0
33.41 322.0
33.425 313.0
33.44 323.0
33.455 336.0
33.47 322.0
33.485 294.0
33.5 340.0
33.515 352.0
33.53 351.0
33.545 317.0
33.56 337.0
33.575 326.0
33.59 344.0
33.605 345.0
33.62 337.0
33.635 346.0
33.65 309.0
33.665 335.0
33.68 323.0
33.695 326.0
33.71 345.0
33.725 363.0
33.74 324.0
33.755 317.0
33.77 338.0
33.785 315.0
33.8 347.0
33.815 323.0
33.83 324.0
33.845 318.0
33.86 337.0
33.875 304.0
33.89 316.0
33.905 317.0
33.92 321.0
33.935 313.0
33.95 304.0
33.965 338.0
33.98 328.0
33.995 307.0
34.01 323.0
34.025 341.0
34.04 329.0
34.055 303.0
34.07 306.0
34.085 302.0
34.1 324.0
34.115 288.0
34.13 323.0
34.145 321.0
34.16 299.0
34.175 296.0
34.19 305.0
34.205 312.0
34.22 319.0
34.235 312.0
34.25 285.0
34.265 307.0
34.28 282.0
34.295 299.0
34.31 298.0
34.325 316.0
34.34 324.0
34.355 279.0
34.37 290.0
34.385 308.0
34.4 308.0
34.415 293.0
34.43 307.0
34.445 287.0
34.46 273.0
34.475 318.0
34.49 270.0
34.505 272.0
34.52 298.0
34.535 309.0
34.55 285.0
34.565 293.0
34.58 316.0
34.595 293.0
34.61 287.0
34.625 278.0
34.64 300.0
34.655 291.0
34.67 293.0
34.685 302.0
34.7 255.0
34.715 288.0
34.73 288.0
34.745 279.0
34.76 286.0
34.775 296.0
34.79 275.0
34.805 262.0
34.82 298.0
34.835 298.0
34.85 289.0
34.865 255.0
34.88 286.0
34.895 300.0
34.91 277.0
34.925 280.0
34.94 283.0
34.955 291.0
34.97 288.0
34.985 304.0
35.0 308.0
35.015 323.0
35.03 285.0
35.045 317.0
35.06 290.0
35.075 279.0
35.09 271.0
35.105 285.0
35.12 297.0
35.135 306.0
35.15 279.0
35.165 283.0
35.18 287.0
35.195 297.0
35.21 293.0
35.225 320.0
35.24 308.0
35.255 284.0
35.27 266.0
35.285 296.0
35.3 297.0
35.315 292.0
35.33 275.0
35.345 301.0
35.36 303.0
35.375 288.0
35.39 291.0
35.405 282.0
35.42 287.0
35.435 266.0
35.45 274.0
35.465 270.0
35.48 266.0
35.495 291.0
35.51 288.0
35.525 273.0
35.54 281.0
35.555 293.0
35.57 294.0
35.585 267.0
35.6 257.0
35.615 272.0
35.63 265.0
35.645 268.0
35.66 291.0
35.675 303.0
35.69 292.0
35.705 251.0
35.72 260.0
35.735 273.0
35.75 286.0
35.765 296.0
35.78 280.0
35.795 272.0
35.81 280.0
35.825 274.0
35.84 276.0
35.855 283.0
35.87 267.0
35.885 262.0
35.9 262.0
35.915 268.0
35.93 282.0
35.945 274.0
35.96 289.0
35.975 278.0
35.99 273.0
36.005 279.0
36.02 286.0
36.035 251.0
36.05 257.0
36.065 278.0
36.08 291.0
36.095 272.0
36.11 289.0
36.125 273.0
36.14 256.0
36.155 291.0
36.17 260.0
36.185 241.0
36.2 267.0
36.215 281.0
36.23 271.0
36.245 270.0
36.26 245.0
36.275 257.0
36.29 270.0
36.305 260.0
36.32 249.0
36.335 265.0
36.35 273.0
36.365 273.0
36.38 270.0
36.395 257.0
36.41 257.0
36.425 261.0
36.44 269.0
36.455 257.0
36.47 261.0
36.485 254.0
36.5 243.0
36.515 273.0
36.53 271.0
36.545 231.0
36.56 235.0
36.575 253.0
36.59 282.0
36.605 302.0
36.62 268.0
36.635 268.0
36.65 257.0
36.665 275.0
36.68 274.0
36.695 294.0
36.71 273.0
36.725 274.0
36.74 259.0
36.755 267.0
36.77 268.0
36.785 273.0
36.8 274.0
36.815 264.0
36.83 241.0
36.845 272.0
36.86 284.0
36.875 245.0
36.89 236.0
36.905 268.0
36.92 271.0
36.935 259.0
36.95 245.0
36.965 232.0
36.98 257.0
36.995 270.0
37.01 275.0
37.025 267.0
37.04 237.0
37.055 273.0
37.07 280.0
37.085 273.0
37.1 259.0
37.115 242.0
37.13 233.0
37.145 242.0
37.16 239.0
37.175 268.0
37.19 261.0
37.205 253.0
37.22 287.0
37.235 269.0
37.25 255.0
37.265 250.0
37.28 269.0
37.295 234.0
37.31 242.0
37.325 243.0
37.34 249.0
37.355 245.0
37.37 251.0
37.385 255.0
37.4 261.0
37.415 238.0
37.43 244.0
37.445 248.0
37.46 248.0
37.475 261.0
37.49 253.0
37.505 254.0
37.52 259.0
37.535 259.0
37.55 246.0
37.565 248.0
37.58 243.0
37.595 251.0
37.61 262.0
37.625 219.0
37.64 232.0
37.655 271.0
37.67 272.0
37.685 254.0
37.7 247.0
37.715 256.0
37.73 240.0
37.745 273.0
37.76 265.0
37.775 249.0
37.79 258.0
37.805 269.0
37.82 245.0
37.835 246.0
37.85 242.0
37.865 263.0
37.88 243.0
37.895 256.0
37.91 253.0
37.925 251.0
37.94 258.0
37.955 253.0
37.97 243.0
37.985 255.0
38.0 249.0
38.015 252.0
38.03 255.0
38.045 238.0
38.06 239.0
38.075 242.0
38.09 213.0
38.105 242.0
38.12 226.0
38.135 234.0
38.15 226.0
38.165 243.0
38.18 248.0
38.195 239.0
38.21 233.0
38.225 257.0
38.24 254.0
38.255 225.0
38.27 253.0
38.285 235.0
38.3 234.0
38.315 242.0
38.33 253.0
38.345 241.0
38.36 237.0
38.375 227.0
38.39 245.0
38.405 267.0
38.42 248.0
38.435 232.0
38.45 240.0
38.465 245.0
38.48 232.0
38.495 230.0
38.51 236.0
38.525 243.0
38.54 252.0
38.555 248.0
38.57 224.0
38.585 259.0
38.6 261.0
38.615 234.0
38.63 213.0
38.645 227.0
38.66 231.0
38.675 252.0
38.69 230.0
38.705 238.0
38.72 252.0
38.735 244.0
38.75 222.0
38.765 238.0
38.78 234.0
38.795 240.0
38.81 232.0
38.825 240.0
38.84 244.0
38.855 269.0
38.87 214.0
38.885 248.0
38.9 226.0
38.915 232.0
38.93 243.0
38.945 258.0
38.96 231.0
38.975 243.0
38.99 235.0
39.005 230.0
39.02 218.0
39.035 232.0
39.05 228.0
39.065 222.0
39.08 235.0
39.095 241.0
39.11 255.0
39.125 225.0
39.14 214.0
39.155 224.0
39.17 224.0
39.185 221.0
39.2 228.0
39.215 200.0
39.23 228.0
39.245 209.0
39.26 247.0
39.275 225.0
39.29 253.0
39.305 223.0
39.32 234.0
39.335 238.0
39.35 235.0
39.365 226.0
39.38 225.0
39.395 218.0
39.41 225.0
39.425 229.0
39.44 239.0
39.455 244.0
39.47 243.0
39.485 237.0
39.5 251.0
39.515 209.0
39.53 227.0
39.545 206.0
39.56 224.0
39.575 245.0
39.59 232.0
39.605 221.0
39.62 214.0
39.635 235.0
39.65 215.0
39.665 239.0
39.68 219.0
39.695 214.0
39.71 230.0
39.725 230.0
39.74 223.0
39.755 224.0
39.77 215.0
39.785 231.0
39.8 228.0
39.815 221.0
39.83 232.0
39.845 223.0
39.86 222.0
39.875 179.0
39.89 210.0
39.905 235.0
39.92 222.0
39.935 230.0
39.95 256.0
39.965 213.0
39.98 223.0
39.995 225.0
40.01 218.0
40.025 209.0
40.04 233.0
40.055 227.0
40.07 230.0
40.085 237.0
40.1 225.0
40.115 232.0
40.13 222.0
40.145 211.0
40.16 213.0
40.175 224.0
40.19 227.0
40.205 224.0
40.22 223.0
40.235 226.0
40.25 252.0
40.265 239.0
40.28 222.0
40.295 226.0
40.31 228.0
40.325 227.0
40.34 228.0
40.355 251.0
40.37 236.0
40.385 237.0
40.4 233.0
40.415 224.0
40.43 234.0
40.445 216.0
40.46 218.0
40.475 220.0
40.49 204.0
40.505 210.0
40.52 223.0
40.535 219.0
40.55 219.0
40.565 239.0
40.58 231.0
40.595 239.0
40.61 232.0
40.625 231.0
40.64 221.0
40.655 232.0
40.67 236.0
40.685 234.0
40.7 211.0
40.715 208.0
40.73 228.0
40.745 209.0
40.76 212.0
40.775 216.0
40.79 227.0
40.805 215.0
40.82 222.0
40.835 226.0
40.85 230.0
40.865 223.0
40.88 252.0
40.895 254.0
40.91 224.0
40.925 205.0
40.94 222.0
40.955 229.0
40.97 223.0
40.985 238.0
41.0 227.0
41.015 226.0
41.03 227.0
41.045 231.0
41.06 228.0
41.075 225.0
41.09 213.0
41.105 206.0
41.12 233.0
41.135 197.0
41.15 227.0
41.165 232.0
41.18 213.0
41.195 238.0
41.21 237.0
41.225 219.0
41.24 223.0
41.255 231.0
41.27 230.0
41.285 240.0
41.3 242.0
41.315 225.0
41.33 221.0
41.345 227.0
41.36 228.0
41.375 221.0
41.39 232.0
41.405 232.0
41.42 226.0
41.435 260.0
41.45 229.0
41.465 225.0
41.48 220.0
41.495 214.0
41.51 220.0
41.525 235.0
41.54 227.0
41.555 227.0
41.57 210.0
41.585 231.0
41.6 205.0
41.615 232.0
41.63 209.0
41.645 222.0
41.66 217.0
41.675 227.0
41.69 216.0
41.705 206.0
41.72 208.0
41.735 221.0
41.75 220.0
41.765 226.0
41.78 215.0
41.795 219.0
41.81 203.0
41.825 235.0
41.84 232.0
41.855 235.0
41.87 219.0
41.885 226.0
41.9 211.0
41.915 214.0
41.93 208.0
41.945 230.0
41.96 238.0
41.975 230.0
41.99 231.0
42.005 208.0
42.02 207.0
42.035 231.0
42.05 241.0
42.065 217.0
42.08 219.0
42.095 232.0
42.11 219.0
42.125 216.0
42.14 209.0
42.155 216.0
42.17 235.0
42.185 203.0
42.2 237.0
42.215 238.0
42.23 229.0
42.245 226.0
42.26 202.0
42.275 211.0
42.29 222.0
42.305 223.0
42.32 226.0
42.335 214.0
42.35 219.0
42.365 228.0
42.38 221.0
42.395 230.0
42.41 232.0
42.425 233.0
42.44 223.0
42.455 226.0
42.47 208.0
42.485 223.0
42.5 226.0
42.515 219.0
42.53 232.0
42.545 233.0
42.56 221.0
42.575 238.0
42.59 240.0
42.605 227.0
42.62 214.0
42.635 206.0
42.65 217.0
42.665 219.0
42.68 231.0
42.695 245.0
42.71 231.0
42.725 233.0
42.74 207.0
42.755 203.0
42.77 205.0
42.785 208.0
42.8 217.0
42.815 241.0
42.83 238.0
42.845 213.0
42.86 226.0
42.875 218.0
42.89 233.0
42.905 224.0
42.92 209.0
42.935 221.0
42.95 204.0
42.965 204.0
42.98 215.0
42.995 226.0
43.01 212.0
43.025 229.0
43.04 232.0
43.055 207.0
43.07 217.0
43.085 228.0
43.1 216.0
43.115 227.0
43.13 208.0
43.145 220.0
43.16 216.0
43.175 224.0
43.19 220.0
43.205 208.0
43.22 215.0
43.235 221.0
43.25 213.0
43.265 229.0
43.28 219.0
43.295 215.0
43.31 200.0
43.325 227.0
43.34 210.0
43.355 219.0
43.37 199.0
43.385 219.0
43.4 200.0
43.415 219.0
43.43 224.0
43.445 207.0
43.46 223.0
43.475 203.0
43.49 210.0
43.505 207.0
43.52 208.0
43.535 228.0
43.55 217.0
43.565 198.0
43.58 191.0
43.595 206.0
43.61 205.0
43.625 214.0
43.64 202.0
43.655 236.0
43.67 215.0
43.685 202.0
43.7 218.0
43.715 210.0
43.73 188.0
43.745 203.0
43.76 242.0
43.775 210.0
43.79 191.0
43.805 213.0
43.82 229.0
43.835 219.0
43.85 217.0
43.865 213.0
43.88 214.0
43.895 222.0
43.91 228.0
43.925 214.0
43.94 216.0
43.955 206.0
43.97 215.0
43.985 222.0
44.0 224.0
44.015 216.0
44.03 206.0
44.045 221.0
44.06 206.0
44.075 199.0
44.09 222.0
44.105 205.0
44.12 214.0
44.135 228.0
44.15 215.0
44.165 212.0
44.18 213.0
44.195 213.0
44.21 210.0
44.225 219.0
44.24 222.0
44.255 212.0
44.27 233.0
44.285 221.0
44.3 212.0
44.315 197.0
44.33 209.0
44.345 198.0
44.36 199.0
44.375 210.0
44.39 221.0
44.405 205.0
44.42 215.0
44.435 217.0
44.45 216.0
44.465 201.0
44.48 212.0
44.495 212.0
44.51 199.0
44.525 193.0
44.54 215.0
44.555 210.0
44.57 187.0
44.585 190.0
44.6 183.0
44.615 200.0
44.63 213.0
44.645 207.0
44.66 207.0
44.675 199.0
44.69 204.0
44.705 201.0
44.72 206.0
44.735 209.0
44.75 219.0
44.765 186.0
44.78 201.0
44.795 196.0
44.81 203.0
44.825 222.0
44.84 227.0
44.855 206.0
44.87 201.0
44.885 225.0
44.9 207.0
44.915 213.0
44.93 213.0
44.945 203.0
44.96 204.0
44.975 209.0
44.99 218.0
45.005 211.0
45.02 209.0
45.035 203.0
45.05 190.0
45.065 188.0
45.08 196.0
45.095 213.0
45.11 219.0
45.125 239.0
45.14 198.0
45.155 205.0
45.17 213.0
45.185 198.0
45.2 191.0
45.215 196.0
45.23 196.0
45.245 207.0
45.26 212.0
45.275 208.0
45.29 200.0
45.305 212.0
45.32 214.0
45.335 208.0
45.35 207.0
45.365 211.0
45.38 198.0
45.395 189.0
45.41 196.0
45.425 214.0
45.44 203.0
45.455 211.0
45.47 208.0
45.485 196.0
45.5 182.0
45.515 202.0
45.53 200.0
45.545 197.0
45.56 201.0
45.575 210.0
45.59 195.0
45.605 180.0
45.62 191.0
45.635 194.0
45.65 195.0
45.665 193.0
45.68 204.0
45.695 203.0
45.71 215.0
45.725 207.0
45.74 187.0
45.755 210.0
45.77 190.0
45.785 190.0
45.8 206.0
45.815 207.0
45.83 210.0
45.845 182.0
45.86 202.0
45.875 208.0
45.89 215.0
45.905 221.0
45.92 208.0
45.935 199.0
45.95 210.0
45.965 192.0
45.98 197.0
45.995 197.0
46.01 199.0
46.025 193.0
46.04 218.0
46.055 201.0
46.07 198.0
46.085 213.0
46.1 200.0
46.115 206.0
46.13 191.0
46.145 218.0
46.16 218.0
46.175 187.0
46.19 189.0
46.205 179.0
46.22 183.0
46.235 201.0
46.25 206.0
46.265 180.0
46.28 212.0
46.295 215.0
46.31 200.0
46.325 205.0
46.34 209.0
46.355 200.0
46.37 184.0
46.385 193.0
46.4 211.0
46.415 194.0
46.43 198.0
46.445 206.0
46.46 194.0
46.475 199.0
46.49 195.0
46.505 196.0
46.52 196.0
46.535 185.0
46.55 193.0
46.565 192.0
46.58 188.0
46.595 220.0
46.61 208.0
46.625 185.0
46.64 166.0
46.655 205.0
46.67 209.0
46.685 189.0
46.7 198.0
46.715 190.0
46.73 178.0
46.745 202.0
46.76 208.0
46.775 191.0
46.79 191.0
46.805 195.0
46.82 193.0
46.835 209.0
46.85 223.0
46.865 202.0
46.88 168.0
46.895 174.0
46.91 206.0
46.925 190.0
46.94 177.0
46.955 200.0
46.97 198.0
46.985 194.0
47.0 190.0
47.015 154.0
47.03 178.0
47.045 184.0
47.06 176.0
47.075 197.0
47.09 202.0
47.105 194.0
47.12 195.0
47.135 198.0
47.15 211.0
47.165 203.0
47.18 203.0
47.195 197.0
47.21 200.0
47.225 194.0
47.24 181.0
47.255 208.0
47.27 191.0
47.285 200.0
47.3 206.0
47.315 183.0
47.33 170.0
47.345 166.0
47.36 162.0
47.375 197.0
47.39 187.0
47.405 181.0
47.42 199.0
47.435 188.0
47.45 189.0
47.465 186.0
47.48 176.0
47.495 184.0
47.51 197.0
47.525 193.0
47.54 178.0
47.555 182.0
47.57 195.0
47.585 198.0
47.6 201.0
47.615 183.0
47.63 207.0
47.645 191.0
47.66 187.0
47.675 184.0
47.69 199.0
47.705 182.0
47.72 179.0
47.735 203.0
47.75 190.0
47.765 178.0
47.78 186.0
47.795 186.0
47.81 193.0
47.825 202.0
47.84 196.0
47.855 192.0
47.87 176.0
47.885 202.0
47.9 198.0
47.915 182.0
47.93 182.0
47.945 181.0
47.96 187.0
47.975 185.0
47.99 187.0
48.005 174.0
48.02 166.0
48.035 184.0
48.05 178.0
48.065 183.0
48.08 177.0
48.095 195.0
48.11 205.0
48.125 190.0
48.14 189.0
48.155 176.0
48.17 169.0
48.185 167.0
48.2 170.0
48.215 188.0
48.23 175.0
48.245 171.0
48.26 183.0
48.275 176.0
48.29 157.0
48.305 172.0
48.32 177.0
48.335 184.0
48.35 182.0
48.365 180.0
48.38 191.0
48.395 191.0
48.41 185.0
48.425 178.0
48.44 167.0
48.455 184.0
48.47 185.0
48.485 182.0
48.5 191.0
48.515 178.0
48.53 178.0
48.545 180.0
48.56 204.0
48.575 190.0
48.59 199.0
48.605 174.0
48.62 178.0
48.635 173.0
48.65 161.0
48.665 189.0
48.68 176.0
48.695 175.0
48.71 184.0
48.725 180.0
48.74 177.0
48.755 179.0
48.77 157.0
48.785 171.0
48.8 170.0
48.815 167.0
48.83 179.0
48.845 171.0
48.86 184.0
48.875 173.0
48.89 177.0
48.905 189.0
48.92 196.0
48.935 177.0
48.95 179.0
48.965 183.0
48.98 175.0
48.995 192.0
49.01 188.0
49.025 179.0
49.04 174.0
49.055 180.0
49.07 190.0
49.085 181.0
49.1 159.0
49.115 170.0
49.13 176.0
49.145 164.0
49.16 189.0
49.175 171.0
49.19 173.0
49.205 201.0
49.22 174.0
49.235 177.0
49.25 188.0
49.265 181.0
49.28 177.0
49.295 179.0
49.31 188.0
49.325 204.0
49.34 178.0
49.355 182.0
49.37 182.0
49.385 168.0
49.4 179.0
49.415 166.0
49.43 159.0
49.445 163.0
49.46 184.0
49.475 189.0
49.49 175.0
49.505 191.0
49.52 184.0
49.535 161.0
49.55 168.0
49.565 176.0
49.58 181.0
49.595 187.0
49.61 192.0
49.625 175.0
49.64 175.0
49.655 182.0
49.67 173.0
49.685 179.0
49.7 164.0
49.715 196.0
49.73 167.0
49.745 164.0
49.76 160.0
49.775 151.0
49.79 163.0
49.805 158.0
49.82 163.0
49.835 176.0
49.85 179.0
49.865 167.0
49.88 149.0
49.895 174.0
49.91 180.0
49.925 178.0
49.94 144.0
49.955 164.0
49.97 169.0
49.985 167.0
50.0 174.0
50.015 198.0
50.03 174.0
50.045 177.0
50.06 156.0
50.075 166.0
50.09 167.0
50.105 176.0
50.12 164.0
50.135 182.0
50.15 180.0
50.165 163.0
50.18 174.0
50.195 181.0
50.21 161.0
50.225 175.0
50.24 159.0
50.255 160.0
50.27 166.0
50.285 152.0
50.3 170.0
50.315 151.0
50.33 170.0
50.345 169.0
50.36 171.0
50.375 175.0
50.39 180.0
50.405 178.0
50.42 183.0
50.435 174.0
50.45 172.0
50.465 178.0
50.48 180.0
50.495 170.0
50.51 173.0
50.525 166.0
50.54 165.0
50.555 177.0
50.57 159.0
50.585 175.0
50.6 159.0
50.615 175.0
50.63 178.0
50.645 191.0
50.66 164.0
50.675 159.0
50.69 168.0
50.705 173.0
50.72 167.0
50.735 168.0
50.75 177.0
50.765 165.0
50.78 180.0
50.795 182.0
50.81 160.0
50.825 148.0
50.84 163.0
50.855 157.0
50.87 156.0
50.885 171.0
50.9 168.0
50.915 172.0
50.93 158.0
50.945 158.0
50.96 161.0
50.975 153.0
50.99 168.0
51.005 170.0
51.02 171.0
51.035 171.0
51.05 154.0
51.065 166.0
51.08 173.0
51.095 175.0
51.11 172.0
51.125 162.0
51.14 161.0
51.155 163.0
51.17 165.0
51.185 196.0
51.2 179.0
51.215 168.0
51.23 172.0
51.245 172.0
51.26 167.0
51.275 165.0
51.29 156.0
51.305 168.0
51.32 188.0
51.335 164.0
51.35 163.0
51.365 143.0
51.38 170.0
51.395 169.0
51.41 157.0
51.425 154.0
51.44 156.0
51.455 152.0
51.47 179.0
51.485 189.0
51.5 178.0
51.515 152.0
51.53 141.0
51.545 167.0
51.56 166.0
51.575 162.0
51.59 187.0
51.605 155.0
51.62 168.0
51.635 169.0
51.65 156.0
51.665 156.0
51.68 172.0
51.695 149.0
51.71 164.0
51.725 150.0
51.74 167.0
51.755 172.0
51.77 165.0
51.785 162.0
51.8 187.0
51.815 178.0
51.83 187.0
51.845 165.0
51.86 155.0
51.875 161.0
51.89 159.0
51.905 153.0
51.92 171.0
51.935 177.0
51.95 183.0
51.965 171.0
51.98 169.0
51.995 182.0
52.01 176.0
52.025 172.0
52.04 150.0
52.055 167.0
52.07 178.0
52.085 169.0
52.1 177.0
52.115 182.0
52.13 175.0
52.145 168.0
52.16 169.0
52.175 151.0
52.19 164.0
52.205 170.0
52.22 148.0
52.235 169.0
52.25 163.0
52.265 171.0
52.28 167.0
52.295 158.0
52.31 162.0
52.325 164.0
52.34 158.0
52.355 157.0
52.37 168.0
52.385 166.0
52.4 157.0
52.415 171.0
52.43 170.0
52.445 171.0
52.46 164.0
52.475 166.0
52.49 162.0
52.505 149.0
52.52 154.0
52.535 171.0
52.55 155.0
52.565 148.0
52.58 155.0
52.595 162.0
52.61 163.0
52.625 141.0
52.64 148.0
52.655 148.0
52.67 156.0
52.685 151.0
52.7 165.0
52.715 159.0
52.73 152.0
52.745 158.0
52.76 137.0
52.775 166.0
52.79 164.0
52.805 160.0
52.82 156.0
52.835 190.0
52.85 152.0
52.865 159.0
52.88 148.0
52.895 152.0
52.91 136.0
52.925 157.0
52.94 165.0
52.955 164.0
52.97 154.0
52.985 163.0
53.0 172.0
53.015 174.0
53.03 165.0
53.045 171.0
53.06 157.0
53.075 163.0
53.09 150.0
53.105 156.0
53.12 157.0
53.135 158.0
53.15 155.0
53.165 165.0
53.18 182.0
53.195 165.0
53.21 161.0
53.225 157.0
53.24 168.0
53.255 160.0
53.27 164.0
53.285 156.0
53.3 152.0
53.315 155.0
53.33 155.0
53.345 173.0
53.36 159.0
53.375 159.0
53.39 168.0
53.405 161.0
53.42 155.0
53.435 159.0
53.45 157.0
53.465 181.0
53.48 162.0
53.495 153.0
53.51 143.0
53.525 160.0
53.54 153.0
53.555 172.0
53.57 169.0
53.585 175.0
53.6 148.0
53.615 135.0
53.63 158.0
53.645 166.0
53.66 162.0
53.675 157.0
53.69 168.0
53.705 171.0
53.72 167.0
53.735 161.0
53.75 164.0
53.765 146.0
53.78 155.0
53.795 168.0
53.81 148.0
53.825 152.0
53.84 174.0
53.855 163.0
53.87 148.0
53.885 167.0
53.9 164.0
53.915 156.0
53.93 162.0
53.945 150.0
53.96 144.0
53.975 164.0
53.99 153.0
54.005 155.0
54.02 167.0
54.035 158.0
54.05 171.0
54.065 160.0
54.08 164.0
54.095 152.0
54.11 155.0
54.125 151.0
54.14 148.0
54.155 157.0
54.17 173.0
54.185 156.0
54.2 147.0
54.215 145.0
54.23 136.0
54.245 140.0
54.26 153.0
54.275 159.0
54.29 166.0
54.305 157.0
54.32 174.0
54.335 169.0
54.35 169.0
54.365 151.0
54.38 159.0
54.395 170.0
54.41 165.0
54.425 146.0
54.44 161.0
54.455 159.0
54.47 147.0
54.485 149.0
54.5 155.0
54.515 151.0
54.53 146.0
54.545 154.0
54.56 172.0
54.575 165.0
54.59 167.0
54.605 157.0
54.62 161.0
54.635 147.0
54.65 154.0
54.665 164.0
54.68 164.0
54.695 140.0
54.71 157.0
54.725 155.0
54.74 161.0
54.755 147.0
54.77 150.0
54.785 177.0
54.8 158.0
54.815 157.0
54.83 160.0
54.845 154.0
54.86 172.0
54.875 156.0
54.89 162.0
54.905 156.0
54.92 159.0
54.935 162.0
54.95 156.0
54.965 144.0
54.98 168.0
54.995 162.0
55.01 170.0
55.025 166.0
55.04 154.0
55.055 168.0
55.07 169.0
55.085 182.0
55.1 158.0
55.115 149.0
55.13 168.0
55.145 170.0
55.16 167.0
55.175 165.0
55.19 164.0
55.205 159.0
55.22 145.0
55.235 169.0
55.25 159.0
55.265 168.0
55.28 178.0
55.295 152.0
55.31 172.0
55.325 163.0
55.34 174.0
55.355 163.0
55.37 160.0
55.385 154.0
55.4 166.0
55.415 163.0
55.43 169.0
55.445 168.0
55.46 155.0
55.475 154.0
55.49 165.0
55.505 142.0
55.52 144.0
55.535 158.0
55.55 158.0
55.565 156.0
55.58 162.0
55.595 147.0
55.61 139.0
55.625 157.0
55.64 167.0
55.655 134.0
55.67 149.0
55.685 157.0
55.7 156.0
55.715 171.0
55.73 168.0
55.745 151.0
55.76 146.0
55.775 163.0
55.79 166.0
55.805 156.0
55.82 151.0
55.835 170.0
55.85 165.0
55.865 165.0
55.88 150.0
55.895 149.0
55.91 153.0
55.925 144.0
55.94 154.0
55.955 152.0
55.97 148.0
55.985 175.0
56.0 147.0
56.015 149.0
56.03 167.0
56.045 166.0
56.06 156.0
56.075 133.0
56.09 163.0
56.105 172.0
56.12 148.0
56.135 152.0
56.15 144.0
56.165 152.0
56.18 157.0
56.195 172.0
56.21 168.0
56.225 149.0
56.24 168.0
56.255 159.0
56.27 152.0
56.285 167.0
56.3 167.0
56.315 169.0
56.33 151.0
56.345 149.0
56.36 146.0
56.375 157.0
56.39 146.0
56.405 160.0
56.42 155.0
56.435 160.0
56.45 141.0
56.465 138.0
56.48 148.0
56.495 164.0
56.51 155.0
56.525 162.0
56.54 148.0
56.555 167.0
56.57 179.0
56.585 160.0
56.6 146.0
56.615 177.0
56.63 143.0
56.645 162.0
56.66 138.0
56.675 149.0
56.69 170.0
56.705 158.0
56.72 153.0
56.735 146.0
56.75 167.0
56.765 148.0
56.78 151.0
56.795 156.0
56.81 158.0
56.825 159.0
56.84 168.0
56.855 162.0
56.87 165.0
56.885 154.0
56.9 173.0
56.915 162.0
56.93 142.0
56.945 142.0
56.96 149.0
56.975 172.0
56.99 167.0
57.005 149.0
57.02 146.0
57.035 168.0
57.05 176.0
57.065 146.0
57.08 159.0
57.095 152.0
57.11 152.0
57.125 166.0
57.14 161.0
57.155 148.0
57.17 144.0
57.185 143.0
57.2 152.0
57.215 153.0
57.23 152.0
57.245 164.0
57.26 173.0
57.275 153.0
57.29 157.0
57.305 144.0
57.32 148.0
57.335 160.0
57.35 159.0
57.365 152.0
57.38 169.0
57.395 137.0
57.41 131.0
57.425 156.0
57.44 159.0
57.455 158.0
57.47 166.0
57.485 165.0
57.5 139.0
57.515 145.0
57.53 138.0
57.545 137.0
57.56 155.0
57.575 161.0
57.59 170.0
57.605 150.0
57.62 153.0
57.635 155.0
57.65 162.0
57.665 155.0
57.68 148.0
57.695 154.0
57.71 149.0
57.725 153.0
57.74 143.0
57.755 165.0
57.77 138.0
57.785 152.0
57.8 150.0
57.815 166.0
57.83 143.0
57.845 166.0
57.86 151.0
57.875 145.0
57.89 154.0
57.905 139.0
57.92 135.0
57.935 159.0
57.95 151.0
57.965 150.0
57.98 147.0
57.995 147.0
58.01 142.0
58.025 128.0
58.04 159.0
58.055 139.0
58.07 167.0
58.085 164.0
58.1 157.0
58.115 143.0
58.13 155.0
58.145 163.0
58.16 158.0
58.175 156.0
58.19 155.0
58.205 146.0
58.22 167.0
58.235 154.0
58.25 146.0
58.265 154.0
58.28 148.0
58.295 156.0
58.31 155.0
58.325 144.0
58.34 157.0
58.355 155.0
58.37 157.0
58.385 165.0
58.4 153.0
58.415 155.0
58.43 147.0
58.445 160.0
58.46 151.0
58.475 149.0
58.49 143.0
58.505 152.0
58.52 156.0
58.535 139.0
58.55 140.0
58.565 167.0
58.58 150.0
58.595 152.0
58.61 150.0
58.625 142.0
58.64 149.0
58.655 170.0
58.67 148.0
58.685 168.0
58.7 169.0
58.715 161.0
58.73 147.0
58.745 155.0
58.76 148.0
58.775 136.0
58.79 142.0
58.805 129.0
58.82 154.0
58.835 157.0
58.85 163.0
58.865 162.0
58.88 162.0
58.895 150.0
58.91 148.0
58.925 127.0
58.94 145.0
58.955 147.0
58.97 148.0
58.985 149.0
59.0 151.0
59.015 169.0
59.03 145.0
59.045 162.0
59.06 142.0
59.075 168.0
59.09 154.0
59.105 151.0
59.12 145.0
59.135 153.0
59.15 149.0
59.165 151.0
59.18 140.0
59.195 154.0
59.21 147.0
59.225 149.0
59.24 146.0
59.255 161.0
59.27 149.0
59.285 148.0
59.3 138.0
59.315 136.0
59.33 167.0
59.345 153.0
59.36 145.0
59.375 151.0
59.39 154.0
59.405 173.0
59.42 150.0
59.435 155.0
59.45 151.0
59.465 152.0
59.48 140.0
59.495 140.0
59.51 148.0
59.525 131.0
59.54 145.0
59.555 145.0
59.57 137.0
59.585 147.0
59.6 130.0
59.615 137.0
59.63 150.0
59.645 144.0
59.66 150.0
59.675 154.0
59.69 137.0
59.705 155.0
59.72 142.0
59.735 137.0
59.75 149.0
59.765 146.0
59.78 143.0
59.795 155.0
59.81 151.0
59.825 148.0
59.84 144.0
59.855 130.0
59.87 149.0
59.885 163.0
59.9 143.0
59.915 131.0
59.93 146.0
59.945 136.0
59.96 131.0
59.975 148.0
59.99 152.0
60.005 156.0
60.02 146.0
60.035 169.0
60.05 138.0
60.065 134.0
60.08 146.0
60.095 155.0
60.11 146.0
60.125 147.0
60.14 136.0
60.155 139.0
60.17 132.0
60.185 133.0
60.2 147.0
60.215 159.0
60.23 156.0
60.245 144.0
60.26 147.0
60.275 149.0
60.29 141.0
60.305 153.0
60.32 159.0
60.335 135.0
60.35 140.0
60.365 138.0
60.38 133.0
60.395 149.0
60.41 150.0
60.425 150.0
60.44 153.0
60.455 140.0
60.47 152.0
60.485 155.0
60.5 150.0
60.515 145.0
60.53 141.0
60.545 136.0
60.56 136.0
60.575 151.0
60.59 148.0
60.605 154.0
60.62 151.0
60.635 154.0
60.65 154.0
60.665 137.0
60.68 148.0
60.695 143.0
60.71 171.0
60.725 161.0
60.74 137.0
60.755 150.0
60.77 150.0
60.785 160.0
60.8 135.0
60.815 144.0
60.83 152.0
60.845 161.0
60.86 146.0
60.875 157.0
60.89 147.0
60.905 160.0
60.92 150.0
60.935 152.0
60.95 129.0
60.965 126.0
60.98 145.0
60.995 154.0
61.01 148.0
61.025 149.0
61.04 145.0
61.055 152.0
61.07 156.0
61.085 145.0
61.1 153.0
61.115 159.0
61.13 154.0
61.145 147.0
61.16 127.0
61.175 133.0
61.19 148.0
61.205 153.0
61.22 142.0
61.235 138.0
61.25 137.0
61.265 152.0
61.28 140.0
61.295 140.0
61.31 134.0
61.325 142.0
61.34 137.0
61.355 158.0
61.37 157.0
61.385 145.0
61.4 131.0
61.415 137.0
61.43 162.0
61.445 160.0
61.46 146.0
61.475 149.0
61.49 144.0
61.505 160.0
61.52 163.0
61.535 145.0
61.55 136.0
61.565 140.0
61.58 140.0
61.595 153.0
61.61 147.0
61.625 131.0
61.64 139.0
61.655 155.0
61.67 139.0
61.685 142.0
61.7 157.0
61.715 155.0
61.73 150.0
61.745 143.0
61.76 143.0
61.775 142.0
61.79 142.0
61.805 166.0
61.82 154.0
61.835 154.0
61.85 153.0
61.865 150.0
61.88 142.0
61.895 152.0
61.91 138.0
61.925 158.0
61.94 149.0
61.955 142.0
61.97 143.0
61.985 144.0
