2.00000 0.000
2.01500 0.000
2.03000 1.000
2.04500 0.000
2.06000 0.000
2.07500 0.000
2.09000 1.000
2.10500 1.000
2.12000 2.000
2.13500 2.000
2.15000 1.000
2.16500 0.000
2.18000 0.000
2.19500 0.000
2.21000 0.000
2.22500 0.000
2.24000 0.000
2.25500 0.000
2.27000 0.000
2.28500 0.000
2.30000 2.000
2.31500 0.000
2.33000 0.000
2.34500 0.000
2.36000 0.000
2.37500 0.000
2.39000 0.000
2.40500 1.000
2.42000 0.000
2.43500 1.000
2.45000 0.000
2.46500 0.000
2.48000 1.000
2.49500 0.000
2.51000 0.000
2.52500 2.000
2.54000 1.000
2.55500 1.000
2.57000 0.000
2.58500 0.000
2.60000 0.000
2.61500 1.000
2.63000 0.000
2.64500 0.000
2.66000 1.000
2.67500 1.000
2.69000 1.000
2.70500 0.000
2.72000 1.000
2.73500 0.000
2.75000 0.000
2.76500 1.000
2.78000 0.000
2.79500 0.000
2.81000 1.000
2.82500 1.000
2.84000 0.000
2.85500 0.000
2.87000 1.000
2.88500 0.000
2.90000 1.000
2.91500 1.000
2.93000 0.000
2.94500 0.000
2.96000 0.000
2.97500 0.000
2.99000 1.000
3.00500 0.000
3.02000 0.000
3.03500 0.000
3.05000 0.000
3.06500 1.000
3.08000 2.000
3.09500 2.000
3.11000 6.000
3.12500 10.000
3.14000 7.000
3.15500 9.000
3.17000 13.000
3.18500 17.000
3.20000 15.000
3.21500 12.000
3.23000 13.000
3.24500 15.000
3.26000 14.000
3.27500 16.000
3.29000 17.000
3.30500 19.000
3.32000 17.000
3.33500 12.000
3.35000 12.000
3.36500 11.000
3.38000 12.000
3.39500 13.000
3.41000 9.000
3.42500 11.000
3.44000 17.000
3.45500 13.000
3.47000 16.000
3.48500 17.000
3.50000 10.000
3.51500 14.000
3.53000 17.000
3.54500 11.000
3.56000 12.000
3.57500 14.000
3.59000 12.000
3.60500 13.000
3.62000 17.000
3.63500 10.000
3.65000 15.000
3.66500 13.000
3.68000 10.000
3.69500 15.000
3.71000 9.000
3.72500 12.000
3.74000 17.000
3.75500 15.000
3.77000 12.000
3.78500 9.000
3.80000 10.000
3.81500 15.000
3.83000 16.000
3.84500 13.000
3.86000 15.000
3.87500 15.000
3.89000 13.000
3.90500 12.000
3.92000 13.000
3.93500 19.000
3.95000 13.000
3.96500 14.000
3.98000 8.000
3.99500 9.000
4.01000 9.000
4.02500 11.000
4.04000 9.000
4.05500 12.000
4.07000 11.000
4.08500 16.000
4.10000 15.000
4.11500 15.000
4.13000 16.000
4.14500 14.000
4.16000 13.000
4.17500 17.000
4.19000 11.000
4.20500 14.000
4.22000 15.000
4.23500 14.000
4.25000 12.000
4.26500 18.000
4.28000 13.000
4.29500 9.000
4.31000 15.000
4.32500 15.000
4.34000 17.000
4.35500 11.000
4.37000 11.000
4.38500 17.000
4.40000 23.000
4.41500 15.000
4.43000 13.000
4.44500 15.000
4.46000 19.000
4.47500 18.000
4.49000 18.000
4.50500 18.000
4.52000 22.000
4.53500 17.000
4.55000 17.000
4.56500 14.000
4.58000 16.000
4.59500 12.000
4.61000 10.000
4.62500 14.000
4.64000 15.000
4.65500 16.000
4.67000 21.000
4.68500 17.000
4.70000 25.000
4.71500 17.000
4.73000 18.000
4.74500 14.000
4.76000 12.000
4.77500 15.000
4.79000 15.000
4.80500 12.000
4.82000 10.000
4.83500 9.000
4.85000 13.000
4.86500 20.000
4.88000 20.000
4.89500 15.000
4.91000 16.000
4.92500 17.000
4.94000 17.000
4.95500 12.000
4.97000 21.000
4.98500 13.000
5.00000 15.000
5.01500 14.000
5.03000 15.000
5.04500 12.000
5.06000 14.000
5.07500 21.000
5.09000 16.000
5.10500 17.000
5.12000 21.000
5.13500 17.000
5.15000 10.000
5.16500 15.000
5.18000 17.000
5.19500 13.000
5.21000 16.000
5.22500 17.000
5.24000 13.000
5.25500 13.000
5.27000 15.000
5.28500 12.000
5.30000 12.000
5.31500 13.000
5.33000 19.000
5.34500 15.000
5.36000 14.000
5.37500 16.000
5.39000 17.000
5.40500 14.000
5.42000 13.000
5.43500 16.000
5.45000 10.000
5.46500 8.000
5.48000 15.000
5.49500 14.000
5.51000 12.000
5.52500 16.000
5.54000 16.000
5.55500 20.000
5.57000 16.000
5.58500 15.000
5.60000 17.000
5.61500 9.000
5.63000 15.000
5.64500 14.000
5.66000 12.000
5.67500 12.000
5.69000 16.000
5.70500 12.000
5.72000 15.000
5.73500 11.000
5.75000 8.000
5.76500 13.000
5.78000 15.000
5.79500 16.000
5.81000 11.000
5.82500 16.000
5.84000 15.000
5.85500 14.000
5.87000 20.000
5.88500 23.000
5.90000 14.000
5.91500 22.000
5.93000 13.000
5.94500 12.000
5.96000 16.000
5.97500 11.000
5.99000 16.000
6.00500 20.000
6.02000 17.000
6.03500 15.000
6.05000 14.000
6.06500 16.000
6.08000 16.000
6.09500 12.000
6.11000 16.000
6.12500 13.000
6.14000 15.000
6.15500 18.000
6.17000 11.000
6.18500 10.000
6.20000 15.000
6.21500 14.000
6.23000 9.000
6.24500 10.000
6.26000 10.000
6.27500 13.000
6.29000 20.000
6.30500 15.000
6.32000 18.000
6.33500 18.000
6.35000 12.000
6.36500 14.000
6.38000 13.000
6.39500 18.000
6.41000 16.000
6.42500 17.000
6.44000 15.000
6.45500 16.000
6.47000 18.000
6.48500 22.000
6.50000 18.000
6.51500 18.000
6.53000 10.000
6.54500 13.000
6.56000 16.000
6.57500 15.000
6.59000 11.000
6.60500 12.000
6.62000 10.000
6.63500 12.000
6.65000 11.000
6.66500 13.000
6.68000 21.000
6.69500 21.000
6.71000 19.000
6.72500 12.000
6.74000 16.000
6.75500 14.000
6.77000 17.000
6.78500 18.000
6.80000 21.000
6.81500 16.000
6.83000 16.000
6.84500 13.000
6.86000 13.000
6.87500 12.000
6.89000 11.000
6.90500 16.000
6.92000 18.000
6.93500 20.000
6.95000 12.000
6.96500 13.000
6.98000 16.000
6.99500 17.000
7.01000 19.000
7.02500 24.000
7.04000 18.000
7.05500 18.000
7.07000 15.000
7.08500 17.000
7.10000 15.000
7.11500 11.000
7.13000 12.000
7.14500 19.000
7.16000 9.000
7.17500 11.000
7.19000 20.000
7.20500 16.000
7.22000 12.000
7.23500 16.000
7.25000 16.000
7.26500 17.000
7.28000 20.000
7.29500 19.000
7.31000 16.000
7.32500 16.000
7.34000 12.000
7.35500 13.000
7.37000 13.000
7.38500 15.000
7.40000 14.000
7.41500 19.000
7.43000 21.000
7.44500 16.000
7.46000 12.000
7.47500 12.000
7.49000 21.000
7.50500 18.000
7.52000 22.000
7.53500 14.000
7.55000 6.000
7.56500 9.000
7.58000 11.000
7.59500 14.000
7.61000 11.000
7.62500 15.000
7.64000 14.000
7.65500 15.000
7.67000 21.000
7.68500 14.000
7.70000 15.000
7.71500 16.000
7.73000 17.000
7.74500 17.000
7.76000 15.000
7.77500 12.000
7.79000 21.000
7.80500 15.000
7.82000 18.000
7.83500 13.000
7.85000 18.000
7.86500 21.000
7.88000 15.000
7.89500 15.000
7.91000 13.000
7.92500 14.000
7.94000 11.000
7.95500 15.000
7.97000 16.000
7.98500 14.000
8.00000 15.000
8.01500 10.000
8.03000 10.000
8.04500 16.000
8.06000 18.000
8.07500 14.000
8.09000 18.000
8.10500 13.000
8.12000 15.000
8.13500 18.000
8.15000 21.000
8.16500 17.000
8.18000 28.000
8.19500 23.000
8.21000 23.000
8.22500 16.000
8.24000 13.000
8.25500 17.000
8.27000 19.000
8.28500 15.000
8.30000 13.000
8.31500 14.000
8.33000 14.000
8.34500 16.000
8.36000 15.000
8.37500 15.000
8.39000 16.000
8.40500 17.000
8.42000 17.000
8.43500 15.000
8.45000 14.000
8.46500 11.000
8.48000 14.000
8.49500 18.000
8.51000 16.000
8.52500 19.000
8.54000 23.000
8.55500 16.000
8.57000 18.000
8.58500 11.000
8.60000 17.000
8.61500 20.000
8.63000 10.000
8.64500 20.000
8.66000 16.000
8.67500 14.000
8.69000 18.000
8.70500 11.000
8.72000 13.000
8.73500 17.000
8.75000 13.000
8.76500 14.000
8.78000 16.000
8.79500 18.000
8.81000 19.000
8.82500 18.000
8.84000 17.000
8.85500 16.000
8.87000 19.000
8.88500 26.000
8.90000 23.000
8.91500 17.000
8.93000 19.000
8.94500 25.000
8.96000 21.000
8.97500 34.000
8.99000 35.000
9.00500 31.000
9.02000 30.000
9.03500 33.000
9.05000 21.000
9.06500 18.000
9.08000 20.000
9.09500 23.000
9.11000 15.000
9.12500 16.000
9.14000 18.000
9.15500 7.000
9.17000 15.000
9.18500 19.000
9.20000 21.000
9.21500 15.000
9.23000 12.000
9.24500 16.000
9.26000 15.000
9.27500 16.000
9.29000 14.000
9.30500 21.000
9.32000 14.000
9.33500 16.000
9.35000 13.000
9.36500 13.000
9.38000 17.000
9.39500 20.000
9.41000 19.000
9.42500 16.000
9.44000 16.000
9.45500 18.000
9.47000 20.000
9.48500 13.000
9.50000 15.000
9.51500 21.000
9.53000 24.000
9.54500 15.000
9.56000 13.000
9.57500 23.000
9.59000 15.000
9.60500 17.000
9.62000 14.000
9.63500 17.000
9.65000 16.000
9.66500 21.000
9.68000 12.000
9.69500 12.000
9.71000 15.000
9.72500 13.000
9.74000 18.000
9.75500 14.000
9.77000 16.000
9.78500 12.000
9.80000 12.000
9.81500 16.000
9.83000 20.000
9.84500 18.000
9.86000 17.000
9.87500 20.000
9.89000 17.000
9.90500 13.000
9.92000 17.000
9.93500 16.000
9.95000 18.000
9.96500 18.000
9.98000 15.000
9.99500 14.000
10.01000 14.000
10.02500 15.000
10.04000 19.000
10.05500 14.000
10.07000 10.000
10.08500 13.000
10.10000 20.000
10.11500 18.000
10.13000 17.000
10.14500 12.000
10.16000 17.000
10.17500 11.000
10.19000 14.000
10.20500 20.000
10.22000 12.000
10.23500 12.000
10.25000 16.000
10.26500 22.000
10.28000 18.000
10.29500 12.000
10.31000 13.000
10.32500 15.000
10.34000 15.000
10.35500 16.000
10.37000 15.000
10.38500 20.000
10.40000 18.000
10.41500 16.000
10.43000 18.000
10.44500 20.000
10.46000 23.000
10.47500 21.000
10.49000 26.000
10.50500 33.000
10.52000 38.000
10.53500 31.000
10.55000 30.000
10.56500 32.000
10.58000 32.000
10.59500 28.000
10.61000 25.000
10.62500 14.000
10.64000 16.000
10.65500 17.000
10.67000 26.000
10.68500 18.000
10.70000 10.000
10.71500 11.000
10.73000 17.000
10.74500 16.000
10.76000 13.000
10.77500 19.000
10.79000 19.000
10.80500 13.000
10.82000 16.000
10.83500 17.000
10.85000 10.000
10.86500 11.000
10.88000 15.000
10.89500 14.000
10.91000 11.000
10.92500 15.000
10.94000 19.000
10.95500 12.000
10.97000 18.000
10.98500 12.000
11.00000 12.000
11.01500 14.000
11.03000 15.000
11.04500 12.000
11.06000 15.000
11.07500 15.000
11.09000 18.000
11.10500 19.000
11.12000 20.000
11.13500 16.000
11.15000 14.000
11.16500 16.000
11.18000 14.000
11.19500 16.000
11.21000 18.000
11.22500 18.000
11.24000 20.000
11.25500 19.000
11.27000 16.000
11.28500 18.000
11.30000 20.000
11.31500 16.000
11.33000 14.000
11.34500 14.000
11.36000 15.000
11.37500 19.000
11.39000 19.000
11.40500 17.000
11.42000 18.000
11.43500 26.000
11.45000 22.000
11.46500 22.000
11.48000 25.000
11.49500 24.000
11.51000 30.000
11.52500 27.000
11.54000 32.000
11.55500 36.000
11.57000 39.000
11.58500 47.000
11.60000 50.000
11.61500 44.000
11.63000 61.000
11.64500 68.000
11.66000 75.000
11.67500 90.000
11.69000 92.000
11.70500 74.000
11.72000 60.000
11.73500 39.000
11.75000 26.000
11.76500 27.000
11.78000 18.000
11.79500 12.000
11.81000 11.000
11.82500 14.000
11.84000 18.000
11.85500 12.000
11.87000 13.000
11.88500 14.000
11.90000 11.000
11.91500 12.000
11.93000 11.000
11.94500 15.000
11.96000 16.000
11.97500 20.000
11.99000 12.000
12.00500 16.000
12.02000 11.000
12.03500 13.000
12.05000 17.000
12.06500 13.000
12.08000 14.000
12.09500 17.000
12.11000 15.000
12.12500 17.000
12.14000 15.000
12.15500 15.000
12.17000 15.000
12.18500 17.000
12.20000 21.000
12.21500 17.000
12.23000 16.000
12.24500 15.000
12.26000 23.000
12.27500 21.000
12.29000 10.000
12.30500 12.000
12.32000 17.000
12.33500 21.000
12.35000 28.000
12.36500 19.000
12.38000 18.000
12.39500 11.000
12.41000 21.000
12.42500 14.000
12.44000 19.000
12.45500 16.000
12.47000 16.000
12.48500 14.000
12.50000 15.000
12.51500 17.000
12.53000 14.000
12.54500 16.000
12.56000 17.000
12.57500 19.000
12.59000 18.000
12.60500 13.000
12.62000 14.000
12.63500 9.000
12.65000 12.000
12.66500 15.000
12.68000 13.000
12.69500 16.000
12.71000 15.000
12.72500 17.000
12.74000 17.000
12.75500 17.000
12.77000 22.000
12.78500 15.000
12.80000 19.000
12.81500 18.000
12.83000 16.000
12.84500 10.000
12.86000 15.000
12.87500 25.000
12.89000 17.000
12.90500 15.000
12.92000 24.000
12.93500 26.000
12.95000 20.000
12.96500 25.000
12.98000 28.000
12.99500 38.000
13.01000 44.000
13.02500 41.000
13.04000 30.000
13.05500 17.000
13.07000 21.000
13.08500 19.000
13.10000 24.000
13.11500 21.000
13.13000 18.000
13.14500 15.000
13.16000 25.000
13.17500 16.000
13.19000 14.000
13.20500 18.000
13.22000 19.000
13.23500 19.000
13.25000 23.000
13.26500 16.000
13.28000 18.000
13.29500 21.000
13.31000 27.000
13.32500 12.000
13.34000 19.000
13.35500 20.000
13.37000 21.000
13.38500 29.000
13.40000 20.000
13.41500 23.000
13.43000 16.000
13.44500 11.000
13.46000 15.000
13.47500 18.000
13.49000 18.000
13.50500 18.000
13.52000 16.000
13.53500 14.000
13.55000 18.000
13.56500 18.000
13.58000 14.000
13.59500 16.000
13.61000 17.000
13.62500 18.000
13.64000 21.000
13.65500 15.000
13.67000 17.000
13.68500 18.000
13.70000 12.000
13.71500 20.000
13.73000 19.000
13.74500 24.000
13.76000 20.000
13.77500 15.000
13.79000 14.000
13.80500 18.000
13.82000 16.000
13.83500 13.000
13.85000 12.000
13.86500 17.000
13.88000 18.000
13.89500 19.000
13.91000 13.000
13.92500 19.000
13.94000 16.000
13.95500 21.000
13.97000 17.000
13.98500 15.000
14.00000 14.000
14.01500 16.000
14.03000 15.000
14.04500 19.000
14.06000 20.000
14.07500 21.000
14.09000 10.000
14.10500 18.000
14.12000 21.000
14.13500 23.000
14.15000 20.000
14.16500 15.000
14.18000 16.000
14.19500 21.000
14.21000 14.000
14.22500 19.000
14.24000 19.000
14.25500 17.000
14.27000 15.000
14.28500 21.000
14.30000 25.000
14.31500 19.000
14.33000 17.000
14.34500 17.000
14.36000 16.000
14.37500 13.000
14.39000 16.000
14.40500 22.000
14.42000 16.000
14.43500 16.000
14.45000 18.000
14.46500 16.000
14.48000 14.000
14.49500 15.000
14.51000 22.000
14.52500 21.000
14.54000 18.000
14.55500 18.000
14.57000 14.000
14.58500 21.000
14.60000 25.000
14.61500 11.000
14.63000 14.000
14.64500 21.000
14.66000 19.000
14.67500 28.000
14.69000 22.000
14.70500 25.000
14.72000 24.000
14.73500 23.000
14.75000 27.000
14.76500 29.000
14.78000 38.000
14.79500 54.000
14.81000 55.000
14.82500 55.000
14.84000 56.000
14.85500 75.000
14.87000 100.000
14.88500 122.000
14.90000 146.000
14.91500 170.000
14.93000 200.000
14.94500 257.000
14.96000 324.000
14.97500 434.000
14.99000 533.000
15.00500 510.000
15.02000 328.000
15.03500 176.000
15.05000 97.000
15.06500 63.000
15.08000 50.000
15.09500 38.000
15.11000 29.000
15.12500 30.000
15.14000 17.000
15.15500 24.000
15.17000 24.000
15.18500 20.000
15.20000 19.000
15.21500 22.000
15.23000 28.000
15.24500 18.000
15.26000 11.000
15.27500 13.000
15.29000 14.000
15.30500 17.000
15.32000 13.000
15.33500 12.000
15.35000 15.000
15.36500 18.000
15.38000 24.000
15.39500 18.000
15.41000 15.000
15.42500 17.000
15.44000 16.000
15.45500 22.000
15.47000 13.000
15.48500 15.000
15.50000 15.000
15.51500 20.000
15.53000 17.000
15.54500 16.000
15.56000 18.000
15.57500 26.000
15.59000 15.000
15.60500 12.000
15.62000 18.000
15.63500 15.000
15.65000 15.000
15.66500 11.000
15.68000 14.000
15.69500 19.000
15.71000 22.000
15.72500 15.000
15.74000 16.000
15.75500 16.000
15.77000 15.000
15.78500 20.000
15.80000 22.000
15.81500 20.000
15.83000 12.000
15.84500 14.000
15.86000 19.000
15.87500 18.000
15.89000 9.000
15.90500 14.000
15.92000 22.000
15.93500 18.000
15.95000 21.000
15.96500 25.000
15.98000 24.000
15.99500 25.000
16.01000 28.000
16.02500 31.000
16.04000 24.000
16.05500 26.000
16.07000 23.000
16.08500 26.000
16.10000 23.000
16.11500 23.000
16.13000 27.000
16.14500 14.000
16.16000 15.000
16.17500 18.000
16.19000 18.000
16.20500 20.000
16.22000 12.000
16.23500 13.000
16.25000 17.000
16.26500 17.000
16.28000 12.000
16.29500 18.000
16.31000 17.000
16.32500 11.000
16.34000 18.000
16.35500 15.000
16.37000 14.000
16.38500 16.000
16.40000 21.000
16.41500 23.000
16.43000 10.000
16.44500 12.000
16.46000 15.000
16.47500 20.000
16.49000 14.000
16.50500 14.000
16.52000 17.000
16.53500 18.000
16.55000 16.000
16.56500 18.000
16.58000 19.000
16.59500 19.000
16.61000 17.000
16.62500 21.000
16.64000 24.000
16.65500 32.000
16.67000 29.000
16.68500 24.000
16.70000 23.000
16.71500 19.000
16.73000 22.000
16.74500 18.000
16.76000 17.000
16.77500 19.000
16.79000 18.000
16.80500 17.000
16.82000 15.000
16.83500 19.000
16.85000 15.000
16.86500 19.000
16.88000 16.000
16.89500 11.000
16.91000 10.000
16.92500 16.000
16.94000 15.000
16.95500 12.000
16.97000 12.000
16.98500 17.000
17.00000 22.000
17.01500 13.000
17.03000 18.000
17.04500 13.000
17.06000 13.000
17.07500 17.000
17.09000 16.000
17.10500 16.000
17.12000 15.000
17.13500 16.000
17.15000 17.000
17.16500 8.000
17.18000 11.000
17.19500 15.000
17.21000 15.000
17.22500 13.000
17.24000 14.000
17.25500 11.000
17.27000 13.000
17.28500 16.000
17.30000 13.000
17.31500 16.000
17.33000 12.000
17.34500 14.000
17.36000 11.000
17.37500 13.000
17.39000 15.000
17.40500 13.000
17.42000 15.000
17.43500 17.000
17.45000 15.000
17.46500 13.000
17.48000 17.000
17.49500 13.000
17.51000 11.000
17.52500 15.000
17.54000 13.000
17.55500 12.000
17.57000 16.000
17.58500 24.000
17.60000 26.000
17.61500 17.000
17.63000 13.000
17.64500 12.000
17.66000 15.000
17.67500 11.000
17.69000 17.000
17.70500 15.000
17.72000 15.000
17.73500 11.000
17.75000 13.000
17.76500 14.000
17.78000 8.000
17.79500 13.000
17.81000 14.000
17.82500 13.000
17.84000 9.000
17.85500 10.000
17.87000 13.000
17.88500 19.000
17.90000 17.000
17.91500 17.000
17.93000 17.000
17.94500 19.000
17.96000 23.000
17.97500 23.000
17.99000 25.000
18.00500 29.000
18.02000 33.000
18.03500 33.000
18.05000 28.000
18.06500 37.000
18.08000 27.000
18.09500 30.000
18.11000 29.000
18.12500 24.000
18.14000 25.000
18.15500 22.000
18.17000 25.000
18.18500 20.000
18.20000 13.000
18.21500 17.000
18.23000 16.000
18.24500 20.000
18.26000 19.000
18.27500 14.000
18.29000 14.000
18.30500 16.000
18.32000 11.000
18.33500 16.000
18.35000 13.000
18.36500 16.000
18.38000 16.000
18.39500 14.000
18.41000 20.000
18.42500 11.000
18.44000 17.000
18.45500 14.000
18.47000 13.000
18.48500 21.000
18.50000 22.000
18.51500 14.000
18.53000 11.000
18.54500 19.000
18.56000 14.000
18.57500 12.000
18.59000 11.000
18.60500 16.000
18.62000 14.000
18.63500 10.000
18.65000 14.000
18.66500 17.000
18.68000 17.000
18.69500 20.000
18.71000 15.000
18.72500 16.000
18.74000 17.000
18.75500 12.000
18.77000 14.000
18.78500 20.000
18.80000 16.000
18.81500 14.000
18.83000 16.000
18.84500 14.000
18.86000 18.000
18.87500 16.000
18.89000 14.000
18.90500 12.000
18.92000 20.000
18.93500 13.000
18.95000 16.000
18.96500 19.000
18.98000 13.000
18.99500 20.000
19.01000 18.000
19.02500 20.000
19.04000 18.000
19.05500 9.000
19.07000 13.000
19.08500 14.000
19.10000 17.000
19.11500 15.000
19.13000 16.000
19.14500 17.000
19.16000 13.000
19.17500 15.000
19.19000 14.000
19.20500 15.000
19.22000 13.000
19.23500 14.000
19.25000 9.000
19.26500 17.000
19.28000 21.000
19.29500 15.000
19.31000 16.000
19.32500 16.000
19.34000 21.000
19.35500 15.000
19.37000 12.000
19.38500 17.000
19.40000 11.000
19.41500 11.000
19.43000 20.000
19.44500 17.000
19.46000 17.000
19.47500 19.000
19.49000 22.000
19.50500 24.000
19.52000 12.000
19.53500 25.000
19.55000 25.000
19.56500 24.000
19.58000 24.000
19.59500 28.000
19.61000 38.000
19.62500 38.000
19.64000 25.000
19.65500 24.000
19.67000 17.000
19.68500 22.000
19.70000 19.000
19.71500 16.000
19.73000 13.000
19.74500 13.000
19.76000 15.000
19.77500 13.000
19.79000 19.000
19.80500 17.000
19.82000 16.000
19.83500 17.000
19.85000 18.000
19.86500 16.000
19.88000 13.000
19.89500 17.000
19.91000 18.000
19.92500 13.000
19.94000 12.000
19.95500 16.000
19.97000 20.000
19.98500 19.000
20.00000 23.000
20.01500 16.000
20.03000 15.000
20.04500 14.000
20.06000 13.000
20.07500 13.000
20.09000 16.000
20.10500 18.000
20.12000 15.000
20.13500 13.000
20.15000 15.000
20.16500 20.000
20.18000 14.000
20.19500 17.000
20.21000 14.000
20.22500 13.000
20.24000 21.000
20.25500 19.000
20.27000 17.000
20.28500 14.000
20.30000 13.000
20.31500 16.000
20.33000 19.000
20.34500 20.000
20.36000 15.000
20.37500 14.000
20.39000 17.000
20.40500 14.000
20.42000 16.000
20.43500 14.000
20.45000 12.000
20.46500 16.000
20.48000 16.000
20.49500 15.000
20.51000 18.000
20.52500 19.000
20.54000 14.000
20.55500 9.000
20.57000 18.000
20.58500 19.000
20.60000 15.000
20.61500 17.000
20.63000 18.000
20.64500 18.000
20.66000 11.000
20.67500 20.000
20.69000 13.000
20.70500 10.000
20.72000 16.000
20.73500 20.000
20.75000 10.000
20.76500 16.000
20.78000 13.000
20.79500 13.000
20.81000 13.000
20.82500 13.000
20.84000 14.000
20.85500 15.000
20.87000 11.000
20.88500 15.000
20.90000 23.000
20.91500 12.000
20.93000 16.000
20.94500 23.000
20.96000 21.000
20.97500 21.000
20.99000 16.000
21.00500 20.000
21.02000 22.000
21.03500 22.000
21.05000 13.000
21.06500 25.000
21.08000 14.000
21.09500 18.000
21.11000 30.000
21.12500 19.000
21.14000 17.000
21.15500 15.000
21.17000 23.000
21.18500 36.000
21.20000 29.000
21.21500 32.000
21.23000 36.000
21.24500 33.000
21.26000 27.000
21.27500 23.000
21.29000 23.000
21.30500 26.000
21.32000 21.000
21.33500 21.000
21.35000 22.000
21.36500 31.000
21.38000 28.000
21.39500 27.000
21.41000 28.000
21.42500 36.000
21.44000 53.000
21.45500 36.000
21.47000 58.000
21.48500 60.000
21.50000 72.000
21.51500 78.000
21.53000 78.000
21.54500 86.000
21.56000 83.000
21.57500 94.000
21.59000 111.000
21.60500 97.000
21.62000 89.000
21.63500 67.000
21.65000 46.000
21.66500 34.000
21.68000 39.000
21.69500 37.000
21.71000 25.000
21.72500 18.000
21.74000 17.000
21.75500 18.000
21.77000 16.000
21.78500 15.000
21.80000 22.000
21.81500 20.000
21.83000 21.000
21.84500 16.000
21.86000 20.000
21.87500 16.000
21.89000 23.000
21.90500 23.000
21.92000 15.000
21.93500 12.000
21.95000 14.000
21.96500 15.000
21.98000 16.000
21.99500 18.000
22.01000 18.000
22.02500 12.000
22.04000 16.000
22.05500 24.000
22.07000 16.000
22.08500 16.000
22.10000 14.000
22.11500 13.000
22.13000 16.000
22.14500 15.000
22.16000 14.000
22.17500 18.000
22.19000 13.000
22.20500 15.000
22.22000 17.000
22.23500 16.000
22.25000 16.000
22.26500 18.000
22.28000 23.000
22.29500 19.000
22.31000 17.000
22.32500 16.000
22.34000 12.000
22.35500 22.000
22.37000 16.000
22.38500 18.000
22.40000 21.000
22.41500 20.000
22.43000 20.000
22.44500 18.000
22.46000 19.000
22.47500 23.000
22.49000 18.000
22.50500 12.000
22.52000 15.000
22.53500 20.000
22.55000 22.000
22.56500 23.000
22.58000 15.000
22.59500 21.000
22.61000 17.000
22.62500 13.000
22.64000 9.000
22.65500 17.000
22.67000 15.000
22.68500 18.000
22.70000 18.000
22.71500 17.000
22.73000 18.000
22.74500 15.000
22.76000 13.000
22.77500 16.000
22.79000 23.000
22.80500 22.000
22.82000 22.000
22.83500 18.000
22.85000 17.000
22.86500 18.000
22.88000 17.000
22.89500 15.000
22.91000 12.000
22.92500 14.000
22.94000 18.000
22.95500 19.000
22.97000 22.000
22.98500 17.000
23.00000 11.000
23.01500 11.000
23.03000 15.000
23.04500 14.000
23.06000 14.000
23.07500 19.000
23.09000 21.000
23.10500 21.000
23.12000 23.000
23.13500 18.000
23.15000 23.000
23.16500 27.000
23.18000 19.000
23.19500 17.000
23.21000 19.000
23.22500 20.000
23.24000 18.000
23.25500 17.000
23.27000 20.000
23.28500 17.000
23.30000 22.000
23.31500 17.000
23.33000 15.000
23.34500 19.000
23.36000 17.000
23.37500 16.000
23.39000 19.000
23.40500 21.000
23.42000 21.000
23.43500 23.000
23.45000 19.000
23.46500 19.000
23.48000 16.000
23.49500 18.000
23.51000 19.000
23.52500 21.000
23.54000 23.000
23.55500 17.000
23.57000 20.000
23.58500 22.000
23.60000 17.000
23.61500 13.000
23.63000 12.000
23.64500 13.000
23.66000 20.000
23.67500 17.000
23.69000 13.000
23.70500 17.000
23.72000 16.000
23.73500 12.000
23.75000 11.000
23.76500 18.000
23.78000 22.000
23.79500 19.000
23.81000 13.000
23.82500 13.000
23.84000 17.000
23.85500 18.000
23.87000 17.000
23.88500 20.000
23.90000 11.000
23.91500 14.000
23.93000 15.000
23.94500 17.000
23.96000 13.000
23.97500 16.000
23.99000 17.000
24.00500 19.000
24.02000 22.000
24.03500 25.000
24.05000 14.000
24.06500 18.000
24.08000 16.000
24.09500 20.000
24.11000 20.000
24.12500 15.000
24.14000 12.000
24.15500 21.000
24.17000 18.000
24.18500 18.000
24.20000 17.000
24.21500 16.000
24.23000 24.000
24.24500 27.000
24.26000 15.000
24.27500 17.000
24.29000 12.000
24.30500 16.000
24.32000 16.000
24.33500 13.000
24.35000 16.000
24.36500 19.000
24.38000 18.000
24.39500 25.000
24.41000 19.000
24.42500 23.000
24.44000 24.000
24.45500 27.000
24.47000 28.000
24.48500 24.000
24.50000 26.000
24.51500 20.000
24.53000 15.000
24.54500 12.000
24.56000 16.000
24.57500 16.000
24.59000 18.000
24.60500 19.000
24.62000 20.000
24.63500 16.000
24.65000 13.000
24.66500 17.000
24.68000 20.000
24.69500 11.000
24.71000 18.000
24.72500 21.000
24.74000 20.000
24.75500 21.000
24.77000 18.000
24.78500 14.000
24.80000 15.000
24.81500 20.000
24.83000 17.000
24.84500 18.000
24.86000 20.000
24.87500 19.000
24.89000 23.000
24.90500 23.000
24.92000 19.000
24.93500 19.000
24.95000 19.000
24.96500 15.000
24.98000 15.000
24.99500 21.000
25.01000 20.000
25.02500 21.000
25.04000 18.000
25.05500 20.000
25.07000 20.000
25.08500 22.000
25.10000 19.000
25.11500 14.000
25.13000 17.000
25.14500 20.000
25.16000 20.000
25.17500 15.000
25.19000 15.000
25.20500 17.000
25.22000 21.000
25.23500 22.000
25.25000 14.000
25.26500 11.000
25.28000 14.000
25.29500 16.000
25.31000 19.000
25.32500 18.000
25.34000 22.000
25.35500 9.000
25.37000 14.000
25.38500 18.000
25.40000 14.000
25.41500 10.000
25.43000 18.000
25.44500 16.000
25.46000 14.000
25.47500 15.000
25.49000 20.000
25.50500 22.000
25.52000 10.000
25.53500 17.000
25.55000 22.000
25.56500 21.000
25.58000 11.000
25.59500 14.000
25.61000 18.000
25.62500 27.000
25.64000 21.000
25.65500 16.000
25.67000 20.000
25.68500 19.000
25.70000 18.000
25.71500 23.000
25.73000 13.000
25.74500 19.000
25.76000 18.000
25.77500 22.000
25.79000 20.000
25.80500 15.000
25.82000 17.000
25.83500 16.000
25.85000 12.000
25.86500 22.000
25.88000 19.000
25.89500 25.000
25.91000 20.000
25.92500 21.000
25.94000 23.000
25.95500 19.000
25.97000 23.000
25.98500 27.000
26.00000 30.000
26.01500 38.000
26.03000 52.000
26.04500 57.000
26.06000 66.000
26.07500 90.000
26.09000 107.000
26.10500 124.000
26.12000 150.000
26.13500 160.000
26.15000 111.000
26.16500 85.000
26.18000 58.000
26.19500 50.000
26.21000 51.000
26.22500 42.000
26.24000 28.000
26.25500 21.000
26.27000 19.000
26.28500 28.000
26.30000 15.000
26.31500 18.000
26.33000 22.000
26.34500 24.000
26.36000 16.000
26.37500 17.000
26.39000 22.000
26.40500 19.000
26.42000 20.000
26.43500 20.000
26.45000 21.000
26.46500 21.000
26.48000 20.000
26.49500 18.000
26.51000 27.000
26.52500 23.000
26.54000 23.000
26.55500 19.000
26.57000 15.000
26.58500 14.000
26.60000 20.000
26.61500 18.000
26.63000 17.000
26.64500 23.000
26.66000 21.000
26.67500 20.000
26.69000 20.000
26.70500 19.000
26.72000 24.000
26.73500 19.000
26.75000 18.000
26.76500 20.000
26.78000 20.000
26.79500 24.000
26.81000 21.000
26.82500 20.000
26.84000 16.000
26.85500 24.000
26.87000 25.000
26.88500 19.000
26.90000 20.000
26.91500 17.000
26.93000 21.000
26.94500 17.000
26.96000 24.000
26.97500 22.000
26.99000 17.000
27.00500 22.000
27.02000 23.000
27.03500 25.000
27.05000 24.000
27.06500 26.000
27.08000 21.000
27.09500 21.000
27.11000 28.000
27.12500 32.000
27.14000 29.000
27.15500 29.000
27.17000 26.000
27.18500 31.000
27.20000 25.000
27.21500 25.000
27.23000 19.000
27.24500 23.000
27.26000 20.000
27.27500 26.000
27.29000 25.000
27.30500 19.000
27.32000 25.000
27.33500 21.000
27.35000 21.000
27.36500 23.000
27.38000 23.000
27.39500 24.000
27.41000 21.000
27.42500 24.000
27.44000 32.000
27.45500 32.000
27.47000 24.000
27.48500 30.000
27.50000 33.000
27.51500 36.000
27.53000 31.000
27.54500 38.000
27.56000 36.000
27.57500 47.000
27.59000 48.000
27.60500 36.000
27.62000 37.000
27.63500 30.000
27.65000 36.000
27.66500 25.000
27.68000 28.000
27.69500 32.000
27.71000 36.000
27.72500 26.000
27.74000 30.000
27.75500 26.000
27.77000 26.000
27.78500 26.000
27.80000 15.000
27.81500 27.000
27.83000 30.000
27.84500 19.000
27.86000 31.000
27.87500 30.000
27.89000 22.000
27.90500 21.000
27.92000 24.000
27.93500 26.000
27.95000 29.000
27.96500 28.000
27.98000 28.000
27.99500 28.000
28.01000 27.000
28.02500 29.000
28.04000 37.000
28.05500 32.000
28.07000 37.000
28.08500 39.000
28.10000 30.000
28.11500 45.000
28.13000 45.000
28.14500 45.000
28.16000 67.000
28.17500 70.000
28.19000 86.000
28.20500 143.000
28.22000 206.000
28.23500 262.000
28.25000 340.000
28.26500 518.000
28.28000 745.000
28.29500 1081.000
28.31000 1493.000
28.32500 2129.000
28.34000 2723.000
28.35500 2576.000
28.37000 1818.000
28.38500 971.000
28.40000 513.000
28.41500 283.000
28.43000 172.000
28.44500 105.000
28.46000 85.000
28.47500 74.000
28.49000 52.000
28.50500 49.000
28.52000 54.000
28.53500 47.000
28.55000 48.000
28.56500 44.000
28.58000 34.000
28.59500 42.000
28.61000 42.000
28.62500 34.000
28.64000 35.000
28.65500 34.000
28.67000 31.000
28.68500 26.000
28.70000 32.000
28.71500 21.000
28.73000 27.000
28.74500 25.000
28.76000 25.000
28.77500 29.000
28.79000 21.000
28.80500 16.000
28.82000 22.000
28.83500 28.000
28.85000 29.000
28.86500 24.000
28.88000 24.000
28.89500 25.000
28.91000 30.000
28.92500 28.000
28.94000 23.000
28.95500 31.000
28.97000 23.000
28.98500 22.000
29.00000 28.000
29.01500 21.000
29.03000 19.000
29.04500 16.000
29.06000 26.000
29.07500 18.000
29.09000 19.000
29.10500 23.000
29.12000 25.000
29.13500 28.000
29.15000 24.000
29.16500 24.000
29.18000 19.000
29.19500 18.000
29.21000 20.000
29.22500 16.000
29.24000 13.000
29.25500 22.000
29.27000 21.000
29.28500 16.000
29.30000 18.000
29.31500 24.000
29.33000 28.000
29.34500 23.000
29.36000 16.000
29.37500 15.000
29.39000 15.000
29.40500 22.000
29.42000 20.000
29.43500 20.000
29.45000 13.000
29.46500 15.000
29.48000 21.000
29.49500 19.000
29.51000 25.000
29.52500 21.000
29.54000 20.000
29.55500 24.000
29.57000 22.000
29.58500 22.000
29.60000 18.000
29.61500 15.000
29.63000 19.000
29.64500 19.000
29.66000 17.000
29.67500 15.000
29.69000 18.000
29.70500 20.000
29.72000 17.000
29.73500 19.000
29.75000 33.000
29.76500 25.000
29.78000 19.000
29.79500 28.000
29.81000 21.000
29.82500 22.000
29.84000 17.000
29.85500 19.000
29.87000 17.000
29.88500 16.000
29.90000 25.000
29.91500 24.000
29.93000 22.000
29.94500 29.000
29.96000 27.000
29.97500 23.000
29.99000 37.000
30.00500 38.000
30.02000 47.000
30.03500 52.000
30.05000 57.000
30.06500 77.000
30.08000 82.000
30.09500 87.000
30.11000 78.000
30.12500 57.000
30.14000 49.000
30.15500 47.000
30.17000 27.000
30.18500 32.000
30.20000 42.000
30.21500 46.000
30.23000 40.000
30.24500 47.000
30.26000 44.000
30.27500 38.000
30.29000 31.000
30.30500 34.000
30.32000 46.000
30.33500 39.000
30.35000 31.000
30.36500 35.000
30.38000 40.000
30.39500 36.000
30.41000 25.000
30.42500 23.000
30.44000 21.000
30.45500 24.000
30.47000 20.000
30.48500 18.000
30.50000 23.000
30.51500 23.000
30.53000 24.000
30.54500 22.000
30.56000 23.000
30.57500 23.000
30.59000 21.000
30.60500 26.000
30.62000 26.000
30.63500 24.000
30.65000 26.000
30.66500 22.000
30.68000 24.000
30.69500 23.000
30.71000 16.000
30.72500 27.000
30.74000 25.000
30.75500 18.000
30.77000 26.000
30.78500 18.000
30.80000 27.000
30.81500 21.000
30.83000 19.000
30.84500 24.000
30.86000 20.000
30.87500 23.000
30.89000 20.000
30.90500 21.000
30.92000 20.000
30.93500 21.000
30.95000 17.000
30.96500 18.000
30.98000 21.000
30.99500 16.000
31.01000 19.000
31.02500 20.000
31.04000 30.000
31.05500 23.000
31.07000 23.000
31.08500 34.000
31.10000 29.000
31.11500 34.000
31.13000 23.000
31.14500 30.000
31.16000 24.000
31.17500 20.000
31.19000 19.000
31.20500 22.000
31.22000 22.000
31.23500 18.000
31.25000 21.000
31.26500 20.000
31.28000 23.000
31.29500 24.000
31.31000 27.000
31.32500 25.000
31.34000 21.000
31.35500 25.000
31.37000 26.000
31.38500 31.000
31.40000 28.000
31.41500 23.000
31.43000 26.000
31.44500 20.000
31.46000 20.000
31.47500 21.000
31.49000 25.000
31.50500 30.000
31.52000 23.000
31.53500 32.000
31.55000 24.000
31.56500 24.000
31.58000 26.000
31.59500 34.000
31.61000 39.000
31.62500 40.000
31.64000 41.000
31.65500 36.000
31.67000 38.000
31.68500 45.000
31.70000 50.000
31.71500 54.000
31.73000 59.000
31.74500 49.000
31.76000 57.000
31.77500 68.000
31.79000 73.000
31.80500 80.000
31.82000 72.000
31.83500 88.000
31.85000 73.000
31.86500 67.000
31.88000 66.000
31.89500 50.000
31.91000 42.000
31.92500 45.000
31.94000 37.000
31.95500 31.000
31.97000 28.000
31.98500 23.000
32.00000 23.000
32.01500 20.000
32.03000 20.000
32.04500 21.000
32.06000 18.000
32.07500 19.000
32.09000 19.000
32.10500 26.000
32.12000 14.000
32.13500 27.000
32.15000 16.000
32.16500 20.000
32.18000 23.000
32.19500 24.000
32.21000 15.000
32.22500 18.000
32.24000 21.000
32.25500 23.000
32.27000 14.000
32.28500 18.000
32.30000 15.000
32.31500 10.000
32.33000 17.000
32.34500 26.000
32.36000 33.000
32.37500 24.000
32.39000 20.000
32.40500 22.000
32.42000 17.000
32.43500 22.000
32.45000 31.000
32.46500 43.000
32.48000 30.000
32.49500 31.000
32.51000 36.000
32.52500 42.000
32.54000 44.000
32.55500 48.000
32.57000 51.000
32.58500 35.000
32.60000 29.000
32.61500 30.000
32.63000 26.000
32.64500 21.000
32.66000 24.000
32.67500 23.000
32.69000 21.000
32.70500 24.000
32.72000 13.000
32.73500 24.000
32.75000 28.000
32.76500 17.000
32.78000 21.000
32.79500 30.000
32.81000 24.000
32.82500 28.000
32.84000 28.000
32.85500 26.000
32.87000 20.000
32.88500 27.000
32.90000 31.000
32.91500 21.000
32.93000 19.000
32.94500 17.000
32.96000 20.000
32.97500 26.000
32.99000 22.000
33.00500 27.000
33.02000 29.000
33.03500 28.000
33.05000 19.000
33.06500 19.000
33.08000 21.000
33.09500 28.000
33.11000 30.000
33.12500 22.000
33.14000 24.000
33.15500 23.000
33.17000 20.000
33.18500 24.000
33.20000 22.000
33.21500 26.000
33.23000 25.000
33.24500 23.000
33.26000 22.000
33.27500 28.000
33.29000 23.000
33.30500 19.000
33.32000 22.000
33.33500 31.000
33.35000 28.000
33.36500 23.000
33.38000 33.000
33.39500 32.000
33.41000 25.000
33.42500 27.000
33.44000 24.000
33.45500 32.000
33.47000 35.000
33.48500 36.000
33.50000 39.000
33.51500 40.000
33.53000 31.000
33.54500 40.000
33.56000 33.000
33.57500 45.000
33.59000 44.000
33.60500 46.000
33.62000 38.000
33.63500 51.000
33.65000 56.000
33.66500 62.000
33.68000 63.000
33.69500 84.000
33.71000 94.000
33.72500 106.000
33.74000 115.000
33.75500 127.000
33.77000 146.000
33.78500 185.000
33.80000 199.000
33.81500 209.000
33.83000 265.000
33.84500 318.000
33.86000 387.000
33.87500 387.000
33.89000 461.000
33.90500 390.000
33.92000 349.000
33.93500 313.000
33.95000 216.000
33.96500 193.000
33.98000 145.000
33.99500 100.000
34.01000 89.000
34.02500 84.000
34.04000 66.000
34.05500 60.000
34.07000 55.000
34.08500 45.000
34.10000 55.000
34.11500 34.000
34.13000 42.000
34.14500 27.000
34.16000 33.000
34.17500 40.000
34.19000 41.000
34.20500 25.000
34.22000 32.000
34.23500 39.000
34.25000 30.000
34.26500 28.000
34.28000 30.000
34.29500 34.000
34.31000 31.000
34.32500 25.000
34.34000 26.000
34.35500 22.000
34.37000 24.000
34.38500 22.000
34.40000 24.000
34.41500 23.000
34.43000 27.000
34.44500 25.000
34.46000 20.000
34.47500 23.000
34.49000 26.000
34.50500 26.000
34.52000 31.000
34.53500 24.000
34.55000 28.000
34.56500 25.000
34.58000 26.000
34.59500 23.000
34.61000 32.000
34.62500 28.000
34.64000 23.000
34.65500 22.000
34.67000 27.000
34.68500 28.000
34.70000 18.000
34.71500 20.000
34.73000 25.000
34.74500 22.000
34.76000 25.000
34.77500 29.000
34.79000 21.000
34.80500 29.000
34.82000 22.000
34.83500 15.000
34.85000 25.000
34.86500 24.000
34.88000 26.000
34.89500 29.000
34.91000 28.000
34.92500 26.000
34.94000 30.000
34.95500 30.000
34.97000 19.000
34.98500 25.000
35.00000 32.000
35.01500 34.000
35.03000 35.000
35.04500 31.000
35.06000 41.000
35.07500 36.000
35.09000 30.000
35.10500 33.000
35.12000 32.000
35.13500 23.000
35.15000 23.000
35.16500 24.000
35.18000 25.000
35.19500 20.000
35.21000 30.000
35.22500 30.000
35.24000 27.000
35.25500 26.000
35.27000 25.000
35.28500 23.000
35.30000 27.000
35.31500 23.000
35.33000 24.000
35.34500 24.000
35.36000 24.000
35.37500 24.000
35.39000 21.000
35.40500 23.000
35.42000 20.000
35.43500 20.000
35.45000 28.000
35.46500 24.000
35.48000 27.000
35.49500 28.000
35.51000 30.000
35.52500 32.000
35.54000 36.000
35.55500 36.000
35.57000 32.000
35.58500 31.000
35.60000 35.000
35.61500 28.000
35.63000 25.000
35.64500 27.000
35.66000 19.000
35.67500 29.000
35.69000 24.000
35.70500 15.000
35.72000 13.000
35.73500 20.000
35.75000 17.000
35.76500 21.000
35.78000 27.000
35.79500 25.000
35.81000 24.000
35.82500 22.000
35.84000 14.000
35.85500 19.000
35.87000 18.000
35.88500 19.000
35.90000 21.000
35.91500 20.000
35.93000 16.000
35.94500 26.000
35.96000 23.000
35.97500 18.000
35.99000 19.000
36.00500 17.000
36.02000 17.000
36.03500 20.000
36.05000 24.000
36.06500 24.000
36.08000 24.000
36.09500 18.000
36.11000 24.000
36.12500 25.000
36.14000 27.000
36.15500 24.000
36.17000 19.000
36.18500 19.000
36.20000 27.000
36.21500 21.000
36.23000 24.000
36.24500 27.000
36.26000 20.000
36.27500 25.000
36.29000 24.000
36.30500 34.000
36.32000 29.000
36.33500 23.000
36.35000 26.000
36.36500 22.000
36.38000 21.000
36.39500 15.000
36.41000 21.000
36.42500 18.000
36.44000 17.000
36.45500 20.000
36.47000 22.000
36.48500 18.000
36.50000 23.000
36.51500 20.000
36.53000 19.000
36.54500 12.000
36.56000 20.000
36.57500 21.000
36.59000 18.000
36.60500 11.000
36.62000 9.000
36.63500 13.000
36.65000 14.000
36.66500 23.000
36.68000 20.000
36.69500 22.000
36.71000 19.000
36.72500 17.000
36.74000 24.000
36.75500 22.000
36.77000 22.000
36.78500 27.000
36.80000 28.000
36.81500 25.000
36.83000 15.000
36.84500 20.000
36.86000 22.000
36.87500 21.000
36.89000 18.000
36.90500 23.000
36.92000 25.000
36.93500 29.000
36.95000 18.000
36.96500 24.000
36.98000 21.000
36.99500 19.000
37.01000 26.000
37.02500 28.000
37.04000 13.000
37.05500 12.000
37.07000 20.000
37.08500 26.000
37.10000 24.000
37.11500 15.000
37.13000 19.000
37.14500 20.000
37.16000 17.000
37.17500 15.000
37.19000 14.000
37.20500 20.000
37.22000 16.000
37.23500 20.000
37.25000 16.000
37.26500 20.000
37.28000 14.000
37.29500 20.000
37.31000 19.000
37.32500 17.000
37.34000 22.000
37.35500 18.000
37.37000 26.000
37.38500 23.000
37.40000 23.000
37.41500 22.000
37.43000 22.000
37.44500 26.000
37.46000 30.000
37.47500 33.000
37.49000 27.000
37.50500 26.000
37.52000 20.000
37.53500 17.000
37.55000 17.000
37.56500 16.000
37.58000 29.000
37.59500 25.000
37.61000 26.000
37.62500 19.000
37.64000 26.000
37.65500 34.000
37.67000 28.000
37.68500 33.000
37.70000 27.000
37.71500 21.000
37.73000 24.000
37.74500 23.000
37.76000 26.000
37.77500 16.000
37.79000 16.000
37.80500 27.000
37.82000 26.000
37.83500 22.000
37.85000 25.000
37.86500 18.000
37.88000 18.000
37.89500 18.000
37.91000 25.000
37.92500 17.000
37.94000 18.000
37.95500 21.000
37.97000 20.000
37.98500 25.000
38.00000 22.000
38.01500 24.000
38.03000 22.000
38.04500 21.000
38.06000 30.000
38.07500 30.000
38.09000 34.000
38.10500 26.000
38.12000 31.000
38.13500 44.000
38.15000 46.000
38.16500 42.000
38.18000 44.000
38.19500 52.000
38.21000 50.000
38.22500 40.000
38.24000 39.000
38.25500 39.000
38.27000 37.000
38.28500 33.000
38.30000 34.000
38.31500 34.000
38.33000 27.000
38.34500 25.000
38.36000 25.000
38.37500 26.000
38.39000 20.000
38.40500 28.000
38.42000 26.000
38.43500 26.000
38.45000 23.000
38.46500 27.000
38.48000 26.000
38.49500 16.000
38.51000 25.000
38.52500 30.000
38.54000 23.000
38.55500 22.000
38.57000 20.000
38.58500 17.000
38.60000 16.000
38.61500 17.000
38.63000 21.000
38.64500 22.000
38.66000 26.000
38.67500 21.000
38.69000 23.000
38.70500 13.000
38.72000 14.000
38.73500 18.000
38.75000 11.000
38.76500 16.000
38.78000 15.000
38.79500 25.000
38.81000 18.000
38.82500 18.000
38.84000 13.000
38.85500 13.000
38.87000 18.000
38.88500 18.000
38.90000 21.000
38.91500 15.000
38.93000 22.000
38.94500 19.000
38.96000 21.000
38.97500 22.000
38.99000 17.000
39.00500 18.000
39.02000 21.000
39.03500 20.000
39.05000 23.000
39.06500 18.000
39.08000 16.000
39.09500 19.000
39.11000 15.000
39.12500 19.000
39.14000 20.000
39.15500 19.000
39.17000 23.000
39.18500 23.000
39.20000 23.000
39.21500 26.000
39.23000 22.000
39.24500 22.000
39.26000 27.000
39.27500 25.000
39.29000 27.000
39.30500 26.000
39.32000 36.000
39.33500 29.000
39.35000 19.000
39.36500 21.000
39.38000 27.000
39.39500 17.000
39.41000 25.000
39.42500 26.000
39.44000 30.000
39.45500 22.000
39.47000 25.000
39.48500 22.000
39.50000 23.000
39.51500 28.000
39.53000 22.000
39.54500 19.000
39.56000 23.000
39.57500 21.000
39.59000 20.000
39.60500 28.000
39.62000 22.000
39.63500 17.000
39.65000 19.000
39.66500 23.000
39.68000 21.000
39.69500 26.000
39.71000 19.000
39.72500 24.000
39.74000 24.000
39.75500 21.000
39.77000 22.000
39.78500 28.000
39.80000 32.000
39.81500 24.000
39.83000 25.000
39.84500 31.000
39.86000 21.000
39.87500 23.000
39.89000 23.000
39.90500 24.000
39.92000 27.000
39.93500 29.000
39.95000 23.000
39.96500 34.000
39.98000 28.000
39.99500 26.000
40.01000 24.000
40.02500 27.000
40.04000 33.000
40.05500 41.000
40.07000 31.000
40.08500 34.000
40.10000 29.000
40.11500 25.000
40.13000 30.000
40.14500 23.000
40.16000 41.000
40.17500 40.000
40.19000 41.000
40.20500 44.000
40.22000 45.000
40.23500 44.000
40.25000 55.000
40.26500 51.000
40.28000 60.000
40.29500 75.000
40.31000 76.000
40.32500 79.000
40.34000 93.000
40.35500 124.000
40.37000 156.000
40.38500 185.000
40.40000 255.000
40.41500 291.000
40.43000 398.000
40.44500 506.000
40.46000 701.000
40.47500 925.000
40.49000 1171.000
40.50500 1406.000
40.52000 1424.000
40.53500 1348.000
40.55000 1058.000
40.56500 759.000
40.58000 522.000
40.59500 363.000
40.61000 255.000
40.62500 181.000
40.64000 124.000
40.65500 104.000
40.67000 90.000
40.68500 69.000
40.70000 57.000
40.71500 52.000
40.73000 61.000
40.74500 53.000
40.76000 41.000
40.77500 41.000
40.79000 41.000
40.80500 39.000
40.82000 48.000
40.83500 37.000
40.85000 29.000
40.86500 28.000
40.88000 29.000
40.89500 35.000
40.91000 37.000
40.92500 31.000
40.94000 35.000
40.95500 40.000
40.97000 39.000
40.98500 32.000
41.00000 29.000
41.01500 26.000
41.03000 28.000
41.04500 30.000
41.06000 27.000
41.07500 20.000
41.09000 20.000
41.10500 17.000
41.12000 23.000
41.13500 24.000
41.15000 28.000
41.16500 21.000
41.18000 23.000
41.19500 24.000
41.21000 25.000
41.22500 25.000
41.24000 23.000
41.25500 27.000
41.27000 26.000
41.28500 23.000
41.30000 32.000
41.31500 36.000
41.33000 35.000
41.34500 23.000
41.36000 32.000
41.37500 34.000
41.39000 31.000
41.40500 27.000
41.42000 22.000
41.43500 26.000
41.45000 22.000
41.46500 27.000
41.48000 27.000
41.49500 23.000
41.51000 22.000
41.52500 22.000
41.54000 26.000
41.55500 24.000
41.57000 34.000
41.58500 24.000
41.60000 29.000
41.61500 26.000
41.63000 21.000
41.64500 19.000
41.66000 19.000
41.67500 27.000
41.69000 24.000
41.70500 23.000
41.72000 22.000
41.73500 25.000
41.75000 25.000
41.76500 22.000
41.78000 27.000
41.79500 24.000
41.81000 16.000
41.82500 25.000
41.84000 30.000
41.85500 26.000
41.87000 20.000
41.88500 28.000
41.90000 31.000
41.91500 27.000
41.93000 25.000
41.94500 26.000
41.96000 24.000
41.97500 26.000
41.99000 24.000
42.00500 20.000
42.02000 25.000
42.03500 21.000
42.05000 20.000
42.06500 21.000
42.08000 19.000
42.09500 22.000
42.11000 18.000
42.12500 22.000
42.14000 18.000
42.15500 18.000
42.17000 21.000
42.18500 23.000
42.20000 22.000
42.21500 23.000
42.23000 28.000
42.24500 21.000
42.26000 36.000
42.27500 27.000
42.29000 19.000
42.30500 19.000
42.32000 17.000
42.33500 16.000
42.35000 23.000
42.36500 26.000
42.38000 19.000
42.39500 23.000
42.41000 27.000
42.42500 26.000
42.44000 25.000
42.45500 27.000
42.47000 23.000
42.48500 21.000
42.50000 17.000
42.51500 23.000
42.53000 20.000
42.54500 24.000
42.56000 29.000
42.57500 28.000
42.59000 20.000
42.60500 24.000
42.62000 20.000
42.63500 26.000
42.65000 31.000
42.66500 28.000
42.68000 31.000
42.69500 28.000
42.71000 29.000
42.72500 22.000
42.74000 26.000
42.75500 22.000
42.77000 25.000
42.78500 31.000
42.80000 32.000
42.81500 38.000
42.83000 29.000
42.84500 36.000
42.86000 30.000
42.87500 31.000
42.89000 40.000
42.90500 33.000
42.92000 28.000
42.93500 34.000
42.95000 35.000
42.96500 36.000
42.98000 37.000
42.99500 32.000
43.01000 41.000
43.02500 38.000
43.04000 44.000
43.05500 40.000
43.07000 49.000
43.08500 63.000
43.10000 70.000
43.11500 77.000
43.13000 98.000
43.14500 105.000
43.16000 116.000
43.17500 120.000
43.19000 136.000
43.20500 148.000
43.22000 125.000
43.23500 98.000
43.25000 87.000
43.26500 74.000
43.28000 65.000
43.29500 46.000
43.31000 50.000
43.32500 39.000
43.34000 37.000
43.35500 35.000
43.37000 38.000
43.38500 41.000
43.40000 36.000
43.41500 41.000
43.43000 43.000
43.44500 37.000
43.46000 34.000
43.47500 44.000
43.49000 40.000
43.50500 48.000
43.52000 37.000
43.53500 32.000
43.55000 36.000
43.56500 33.000
43.58000 33.000
43.59500 28.000
43.61000 24.000
43.62500 27.000
43.64000 27.000
43.65500 26.000
43.67000 21.000
43.68500 28.000
43.70000 27.000
43.71500 26.000
43.73000 19.000
43.74500 25.000
43.76000 27.000
43.77500 22.000
43.79000 19.000
43.80500 24.000
43.82000 24.000
43.83500 20.000
43.85000 28.000
43.86500 28.000
43.88000 30.000
43.89500 32.000
43.91000 26.000
43.92500 34.000
43.94000 25.000
43.95500 34.000
43.97000 41.000
43.98500 35.000
44.00000 37.000
44.01500 47.000
44.03000 47.000
44.04500 48.000
44.06000 48.000
44.07500 62.000
44.09000 85.000
44.10500 99.000
44.12000 103.000
44.13500 110.000
44.15000 130.000
44.16500 117.000
44.18000 115.000
44.19500 138.000
44.21000 130.000
44.22500 122.000
44.24000 108.000
44.25500 90.000
44.27000 79.000
44.28500 90.000
44.30000 79.000
44.31500 53.000
44.33000 57.000
44.34500 58.000
44.36000 49.000
44.37500 54.000
44.39000 41.000
44.40500 42.000
44.42000 41.000
44.43500 32.000
44.45000 33.000
44.46500 32.000
44.48000 24.000
44.49500 24.000
44.51000 28.000
44.52500 32.000
44.54000 34.000
44.55500 29.000
44.57000 29.000
44.58500 34.000
44.60000 27.000
44.61500 30.000
44.63000 34.000
44.64500 41.000
44.66000 40.000
44.67500 40.000
44.69000 37.000
44.70500 39.000
44.72000 34.000
44.73500 34.000
44.75000 38.000
44.76500 26.000
44.78000 29.000
44.79500 29.000
44.81000 21.000
44.82500 19.000
44.84000 23.000
44.85500 23.000
44.87000 26.000
44.88500 25.000
44.90000 30.000
44.91500 21.000
44.93000 18.000
44.94500 22.000
44.96000 22.000
44.97500 19.000
44.99000 23.000
45.00500 22.000
45.02000 20.000
45.03500 25.000
45.05000 18.000
45.06500 14.000
45.08000 16.000
45.09500 20.000
45.11000 22.000
45.12500 26.000
45.14000 24.000
45.15500 23.000
45.17000 18.000
45.18500 12.000
45.20000 16.000
45.21500 18.000
45.23000 22.000
45.24500 23.000
45.26000 24.000
45.27500 22.000
45.29000 23.000
45.30500 22.000
45.32000 28.000
45.33500 26.000
45.35000 18.000
45.36500 23.000
45.38000 15.000
45.39500 26.000
45.41000 30.000
45.42500 22.000
45.44000 23.000
45.45500 17.000
45.47000 38.000
45.48500 34.000
45.50000 36.000
45.51500 39.000
45.53000 33.000
45.54500 30.000
45.56000 36.000
45.57500 31.000
45.59000 26.000
45.60500 28.000
45.62000 18.000
45.63500 20.000
45.65000 28.000
45.66500 30.000
45.68000 34.000
45.69500 27.000
45.71000 23.000
45.72500 23.000
45.74000 21.000
45.75500 22.000
45.77000 17.000
45.78500 20.000
45.80000 27.000
45.81500 16.000
45.83000 18.000
45.84500 27.000
45.86000 24.000
45.87500 18.000
45.89000 20.000
45.90500 17.000
45.92000 27.000
45.93500 26.000
45.95000 29.000
45.96500 25.000
45.98000 23.000
45.99500 31.000
46.01000 36.000
46.02500 31.000
46.04000 36.000
46.05500 41.000
46.07000 56.000
46.08500 59.000
46.10000 52.000
46.11500 54.000
46.13000 36.000
46.14500 36.000
46.16000 39.000
46.17500 32.000
46.19000 21.000
46.20500 29.000
46.22000 22.000
46.23500 18.000
46.25000 19.000
46.26500 15.000
46.28000 17.000
46.29500 23.000
46.31000 25.000
46.32500 19.000
46.34000 23.000
46.35500 25.000
46.37000 20.000
46.38500 19.000
46.40000 25.000
46.41500 30.000
46.43000 26.000
46.44500 28.000
46.46000 18.000
46.47500 22.000
46.49000 24.000
46.50500 22.000
46.52000 26.000
46.53500 18.000
46.55000 22.000
46.56500 19.000
46.58000 22.000
46.59500 30.000
46.61000 20.000
46.62500 27.000
46.64000 24.000
46.65500 23.000
46.67000 27.000
46.68500 26.000
46.70000 25.000
46.71500 26.000
46.73000 21.000
46.74500 26.000
46.76000 29.000
46.77500 25.000
46.79000 28.000
46.80500 37.000
46.82000 25.000
46.83500 28.000
46.85000 31.000
46.86500 31.000
46.88000 33.000
46.89500 33.000
46.91000 30.000
46.92500 35.000
46.94000 28.000
46.95500 22.000
46.97000 24.000
46.98500 20.000
47.00000 23.000
47.01500 18.000
47.03000 21.000
47.04500 18.000
47.06000 23.000
47.07500 29.000
47.09000 25.000
47.10500 17.000
47.12000 27.000
47.13500 21.000
47.15000 19.000
47.16500 19.000
47.18000 17.000
47.19500 20.000
47.21000 27.000
47.22500 20.000
47.24000 17.000
47.25500 21.000
47.27000 25.000
47.28500 21.000
47.30000 20.000
47.31500 19.000
47.33000 17.000
47.34500 17.000
47.36000 15.000
47.37500 17.000
47.39000 23.000
47.40500 22.000
47.42000 25.000
47.43500 24.000
47.45000 24.000
47.46500 24.000
47.48000 27.000
47.49500 26.000
47.51000 28.000
47.52500 35.000
47.54000 28.000
47.55500 24.000
47.57000 24.000
47.58500 24.000
47.60000 28.000
47.61500 22.000
47.63000 27.000
47.64500 21.000
47.66000 22.000
47.67500 20.000
47.69000 19.000
47.70500 21.000
47.72000 16.000
47.73500 23.000
47.75000 32.000
47.76500 30.000
47.78000 24.000
47.79500 22.000
47.81000 22.000
47.82500 21.000
47.84000 18.000
47.85500 32.000
47.87000 30.000
47.88500 34.000
47.90000 37.000
47.91500 36.000
47.93000 40.000
47.94500 41.000
47.96000 37.000
47.97500 31.000
47.99000 31.000
48.00500 23.000
48.02000 33.000
48.03500 29.000
48.05000 24.000
48.06500 26.000
48.08000 23.000
48.09500 23.000
48.11000 25.000
48.12500 30.000
48.14000 28.000
48.15500 29.000
48.17000 26.000
48.18500 30.000
48.20000 23.000
48.21500 27.000
48.23000 27.000
48.24500 23.000
48.26000 29.000
48.27500 28.000
48.29000 24.000
48.30500 24.000
48.32000 18.000
48.33500 25.000
48.35000 26.000
48.36500 29.000
48.38000 25.000
48.39500 20.000
48.41000 24.000
48.42500 30.000
48.44000 28.000
48.45500 24.000
48.47000 28.000
48.48500 30.000
48.50000 28.000
48.51500 20.000
48.53000 33.000
48.54500 25.000
48.56000 28.000
48.57500 26.000
48.59000 30.000
48.60500 34.000
48.62000 30.000
48.63500 32.000
48.65000 26.000
48.66500 36.000
48.68000 26.000
48.69500 25.000
48.71000 28.000
48.72500 39.000
48.74000 31.000
48.75500 36.000
48.77000 25.000
48.78500 25.000
48.80000 25.000
48.81500 25.000
48.83000 26.000
48.84500 24.000
48.86000 23.000
48.87500 21.000
48.89000 18.000
48.90500 20.000
48.92000 16.000
48.93500 24.000
48.95000 23.000
48.96500 21.000
48.98000 19.000
48.99500 23.000
49.01000 22.000
49.02500 20.000
49.04000 24.000
49.05500 26.000
49.07000 24.000
49.08500 24.000
49.10000 27.000
49.11500 24.000
49.13000 28.000
49.14500 27.000
49.16000 28.000
49.17500 27.000
49.19000 21.000
49.20500 20.000
49.22000 25.000
49.23500 26.000
49.25000 27.000
49.26500 26.000
49.28000 25.000
49.29500 22.000
49.31000 22.000
49.32500 32.000
49.34000 36.000
49.35500 30.000
49.37000 31.000
49.38500 30.000
49.40000 25.000
49.41500 25.000
49.43000 40.000
49.44500 40.000
49.46000 43.000
49.47500 45.000
49.49000 44.000
49.50500 37.000
49.52000 35.000
49.53500 32.000
49.55000 34.000
49.56500 23.000
49.58000 30.000
49.59500 31.000
49.61000 29.000
49.62500 27.000
49.64000 28.000
49.65500 24.000
49.67000 21.000
49.68500 26.000
49.70000 29.000
49.71500 28.000
49.73000 21.000
49.74500 27.000
49.76000 30.000
49.77500 22.000
49.79000 25.000
49.80500 32.000
49.82000 29.000
49.83500 32.000
49.85000 42.000
49.86500 31.000
49.88000 32.000
49.89500 33.000
49.91000 20.000
49.92500 39.000
49.94000 44.000
49.95500 41.000
49.97000 41.000
49.98500 47.000
50.00000 49.000
50.01500 56.000
50.03000 58.000
50.04500 78.000
50.06000 94.000
50.07500 117.000
50.09000 155.000
50.10500 213.000
50.12000 278.000
50.13500 322.000
50.15000 493.000
50.16500 527.000
50.18000 565.000
50.19500 565.000
50.21000 472.000
50.22500 375.000
50.24000 302.000
50.25500 220.000
50.27000 162.000
50.28500 119.000
50.30000 85.000
50.31500 71.000
50.33000 62.000
50.34500 54.000
50.36000 44.000
50.37500 45.000
50.39000 48.000
50.40500 45.000
50.42000 29.000
50.43500 32.000
50.45000 40.000
50.46500 35.000
50.48000 24.000
50.49500 28.000
50.51000 31.000
50.52500 29.000
50.54000 21.000
50.55500 22.000
50.57000 26.000
50.58500 28.000
50.60000 23.000
50.61500 31.000
50.63000 36.000
50.64500 29.000
50.66000 21.000
50.67500 28.000
50.69000 26.000
50.70500 22.000
50.72000 23.000
50.73500 27.000
50.75000 19.000
50.76500 21.000
50.78000 18.000
50.79500 21.000
50.81000 26.000
50.82500 22.000
50.84000 25.000
50.85500 31.000
50.87000 26.000
50.88500 35.000
50.90000 37.000
50.91500 31.000
50.93000 25.000
50.94500 35.000
50.96000 28.000
50.97500 33.000
50.99000 43.000
51.00500 31.000
51.02000 34.000
51.03500 29.000
51.05000 23.000
51.06500 37.000
51.08000 38.000
51.09500 40.000
51.11000 44.000
51.12500 52.000
51.14000 47.000
51.15500 62.000
51.17000 49.000
51.18500 57.000
51.20000 57.000
51.21500 70.000
51.23000 61.000
51.24500 56.000
51.26000 48.000
51.27500 43.000
51.29000 36.000
51.30500 36.000
51.32000 35.000
51.33500 41.000
51.35000 45.000
51.36500 43.000
51.38000 48.000
51.39500 53.000
51.41000 63.000
51.42500 64.000
51.44000 57.000
51.45500 63.000
51.47000 56.000
51.48500 63.000
51.50000 63.000
51.51500 59.000
51.53000 56.000
51.54500 61.000
51.56000 50.000
51.57500 58.000
51.59000 43.000
51.60500 37.000
51.62000 45.000
51.63500 45.000
51.65000 43.000
51.66500 35.000
51.68000 31.000
51.69500 39.000
51.71000 30.000
51.72500 35.000
51.74000 35.000
51.75500 35.000
51.77000 34.000
51.78500 25.000
51.80000 27.000
51.81500 37.000
51.83000 30.000
51.84500 31.000
51.86000 31.000
51.87500 26.000
51.89000 26.000
51.90500 33.000
51.92000 31.000
51.93500 26.000
51.95000 33.000
51.96500 31.000
51.98000 31.000
51.99500 27.000
52.01000 25.000
52.02500 27.000
52.04000 20.000
52.05500 27.000
52.07000 20.000
52.08500 20.000
52.10000 23.000
52.11500 21.000
52.13000 27.000
52.14500 28.000
52.16000 25.000
52.17500 23.000
52.19000 22.000
52.20500 18.000
52.22000 23.000
52.23500 23.000
52.25000 24.000
52.26500 29.000
52.28000 19.000
52.29500 24.000
52.31000 23.000
52.32500 19.000
52.34000 19.000
52.35500 19.000
52.37000 18.000
52.38500 13.000
52.40000 13.000
52.41500 14.000
52.43000 21.000
52.44500 24.000
52.46000 21.000
52.47500 21.000
52.49000 21.000
52.50500 16.000
52.52000 19.000
52.53500 21.000
52.55000 27.000
52.56500 18.000
52.58000 20.000
52.59500 25.000
52.61000 22.000
52.62500 24.000
52.64000 24.000
52.65500 22.000
52.67000 26.000
52.68500 24.000
52.70000 28.000
52.71500 20.000
52.73000 17.000
52.74500 20.000
52.76000 26.000
52.77500 25.000
52.79000 21.000
52.80500 19.000
52.82000 22.000
52.83500 25.000
52.85000 22.000
52.86500 24.000
52.88000 25.000
52.89500 29.000
52.91000 29.000
52.92500 30.000
52.94000 29.000
52.95500 23.000
52.97000 25.000
52.98500 23.000
53.00000 22.000
53.01500 15.000
53.03000 18.000
53.04500 19.000
53.06000 22.000
53.07500 25.000
53.09000 19.000
53.10500 19.000
53.12000 22.000
53.13500 23.000
53.15000 23.000
53.16500 22.000
53.18000 19.000
53.19500 28.000
53.21000 22.000
53.22500 27.000
53.24000 26.000
53.25500 24.000
53.27000 22.000
53.28500 21.000
53.30000 21.000
53.31500 26.000
53.33000 26.000
53.34500 30.000
53.36000 29.000
53.37500 27.000
53.39000 28.000
53.40500 26.000
53.42000 31.000
53.43500 40.000
53.45000 35.000
53.46500 29.000
53.48000 31.000
53.49500 42.000
53.51000 40.000
53.52500 31.000
53.54000 37.000
53.55500 33.000
53.57000 38.000
53.58500 50.000
53.60000 57.000
53.61500 52.000
53.63000 57.000
53.64500 65.000
53.66000 85.000
53.67500 104.000
53.69000 105.000
53.70500 131.000
53.72000 164.000
53.73500 164.000
53.75000 197.000
53.76500 202.000
53.78000 156.000
53.79500 132.000
53.81000 103.000
53.82500 91.000
53.84000 73.000
53.85500 56.000
53.87000 56.000
53.88500 40.000
53.90000 47.000
53.91500 40.000
53.93000 31.000
53.94500 33.000
53.96000 29.000
53.97500 41.000
53.99000 29.000
54.00500 29.000
54.02000 31.000
54.03500 34.000
54.05000 32.000
54.06500 26.000
54.08000 22.000
54.09500 25.000
54.11000 25.000
54.12500 33.000
54.14000 30.000
54.15500 27.000
54.17000 30.000
54.18500 33.000
54.20000 21.000
54.21500 28.000
54.23000 20.000
54.24500 19.000
54.26000 20.000
54.27500 26.000
54.29000 21.000
54.30500 20.000
54.32000 20.000
54.33500 24.000
54.35000 33.000
54.36500 30.000
54.38000 27.000
54.39500 31.000
54.41000 26.000
54.42500 27.000
54.44000 32.000
54.45500 33.000
54.47000 23.000
54.48500 26.000
54.50000 30.000
54.51500 29.000
54.53000 24.000
54.54500 26.000
54.56000 24.000
54.57500 27.000
54.59000 30.000
54.60500 29.000
54.62000 32.000
54.63500 25.000
54.65000 29.000
54.66500 34.000
54.68000 28.000
54.69500 28.000
54.71000 23.000
54.72500 24.000
54.74000 20.000
54.75500 21.000
54.77000 23.000
54.78500 29.000
54.80000 25.000
54.81500 26.000
54.83000 28.000
54.84500 28.000
54.86000 28.000
54.87500 29.000
54.89000 24.000
54.90500 24.000
54.92000 25.000
54.93500 32.000
54.95000 36.000
54.96500 25.000
54.98000 32.000
54.99500 27.000
55.01000 27.000
55.02500 26.000
55.04000 21.000
55.05500 21.000
55.07000 17.000
55.08500 22.000
55.10000 23.000
55.11500 25.000
55.13000 20.000
55.14500 21.000
55.16000 24.000
55.17500 30.000
55.19000 34.000
55.20500 27.000
55.22000 30.000
55.23500 25.000
55.25000 34.000
55.26500 33.000
55.28000 28.000
55.29500 31.000
55.31000 37.000
55.32500 30.000
55.34000 31.000
55.35500 31.000
55.37000 28.000
55.38500 23.000
55.40000 25.000
55.41500 28.000
55.43000 38.000
55.44500 45.000
55.46000 35.000
55.47500 30.000
55.49000 27.000
55.50500 26.000
55.52000 28.000
55.53500 32.000
55.55000 29.000
55.56500 25.000
55.58000 25.000
55.59500 24.000
55.61000 28.000
55.62500 29.000
55.64000 21.000
55.65500 32.000
55.67000 33.000
55.68500 34.000
55.70000 27.000
55.71500 31.000
55.73000 26.000
55.74500 28.000
55.76000 30.000
55.77500 31.000
55.79000 32.000
55.80500 33.000
55.82000 35.000
55.83500 36.000
55.85000 37.000
55.86500 33.000
55.88000 41.000
55.89500 33.000
55.91000 41.000
55.92500 48.000
55.94000 60.000
55.95500 46.000
55.97000 53.000
55.98500 44.000
56.00000 43.000
56.01500 38.000
56.03000 44.000
56.04500 37.000
56.06000 46.000
56.07500 50.000
56.09000 56.000
56.10500 46.000
56.12000 45.000
56.13500 63.000
56.15000 66.000
56.16500 55.000
56.18000 55.000
56.19500 45.000
56.21000 38.000
56.22500 31.000
56.24000 31.000
56.25500 29.000
56.27000 25.000
56.28500 31.000
56.30000 26.000
56.31500 31.000
56.33000 24.000
56.34500 38.000
56.36000 26.000
56.37500 26.000
56.39000 34.000
56.40500 29.000
56.42000 33.000
56.43500 35.000
56.45000 30.000
56.46500 26.000
56.48000 26.000
56.49500 32.000
56.51000 34.000
56.52500 25.000
56.54000 28.000
56.55500 36.000
56.57000 36.000
56.58500 29.000
56.60000 26.000
56.61500 32.000
56.63000 46.000
56.64500 49.000
56.66000 29.000
56.67500 37.000
56.69000 39.000
56.70500 38.000
56.72000 34.000
56.73500 31.000
56.75000 33.000
56.76500 42.000
56.78000 43.000
56.79500 36.000
56.81000 24.000
56.82500 31.000
56.84000 31.000
56.85500 31.000
56.87000 40.000
56.88500 31.000
56.90000 34.000
56.91500 34.000
56.93000 35.000
56.94500 27.000
56.96000 37.000
56.97500 35.000
56.99000 27.000
57.00500 24.000
57.02000 22.000
57.03500 23.000
57.05000 28.000
57.06500 21.000
57.08000 26.000
57.09500 27.000
57.11000 37.000
57.12500 29.000
57.14000 21.000
57.15500 32.000
57.17000 27.000
57.18500 26.000
57.20000 32.000
57.21500 25.000
57.23000 30.000
57.24500 28.000
57.26000 25.000
57.27500 23.000
57.29000 25.000
57.30500 30.000
57.32000 29.000
57.33500 23.000
57.35000 23.000
57.36500 21.000
57.38000 25.000
57.39500 26.000
57.41000 29.000
57.42500 28.000
57.44000 23.000
57.45500 22.000
57.47000 27.000
57.48500 27.000
57.50000 21.000
57.51500 23.000
57.53000 26.000
57.54500 25.000
57.56000 25.000
57.57500 31.000
57.59000 28.000
57.60500 26.000
57.62000 19.000
57.63500 24.000
57.65000 35.000
57.66500 27.000
57.68000 26.000
57.69500 21.000
57.71000 26.000
57.72500 20.000
57.74000 23.000
57.75500 23.000
57.77000 22.000
57.78500 25.000
57.80000 30.000
57.81500 32.000
57.83000 23.000
57.84500 30.000
57.86000 29.000
57.87500 26.000
57.89000 28.000
57.90500 24.000
57.92000 22.000
57.93500 28.000
57.95000 23.000
57.96500 26.000
57.98000 23.000
57.99500 27.000
58.01000 24.000
58.02500 25.000
58.04000 27.000
58.05500 28.000
58.07000 28.000
58.08500 20.000
58.10000 31.000
58.11500 27.000
58.13000 27.000
58.14500 29.000
58.16000 31.000
58.17500 28.000
58.19000 23.000
58.20500 30.000
58.22000 28.000
58.23500 36.000
58.25000 29.000
58.26500 25.000
58.28000 32.000
58.29500 21.000
58.31000 30.000
58.32500 35.000
58.34000 24.000
58.35500 25.000
58.37000 34.000
58.38500 42.000
58.40000 28.000
58.41500 38.000
58.43000 32.000
58.44500 27.000
58.46000 37.000
58.47500 35.000
58.49000 35.000
58.50500 45.000
58.52000 54.000
58.53500 62.000
58.55000 77.000
58.56500 97.000
58.58000 126.000
58.59500 161.000
58.61000 219.000
58.62500 264.000
58.64000 313.000
58.65500 317.000
58.67000 275.000
58.68500 213.000
58.70000 149.000
58.71500 103.000
58.73000 74.000
58.74500 71.000
58.76000 61.000
58.77500 54.000
58.79000 46.000
58.80500 44.000
58.82000 39.000
58.83500 37.000
58.85000 30.000
58.86500 35.000
58.88000 30.000
58.89500 28.000
58.91000 28.000
58.92500 28.000
58.94000 38.000
58.95500 29.000
58.97000 27.000
58.98500 30.000
59.00000 23.000
59.01500 33.000
59.03000 38.000
59.04500 32.000
59.06000 26.000
59.07500 21.000
59.09000 23.000
59.10500 31.000
59.12000 29.000
59.13500 38.000
59.15000 35.000
59.16500 19.000
59.18000 24.000
59.19500 22.000
59.21000 31.000
59.22500 26.000
59.24000 28.000
59.25500 24.000
59.27000 22.000
59.28500 36.000
59.30000 21.000
59.31500 24.000
59.33000 29.000
59.34500 27.000
59.36000 30.000
59.37500 32.000
59.39000 26.000
59.40500 20.000
59.42000 23.000
59.43500 21.000
59.45000 20.000
59.46500 27.000
59.48000 33.000
59.49500 24.000
59.51000 30.000
59.52500 35.000
59.54000 30.000
59.55500 23.000
59.57000 35.000
59.58500 29.000
59.60000 31.000
59.61500 29.000
59.63000 35.000
59.64500 25.000
59.66000 28.000
59.67500 31.000
59.69000 28.000
59.70500 31.000
59.72000 32.000
59.73500 28.000
59.75000 26.000
59.76500 24.000
59.78000 27.000
59.79500 34.000
59.81000 21.000
59.82500 30.000
59.84000 30.000
59.85500 29.000
59.87000 28.000
59.88500 27.000
59.90000 28.000
59.91500 22.000
59.93000 25.000
59.94500 26.000
59.96000 27.000
59.97500 27.000
59.99000 25.000
60.00500 32.000
60.02000 31.000
60.03500 29.000
60.05000 32.000
60.06500 22.000
60.08000 25.000
60.09500 36.000
60.11000 25.000
60.12500 31.000
60.14000 31.000
60.15500 32.000
60.17000 27.000
60.18500 23.000
60.20000 33.000
60.21500 37.000
60.23000 34.000
60.24500 25.000
60.26000 28.000
60.27500 32.000
60.29000 30.000
60.30500 30.000
60.32000 29.000
60.33500 32.000
60.35000 23.000
60.36500 18.000
60.38000 36.000
60.39500 28.000
60.41000 32.000
60.42500 28.000
60.44000 21.000
60.45500 29.000
60.47000 25.000
60.48500 16.000
60.50000 26.000
60.51500 32.000
60.53000 39.000
60.54500 28.000
60.56000 27.000
60.57500 31.000
60.59000 24.000
60.60500 17.000
60.62000 22.000
60.63500 25.000
60.65000 26.000
60.66500 29.000
60.68000 31.000
60.69500 33.000
60.71000 27.000
60.72500 25.000
60.74000 21.000
60.75500 26.000
60.77000 23.000
60.78500 29.000
60.80000 22.000
60.81500 26.000
60.83000 27.000
60.84500 33.000
60.86000 30.000
60.87500 28.000
60.89000 26.000
60.90500 25.000
60.92000 26.000
60.93500 31.000
60.95000 21.000
60.96500 25.000
60.98000 32.000
60.99500 26.000
61.01000 33.000
61.02500 37.000
61.04000 26.000
61.05500 29.000
61.07000 26.000
61.08500 28.000
61.10000 28.000
61.11500 30.000
61.13000 32.000
61.14500 38.000
61.16000 40.000
61.17500 40.000
61.19000 33.000
61.20500 25.000
61.22000 38.000
61.23500 35.000
61.25000 40.000
61.26500 39.000
61.28000 35.000
61.29500 27.000
61.31000 35.000
61.32500 32.000
61.34000 29.000
61.35500 32.000
61.37000 36.000
61.38500 33.000
61.40000 33.000
61.41500 35.000
61.43000 29.000
61.44500 32.000
61.46000 29.000
61.47500 25.000
61.49000 29.000
61.50500 30.000
61.52000 25.000
61.53500 33.000
61.55000 27.000
61.56500 20.000
61.58000 22.000
61.59500 22.000
61.61000 26.000
61.62500 27.000
61.64000 26.000
61.65500 29.000
61.67000 20.000
61.68500 28.000
61.70000 32.000
61.71500 29.000
61.73000 34.000
61.74500 30.000
61.76000 24.000
61.77500 25.000
61.79000 34.000
61.80500 30.000
61.82000 24.000
61.83500 26.000
61.85000 32.000
61.86500 24.000
61.88000 25.000
61.89500 23.000
61.91000 29.000
61.92500 27.000
61.94000 29.000
61.95500 27.000
61.97000 27.000
61.98500 31.000
