2.00000 321.000
2.01500 308.000
2.03000 318.000
2.04500 334.000
2.06000 278.000
2.07500 281.000
2.09000 286.000
2.10500 293.000
2.12000 279.000
2.13500 266.000
2.15000 295.000
2.16500 280.000
2.18000 284.000
2.19500 270.000
2.21000 242.000
2.22500 250.000
2.24000 262.000
2.25500 253.000
2.27000 259.000
2.28500 260.000
2.30000 236.000
2.31500 218.000
2.33000 222.000
2.34500 236.000
2.36000 219.000
2.37500 229.000
2.39000 213.000
2.40500 196.000
2.42000 214.000
2.43500 232.000
2.45000 207.000
2.46500 203.000
2.48000 203.000
2.49500 206.000
2.51000 208.000
2.52500 190.000
2.54000 214.000
2.55500 212.000
2.57000 206.000
2.58500 186.000
2.60000 209.000
2.61500 228.000
2.63000 196.000
2.64500 202.000
2.66000 194.000
2.67500 173.000
2.69000 184.000
2.70500 174.000
2.72000 180.000
2.73500 190.000
2.75000 196.000
2.76500 201.000
2.78000 172.000
2.79500 175.000
2.81000 180.000
2.82500 163.000
2.84000 188.000
2.85500 172.000
2.87000 173.000
2.88500 169.000
2.90000 160.000
2.91500 180.000
2.93000 205.000
2.94500 191.000
2.96000 174.000
2.97500 185.000
2.99000 162.000
3.00500 166.000
3.02000 181.000
3.03500 185.000
3.05000 176.000
3.06500 162.000
3.08000 177.000
3.09500 187.000
3.11000 171.000
3.12500 143.000
3.14000 165.000
3.15500 179.000
3.17000 169.000
3.18500 165.000
3.20000 176.000
3.21500 158.000
3.23000 159.000
3.24500 168.000
3.26000 150.000
3.27500 160.000
3.29000 166.000
3.30500 164.000
3.32000 159.000
3.33500 180.000
3.35000 173.000
3.36500 154.000
3.38000 143.000
3.39500 163.000
3.41000 183.000
3.42500 187.000
3.44000 174.000
3.45500 145.000
3.47000 179.000
3.48500 171.000
3.50000 172.000
3.51500 164.000
3.53000 157.000
3.54500 146.000
3.56000 157.000
3.57500 148.000
3.59000 170.000
3.60500 159.000
3.62000 165.000
3.63500 145.000
3.65000 174.000
3.66500 150.000
3.68000 147.000
3.69500 159.000
3.71000 154.000
3.72500 148.000
3.74000 149.000
3.75500 169.000
3.77000 151.000
3.78500 160.000
3.80000 143.000
3.81500 137.000
3.83000 157.000
3.84500 188.000
3.86000 158.000
3.87500 158.000
3.89000 175.000
3.90500 152.000
3.92000 158.000
3.93500 158.000
3.95000 142.000
3.96500 158.000
3.98000 162.000
3.99500 168.000
4.01000 188.000
4.02500 184.000
4.04000 162.000
4.05500 159.000
4.07000 162.000
4.08500 160.000
4.10000 151.000
4.11500 157.000
4.13000 151.000
4.14500 163.000
4.16000 152.000
4.17500 171.000
4.19000 173.000
4.20500 146.000
4.22000 165.000
4.23500 159.000
4.25000 178.000
4.26500 162.000
4.28000 162.000
4.29500 157.000
4.31000 173.000
4.32500 167.000
4.34000 145.000
4.35500 166.000
4.37000 167.000
4.38500 158.000
4.40000 150.000
4.41500 148.000
4.43000 142.000
4.44500 157.000
4.46000 159.000
4.47500 155.000
4.49000 157.000
4.50500 154.000
4.52000 157.000
4.53500 162.000
4.55000 155.000
4.56500 146.000
4.58000 153.000
4.59500 174.000
4.61000 157.000
4.62500 161.000
4.64000 131.000
4.65500 149.000
4.67000 156.000
4.68500 163.000
4.70000 175.000
4.71500 155.000
4.73000 150.000
4.74500 174.000
4.76000 157.000
4.77500 157.000
4.79000 150.000
4.80500 163.000
4.82000 158.000
4.83500 154.000
4.85000 153.000
4.86500 165.000
4.88000 169.000
4.89500 155.000
4.91000 158.000
4.92500 165.000
4.94000 155.000
4.95500 154.000
4.97000 163.000
4.98500 149.000
5.00000 159.000
5.01500 168.000
5.03000 155.000
5.04500 150.000
5.06000 166.000
5.07500 162.000
5.09000 178.000
5.10500 152.000
5.12000 153.000
5.13500 162.000
5.15000 165.000
5.16500 152.000
5.18000 142.000
5.19500 148.000
5.21000 164.000
5.22500 177.000
5.24000 188.000
5.25500 167.000
5.27000 164.000
5.28500 157.000
5.30000 165.000
5.31500 157.000
5.33000 164.000
5.34500 157.000
5.36000 171.000
5.37500 153.000
5.39000 160.000
5.40500 154.000
5.42000 151.000
5.43500 169.000
5.45000 169.000
5.46500 159.000
5.48000 143.000
5.49500 162.000
5.51000 175.000
5.52500 174.000
5.54000 149.000
5.55500 140.000
5.57000 162.000
5.58500 162.000
5.60000 165.000
5.61500 148.000
5.63000 164.000
5.64500 159.000
5.66000 168.000
5.67500 150.000
5.69000 175.000
5.70500 164.000
5.72000 168.000
5.73500 146.000
5.75000 150.000
5.76500 179.000
5.78000 184.000
5.79500 159.000
5.81000 172.000
5.82500 171.000
5.84000 164.000
5.85500 165.000
5.87000 167.000
5.88500 174.000
5.90000 177.000
5.91500 166.000
5.93000 171.000
5.94500 158.000
5.96000 172.000
5.97500 175.000
5.99000 173.000
6.00500 161.000
6.02000 167.000
6.03500 182.000
6.05000 184.000
6.06500 170.000
6.08000 184.000
6.09500 181.000
6.11000 172.000
6.12500 171.000
6.14000 170.000
6.15500 167.000
6.17000 198.000
6.18500 188.000
6.20000 174.000
6.21500 177.000
6.23000 191.000
6.24500 171.000
6.26000 174.000
6.27500 177.000
6.29000 182.000
6.30500 180.000
6.32000 166.000
6.33500 175.000
6.35000 182.000
6.36500 177.000
6.38000 177.000
6.39500 166.000
6.41000 177.000
6.42500 167.000
6.44000 166.000
6.45500 184.000
6.47000 174.000
6.48500 161.000
6.50000 166.000
6.51500 167.000
6.53000 167.000
6.54500 181.000
6.56000 174.000
6.57500 172.000
6.59000 157.000
6.60500 148.000
6.62000 169.000
6.63500 150.000
6.65000 171.000
6.66500 161.000
6.68000 170.000
6.69500 183.000
6.71000 177.000
6.72500 181.000
6.74000 187.000
6.75500 173.000
6.77000 163.000
6.78500 169.000
6.80000 153.000
6.81500 157.000
6.83000 160.000
6.84500 147.000
6.86000 177.000
6.87500 181.000
6.89000 181.000
6.90500 177.000
6.92000 176.000
6.93500 180.000
6.95000 165.000
6.96500 163.000
6.98000 158.000
6.99500 169.000
7.01000 152.000
7.02500 143.000
7.04000 162.000
7.05500 163.000
7.07000 175.000
7.08500 168.000
7.10000 156.000
7.11500 144.000
7.13000 167.000
7.14500 173.000
7.16000 185.000
7.17500 153.000
7.19000 158.000
7.20500 162.000
7.22000 175.000
7.23500 185.000
7.25000 163.000
7.26500 171.000
7.28000 172.000
7.29500 161.000
7.31000 163.000
7.32500 147.000
7.34000 154.000
7.35500 166.000
7.37000 160.000
7.38500 162.000
7.40000 167.000
7.41500 172.000
7.43000 166.000
7.44500 170.000
7.46000 161.000
7.47500 159.000
7.49000 180.000
7.50500 158.000
7.52000 145.000
7.53500 150.000
7.55000 152.000
7.56500 169.000
7.58000 167.000
7.59500 158.000
7.61000 170.000
7.62500 158.000
7.64000 150.000
7.65500 172.000
7.67000 161.000
7.68500 172.000
7.70000 170.000
7.71500 153.000
7.73000 156.000
7.74500 148.000
7.76000 170.000
7.77500 175.000
7.79000 184.000
7.80500 162.000
7.82000 164.000
7.83500 157.000
7.85000 167.000
7.86500 175.000
7.88000 163.000
7.89500 170.000
7.91000 150.000
7.92500 180.000
7.94000 168.000
7.95500 159.000
7.97000 142.000
7.98500 160.000
8.00000 177.000
8.01500 163.000
8.03000 170.000
8.04500 178.000
8.06000 159.000
8.07500 177.000
8.09000 158.000
8.10500 158.000
8.12000 149.000
8.13500 167.000
8.15000 169.000
8.16500 170.000
8.18000 163.000
8.19500 174.000
8.21000 153.000
8.22500 149.000
8.24000 163.000
8.25500 169.000
8.27000 178.000
8.28500 164.000
8.30000 152.000
8.31500 152.000
8.33000 151.000
8.34500 162.000
8.36000 174.000
8.37500 174.000
8.39000 179.000
8.40500 171.000
8.42000 168.000
8.43500 171.000
8.45000 160.000
8.46500 160.000
8.48000 169.000
8.49500 157.000
8.51000 152.000
8.52500 172.000
8.54000 172.000
8.55500 183.000
8.57000 193.000
8.58500 190.000
8.60000 183.000
8.61500 171.000
8.63000 154.000
8.64500 153.000
8.66000 174.000
8.67500 173.000
8.69000 148.000
8.70500 145.000
8.72000 164.000
8.73500 181.000
8.75000 177.000
8.76500 155.000
8.78000 160.000
8.79500 165.000
8.81000 163.000
8.82500 160.000
8.84000 151.000
8.85500 163.000
8.87000 174.000
8.88500 173.000
8.90000 162.000
8.91500 146.000
8.93000 138.000
8.94500 157.000
8.96000 174.000
8.97500 194.000
8.99000 169.000
9.00500 156.000
9.02000 155.000
9.03500 163.000
9.05000 177.000
9.06500 163.000
9.08000 181.000
9.09500 170.000
9.11000 158.000
9.12500 170.000
9.14000 154.000
9.15500 165.000
9.17000 158.000
9.18500 165.000
9.20000 170.000
9.21500 173.000
9.23000 171.000
9.24500 166.000
9.26000 178.000
9.27500 167.000
9.29000 175.000
9.30500 151.000
9.32000 166.000
9.33500 157.000
9.35000 172.000
9.36500 151.000
9.38000 159.000
9.39500 149.000
9.41000 161.000
9.42500 177.000
9.44000 172.000
9.45500 157.000
9.47000 168.000
9.48500 172.000
9.50000 178.000
9.51500 176.000
9.53000 166.000
9.54500 155.000
9.56000 173.000
9.57500 169.000
9.59000 194.000
9.60500 172.000
9.62000 165.000
9.63500 183.000
9.65000 184.000
9.66500 192.000
9.68000 178.000
9.69500 184.000
9.71000 160.000
9.72500 171.000
9.74000 188.000
9.75500 163.000
9.77000 175.000
9.78500 166.000
9.80000 161.000
9.81500 178.000
9.83000 183.000
9.84500 176.000
9.86000 175.000
9.87500 179.000
9.89000 179.000
9.90500 187.000
9.92000 170.000
9.93500 158.000
9.95000 146.000
9.96500 186.000
9.98000 164.000
9.99500 149.000
10.01000 157.000
10.02500 177.000
10.04000 159.000
10.05500 167.000
10.07000 170.000
10.08500 159.000
10.10000 167.000
10.11500 178.000
10.13000 189.000
10.14500 159.000
10.16000 173.000
10.17500 188.000
10.19000 201.000
10.20500 199.000
10.22000 176.000
10.23500 162.000
10.25000 188.000
10.26500 193.000
10.28000 184.000
10.29500 165.000
10.31000 177.000
10.32500 159.000
10.34000 161.000
10.35500 165.000
10.37000 182.000
10.38500 180.000
10.40000 178.000
10.41500 179.000
10.43000 190.000
10.44500 185.000
10.46000 179.000
10.47500 176.000
10.49000 170.000
10.50500 176.000
10.52000 176.000
10.53500 177.000
10.55000 161.000
10.56500 159.000
10.58000 168.000
10.59500 165.000
10.61000 184.000
10.62500 197.000
10.64000 187.000
10.65500 155.000
10.67000 186.000
10.68500 184.000
10.70000 176.000
10.71500 192.000
10.73000 209.000
10.74500 180.000
10.76000 169.000
10.77500 164.000
10.79000 165.000
10.80500 178.000
10.82000 185.000
10.83500 174.000
10.85000 173.000
10.86500 194.000
10.88000 193.000
10.89500 182.000
10.91000 178.000
10.92500 186.000
10.94000 196.000
10.95500 206.000
10.97000 188.000
10.98500 188.000
11.00000 172.000
11.01500 187.000
11.03000 165.000
11.04500 169.000
11.06000 171.000
11.07500 184.000
11.09000 164.000
11.10500 165.000
11.12000 171.000
11.13500 173.000
11.15000 159.000
11.16500 160.000
11.18000 154.000
11.19500 149.000
11.21000 158.000
11.22500 164.000
11.24000 162.000
11.25500 142.000
11.27000 153.000
11.28500 170.000
11.30000 182.000
11.31500 174.000
11.33000 183.000
11.34500 165.000
11.36000 159.000
11.37500 173.000
11.39000 171.000
11.40500 169.000
11.42000 177.000
11.43500 158.000
11.45000 159.000
11.46500 163.000
11.48000 182.000
11.49500 175.000
11.51000 159.000
11.52500 168.000
11.54000 167.000
11.55500 160.000
11.57000 160.000
11.58500 173.000
11.60000 161.000
11.61500 167.000
11.63000 160.000
11.64500 174.000
11.66000 149.000
11.67500 170.000
11.69000 169.000
11.70500 155.000
11.72000 190.000
11.73500 187.000
11.75000 155.000
11.76500 147.000
11.78000 174.000
11.79500 201.000
11.81000 198.000
11.82500 190.000
11.84000 181.000
11.85500 187.000
11.87000 200.000
11.88500 225.000
11.90000 236.000
11.91500 242.000
11.93000 253.000
11.94500 264.000
11.96000 349.000
11.97500 350.000
11.99000 389.000
12.00500 476.000
12.02000 547.000
12.03500 676.000
12.05000 773.000
12.06500 677.000
12.08000 485.000
12.09500 328.000
12.11000 259.000
12.12500 231.000
12.14000 220.000
12.15500 216.000
12.17000 180.000
12.18500 195.000
12.20000 194.000
12.21500 180.000
12.23000 203.000
12.24500 186.000
12.26000 190.000
12.27500 180.000
12.29000 194.000
12.30500 203.000
12.32000 194.000
12.33500 194.000
12.35000 204.000
12.36500 173.000
12.38000 181.000
12.39500 170.000
12.41000 174.000
12.42500 163.000
12.44000 158.000
12.45500 177.000
12.47000 196.000
12.48500 185.000
12.50000 175.000
12.51500 176.000
12.53000 162.000
12.54500 193.000
12.56000 180.000
12.57500 159.000
12.59000 165.000
12.60500 152.000
12.62000 162.000
12.63500 183.000
12.65000 185.000
12.66500 183.000
12.68000 172.000
12.69500 177.000
12.71000 179.000
12.72500 170.000
12.74000 176.000
12.75500 179.000
12.77000 170.000
12.78500 178.000
12.80000 188.000
12.81500 175.000
12.83000 156.000
12.84500 162.000
12.86000 178.000
12.87500 172.000
12.89000 172.000
12.90500 177.000
12.92000 179.000
12.93500 174.000
12.95000 166.000
12.96500 170.000
12.98000 152.000
12.99500 179.000
13.01000 179.000
13.02500 176.000
13.04000 153.000
13.05500 171.000
13.07000 171.000
13.08500 175.000
13.10000 157.000
13.11500 159.000
13.13000 177.000
13.14500 194.000
13.16000 175.000
13.17500 176.000
13.19000 195.000
13.20500 196.000
13.22000 161.000
13.23500 145.000
13.25000 153.000
13.26500 159.000
13.28000 154.000
13.29500 161.000
13.31000 161.000
13.32500 168.000
13.34000 170.000
13.35500 178.000
13.37000 178.000
13.38500 174.000
13.40000 187.000
13.41500 191.000
13.43000 166.000
13.44500 161.000
13.46000 160.000
13.47500 164.000
13.49000 156.000
13.50500 165.000
13.52000 170.000
13.53500 161.000
13.55000 154.000
13.56500 183.000
13.58000 162.000
13.59500 165.000
13.61000 177.000
13.62500 191.000
13.64000 170.000
13.65500 200.000
13.67000 182.000
13.68500 174.000
13.70000 162.000
13.71500 152.000
13.73000 160.000
13.74500 167.000
13.76000 141.000
13.77500 151.000
13.79000 171.000
13.80500 170.000
13.82000 183.000
13.83500 192.000
13.85000 176.000
13.86500 189.000
13.88000 192.000
13.89500 168.000
13.91000 178.000
13.92500 158.000
13.94000 170.000
13.95500 179.000
13.97000 179.000
13.98500 175.000
14.00000 158.000
14.01500 174.000
14.03000 166.000
14.04500 161.000
14.06000 181.000
14.07500 162.000
14.09000 160.000
14.10500 156.000
14.12000 147.000
14.13500 188.000
14.15000 154.000
14.16500 182.000
14.18000 191.000
14.19500 173.000
14.21000 181.000
14.22500 183.000
14.24000 169.000
14.25500 179.000
14.27000 179.000
14.28500 171.000
14.30000 152.000
14.31500 147.000
14.33000 151.000
14.34500 174.000
14.36000 193.000
14.37500 162.000
14.39000 173.000
14.40500 187.000
14.42000 180.000
14.43500 178.000
14.45000 165.000
14.46500 168.000
14.48000 167.000
14.49500 174.000
14.51000 181.000
14.52500 167.000
14.54000 175.000
14.55500 175.000
14.57000 164.000
14.58500 163.000
14.60000 181.000
14.61500 184.000
14.63000 180.000
14.64500 164.000
14.66000 171.000
14.67500 185.000
14.69000 173.000
14.70500 163.000
14.72000 170.000
14.73500 182.000
14.75000 173.000
14.76500 170.000
14.78000 184.000
14.79500 176.000
14.81000 182.000
14.82500 173.000
14.84000 186.000
14.85500 168.000
14.87000 179.000
14.88500 174.000
14.90000 177.000
14.91500 180.000
14.93000 188.000
14.94500 163.000
14.96000 183.000
14.97500 171.000
14.99000 170.000
15.00500 187.000
15.02000 191.000
15.03500 171.000
15.05000 163.000
15.06500 164.000
15.08000 178.000
15.09500 176.000
15.11000 157.000
15.12500 177.000
15.14000 177.000
15.15500 175.000
15.17000 184.000
15.18500 175.000
15.20000 178.000
15.21500 193.000
15.23000 163.000
15.24500 168.000
15.26000 153.000
15.27500 174.000
15.29000 178.000
15.30500 182.000
15.32000 185.000
15.33500 199.000
15.35000 192.000
15.36500 173.000
15.38000 175.000
15.39500 169.000
15.41000 168.000
15.42500 181.000
15.44000 191.000
15.45500 172.000
15.47000 161.000
15.48500 168.000
15.50000 165.000
15.51500 163.000
15.53000 176.000
15.54500 177.000
15.56000 188.000
15.57500 194.000
15.59000 167.000
15.60500 176.000
15.62000 184.000
15.63500 164.000
15.65000 166.000
15.66500 168.000
15.68000 174.000
15.69500 174.000
15.71000 184.000
15.72500 176.000
15.74000 171.000
15.75500 188.000
15.77000 179.000
15.78500 174.000
15.80000 177.000
15.81500 181.000
15.83000 170.000
15.84500 169.000
15.86000 186.000
15.87500 192.000
15.89000 192.000
15.90500 195.000
15.92000 187.000
15.93500 191.000
15.95000 180.000
15.96500 177.000
15.98000 179.000
15.99500 198.000
16.01000 206.000
16.02500 177.000
16.04000 174.000
16.05500 181.000
16.07000 178.000
16.08500 172.000
16.10000 192.000
16.11500 191.000
16.13000 187.000
16.14500 174.000
16.16000 170.000
16.17500 177.000
16.19000 188.000
16.20500 172.000
16.22000 180.000
16.23500 167.000
16.25000 178.000
16.26500 191.000
16.28000 182.000
16.29500 181.000
16.31000 173.000
16.32500 169.000
16.34000 174.000
16.35500 178.000
16.37000 185.000
16.38500 188.000
16.40000 187.000
16.41500 171.000
16.43000 173.000
16.44500 164.000
16.46000 176.000
16.47500 178.000
16.49000 185.000
16.50500 179.000
16.52000 190.000
16.53500 182.000
16.55000 187.000
16.56500 187.000
16.58000 170.000
16.59500 171.000
16.61000 193.000
16.62500 172.000
16.64000 177.000
16.65500 169.000
16.67000 189.000
16.68500 181.000
16.70000 178.000
16.71500 204.000
16.73000 191.000
16.74500 202.000
16.76000 199.000
16.77500 184.000
16.79000 173.000
16.80500 193.000
16.82000 184.000
16.83500 178.000
16.85000 173.000
16.86500 180.000
16.88000 182.000
16.89500 183.000
16.91000 197.000
16.92500 180.000
16.94000 182.000
16.95500 197.000
16.97000 185.000
16.98500 176.000
17.00000 167.000
17.01500 179.000
17.03000 170.000
17.04500 195.000
17.06000 200.000
17.07500 192.000
17.09000 172.000
17.10500 182.000
17.12000 188.000
17.13500 185.000
17.15000 195.000
17.16500 183.000
17.18000 198.000
17.19500 201.000
17.21000 188.000
17.22500 208.000
17.24000 191.000
17.25500 204.000
17.27000 196.000
17.28500 206.000
17.30000 196.000
17.31500 198.000
17.33000 194.000
17.34500 173.000
17.36000 179.000
17.37500 174.000
17.39000 172.000
17.40500 185.000
17.42000 180.000
17.43500 189.000
17.45000 178.000
17.46500 191.000
17.48000 190.000
17.49500 211.000
17.51000 191.000
17.52500 200.000
17.54000 191.000
17.55500 194.000
17.57000 198.000
17.58500 209.000
17.60000 197.000
17.61500 185.000
17.63000 199.000
17.64500 184.000
17.66000 190.000
17.67500 198.000
17.69000 198.000
17.70500 217.000
17.72000 200.000
17.73500 191.000
17.75000 206.000
17.76500 188.000
17.78000 176.000
17.79500 191.000
17.81000 222.000
17.82500 200.000
17.84000 211.000
17.85500 213.000
17.87000 225.000
17.88500 189.000
17.90000 215.000
17.91500 199.000
17.93000 203.000
17.94500 199.000
17.96000 182.000
17.97500 192.000
17.99000 206.000
18.00500 215.000
18.02000 196.000
18.03500 208.000
18.05000 198.000
18.06500 199.000
18.08000 207.000
18.09500 179.000
18.11000 203.000
18.12500 202.000
18.14000 184.000
18.15500 193.000
18.17000 186.000
18.18500 190.000
18.20000 200.000
18.21500 204.000
18.23000 175.000
18.24500 215.000
18.26000 224.000
18.27500 190.000
18.29000 224.000
18.30500 191.000
18.32000 197.000
18.33500 213.000
18.35000 209.000
18.36500 224.000
18.38000 218.000
18.39500 205.000
18.41000 203.000
18.42500 203.000
18.44000 206.000
18.45500 208.000
18.47000 197.000
18.48500 200.000
18.50000 212.000
18.51500 212.000
18.53000 202.000
18.54500 205.000
18.56000 207.000
18.57500 209.000
18.59000 198.000
18.60500 203.000
18.62000 219.000
18.63500 211.000
18.65000 198.000
18.66500 212.000
18.68000 223.000
18.69500 220.000
18.71000 233.000
18.72500 213.000
18.74000 202.000
18.75500 213.000
18.77000 208.000
18.78500 206.000
18.80000 224.000
18.81500 225.000
18.83000 214.000
18.84500 186.000
18.86000 218.000
18.87500 228.000
18.89000 198.000
18.90500 216.000
18.92000 221.000
18.93500 216.000
18.95000 215.000
18.96500 211.000
18.98000 209.000
18.99500 220.000
19.01000 230.000
19.02500 223.000
19.04000 245.000
19.05500 228.000
19.07000 214.000
19.08500 224.000
19.10000 218.000
19.11500 224.000
19.13000 199.000
19.14500 202.000
19.16000 204.000
19.17500 230.000
19.19000 230.000
19.20500 215.000
19.22000 215.000
19.23500 212.000
19.25000 192.000
19.26500 195.000
19.28000 200.000
19.29500 221.000
19.31000 206.000
19.32500 211.000
19.34000 199.000
19.35500 224.000
19.37000 229.000
19.38500 224.000
19.40000 216.000
19.41500 216.000
19.43000 211.000
19.44500 221.000
19.46000 201.000
19.47500 211.000
19.49000 203.000
19.50500 231.000
19.52000 223.000
19.53500 234.000
19.55000 198.000
19.56500 201.000
19.58000 218.000
19.59500 198.000
19.61000 204.000
19.62500 216.000
19.64000 205.000
19.65500 229.000
19.67000 206.000
19.68500 181.000
19.70000 191.000
19.71500 217.000
19.73000 215.000
19.74500 219.000
19.76000 208.000
19.77500 214.000
19.79000 217.000
19.80500 205.000
19.82000 198.000
19.83500 209.000
19.85000 205.000
19.86500 191.000
19.88000 223.000
19.89500 234.000
19.91000 213.000
19.92500 222.000
19.94000 215.000
19.95500 225.000
19.97000 226.000
19.98500 229.000
20.00000 216.000
20.01500 210.000
20.03000 223.000
20.04500 227.000
20.06000 227.000
20.07500 199.000
20.09000 216.000
20.10500 208.000
20.12000 201.000
20.13500 214.000
20.15000 223.000
20.16500 205.000
20.18000 206.000
20.19500 224.000
20.21000 218.000
20.22500 205.000
20.24000 226.000
20.25500 209.000
20.27000 214.000
20.28500 232.000
20.30000 225.000
20.31500 226.000
20.33000 221.000
20.34500 212.000
20.36000 216.000
20.37500 216.000
20.39000 202.000
20.40500 209.000
20.42000 232.000
20.43500 216.000
20.45000 202.000
20.46500 230.000
20.48000 222.000
20.49500 231.000
20.51000 240.000
20.52500 220.000
20.54000 222.000
20.55500 224.000
20.57000 255.000
20.58500 227.000
20.60000 214.000
20.61500 244.000
20.63000 227.000
20.64500 225.000
20.66000 216.000
20.67500 254.000
20.69000 252.000
20.70500 251.000
20.72000 246.000
20.73500 256.000
20.75000 273.000
20.76500 331.000
20.78000 357.000
20.79500 418.000
20.81000 501.000
20.82500 574.000
20.84000 756.000
20.85500 965.000
20.87000 1243.000
20.88500 1723.000
20.90000 2363.000
20.91500 3095.000
20.93000 3861.000
20.94500 3998.000
20.96000 3406.000
20.97500 2381.000
20.99000 1474.000
21.00500 869.000
21.02000 572.000
21.03500 452.000
21.05000 366.000
21.06500 327.000
21.08000 288.000
21.09500 278.000
21.11000 275.000
21.12500 274.000
21.14000 253.000
21.15500 244.000
21.17000 257.000
21.18500 209.000
21.20000 236.000
21.21500 239.000
21.23000 260.000
21.24500 254.000
21.26000 236.000
21.27500 235.000
21.29000 249.000
21.30500 245.000
21.32000 258.000
21.33500 217.000
21.35000 228.000
21.36500 207.000
21.38000 209.000
21.39500 233.000
21.41000 251.000
21.42500 241.000
21.44000 249.000
21.45500 243.000
21.47000 230.000
21.48500 243.000
21.50000 229.000
21.51500 233.000
21.53000 228.000
21.54500 218.000
21.56000 234.000
21.57500 236.000
21.59000 245.000
21.60500 253.000
21.62000 231.000
21.63500 250.000
21.65000 232.000
21.66500 242.000
21.68000 241.000
21.69500 226.000
21.71000 242.000
21.72500 216.000
21.74000 237.000
21.75500 251.000
21.77000 233.000
21.78500 250.000
21.80000 254.000
21.81500 246.000
21.83000 253.000
21.84500 256.000
21.86000 248.000
21.87500 240.000
21.89000 242.000
21.90500 222.000
21.92000 254.000
21.93500 256.000
21.95000 242.000
21.96500 239.000
21.98000 250.000
21.99500 244.000
22.01000 240.000
22.02500 240.000
22.04000 245.000
22.05500 268.000
22.07000 243.000
22.08500 238.000
22.10000 230.000
22.11500 239.000
22.13000 252.000
22.14500 228.000
22.16000 240.000
22.17500 255.000
22.19000 248.000
22.20500 243.000
22.22000 245.000
22.23500 252.000
22.25000 229.000
22.26500 227.000
22.28000 246.000
22.29500 247.000
22.31000 269.000
22.32500 242.000
22.34000 224.000
22.35500 215.000
22.37000 224.000
22.38500 230.000
22.40000 229.000
22.41500 231.000
22.43000 243.000
22.44500 219.000
22.46000 250.000
22.47500 242.000
22.49000 226.000
22.50500 235.000
22.52000 259.000
22.53500 260.000
22.55000 248.000
22.56500 248.000
22.58000 232.000
22.59500 235.000
22.61000 240.000
22.62500 244.000
22.64000 232.000
22.65500 256.000
22.67000 255.000
22.68500 229.000
22.70000 227.000
22.71500 231.000
22.73000 253.000
22.74500 251.000
22.76000 220.000
22.77500 256.000
22.79000 219.000
22.80500 230.000
22.82000 273.000
22.83500 254.000
22.85000 249.000
22.86500 232.000
22.88000 245.000
22.89500 222.000
22.91000 235.000
22.92500 225.000
22.94000 264.000
22.95500 248.000
22.97000 230.000
22.98500 267.000
23.00000 250.000
23.01500 252.000
23.03000 257.000
23.04500 263.000
23.06000 260.000
23.07500 261.000
23.09000 260.000
23.10500 229.000
23.12000 265.000
23.13500 238.000
23.15000 259.000
23.16500 266.000
23.18000 251.000
23.19500 247.000
23.21000 231.000
23.22500 239.000
23.24000 266.000
23.25500 244.000
23.27000 252.000
23.28500 241.000
23.30000 240.000
23.31500 246.000
23.33000 256.000
23.34500 257.000
23.36000 241.000
23.37500 246.000
23.39000 250.000
23.40500 245.000
23.42000 235.000
23.43500 251.000
23.45000 260.000
23.46500 251.000
23.48000 272.000
23.49500 247.000
23.51000 243.000
23.52500 249.000
23.54000 267.000
23.55500 266.000
23.57000 253.000
23.58500 261.000
23.60000 264.000
23.61500 216.000
23.63000 222.000
23.64500 254.000
23.66000 263.000
23.67500 261.000
23.69000 244.000
23.70500 239.000
23.72000 229.000
23.73500 251.000
23.75000 244.000
23.76500 231.000
23.78000 237.000
23.79500 259.000
23.81000 234.000
23.82500 242.000
23.84000 258.000
23.85500 273.000
23.87000 235.000
23.88500 274.000
23.90000 256.000
23.91500 242.000
23.93000 245.000
23.94500 262.000
23.96000 263.000
23.97500 256.000
23.99000 276.000
24.00500 271.000
24.02000 314.000
24.03500 312.000
24.05000 323.000
24.06500 332.000
24.08000 353.000
24.09500 407.000
24.11000 471.000
24.12500 538.000
24.14000 636.000
24.15500 823.000
24.17000 1096.000
24.18500 1499.000
24.20000 1881.000
24.21500 2288.000
24.23000 2294.000
24.24500 1975.000
24.26000 1483.000
24.27500 976.000
24.29000 650.000
24.30500 501.000
24.32000 421.000
24.33500 403.000
24.35000 382.000
24.36500 374.000
24.38000 388.000
24.39500 402.000
24.41000 407.000
24.42500 416.000
24.44000 410.000
24.45500 407.000
24.47000 400.000
24.48500 419.000
24.50000 401.000
24.51500 381.000
24.53000 359.000
24.54500 365.000
24.56000 356.000
24.57500 325.000
24.59000 325.000
24.60500 318.000
24.62000 317.000
24.63500 318.000
24.65000 311.000
24.66500 287.000
24.68000 312.000
24.69500 301.000
24.71000 284.000
24.72500 291.000
24.74000 290.000
24.75500 309.000
24.77000 291.000
24.78500 273.000
24.80000 280.000
24.81500 264.000
24.83000 293.000
24.84500 292.000
24.86000 312.000
24.87500 313.000
24.89000 296.000
24.90500 307.000
24.92000 298.000
24.93500 293.000
24.95000 304.000
24.96500 321.000
24.98000 308.000
24.99500 329.000
25.01000 364.000
25.02500 419.000
25.04000 437.000
25.05500 470.000
25.07000 490.000
25.08500 584.000
25.10000 684.000
25.11500 730.000
25.13000 827.000
25.14500 966.000
25.16000 1042.000
25.17500 1069.000
25.19000 1075.000
25.20500 996.000
25.22000 943.000
25.23500 896.000
25.25000 749.000
25.26500 613.000
25.28000 562.000
25.29500 464.000
25.31000 484.000
25.32500 451.000
25.34000 393.000
25.35500 353.000
25.37000 322.000
25.38500 378.000
25.40000 357.000
25.41500 355.000
25.43000 335.000
25.44500 335.000
25.46000 338.000
25.47500 325.000
25.49000 333.000
25.50500 333.000
25.52000 324.000
25.53500 314.000
25.55000 303.000
25.56500 324.000
25.58000 342.000
25.59500 313.000
25.61000 323.000
25.62500 326.000
25.64000 325.000
25.65500 332.000
25.67000 319.000
25.68500 310.000
25.70000 302.000
25.71500 291.000
25.73000 308.000
25.74500 309.000
25.76000 313.000
25.77500 319.000
25.79000 307.000
25.80500 284.000
25.82000 293.000
25.83500 308.000
25.85000 310.000
25.86500 280.000
25.88000 305.000
25.89500 294.000
25.91000 292.000
25.92500 291.000
25.94000 280.000
25.95500 292.000
25.97000 313.000
25.98500 296.000
26.00000 284.000
26.01500 314.000
26.03000 274.000
26.04500 299.000
26.06000 307.000
26.07500 306.000
26.09000 308.000
26.10500 321.000
26.12000 334.000
26.13500 319.000
26.15000 312.000
26.16500 298.000
26.18000 275.000
26.19500 297.000
26.21000 323.000
26.22500 316.000
26.24000 316.000
26.25500 304.000
26.27000 307.000
26.28500 303.000
26.30000 317.000
26.31500 300.000
26.33000 323.000
26.34500 326.000
26.36000 301.000
26.37500 334.000
26.39000 345.000
26.40500 338.000
26.42000 317.000
26.43500 320.000
26.45000 325.000
26.46500 313.000
26.48000 327.000
26.49500 316.000
26.51000 324.000
26.52500 335.000
26.54000 340.000
26.55500 314.000
26.57000 329.000
26.58500 330.000
26.60000 343.000
26.61500 346.000
26.63000 311.000
26.64500 325.000
26.66000 334.000
26.67500 313.000
26.69000 322.000
26.70500 357.000
26.72000 333.000
26.73500 332.000
26.75000 324.000
26.76500 335.000
26.78000 342.000
26.79500 363.000
26.81000 361.000
26.82500 354.000
26.84000 390.000
26.85500 339.000
26.87000 355.000
26.88500 357.000
26.90000 357.000
26.91500 372.000
26.93000 344.000
26.94500 355.000
26.96000 356.000
26.97500 332.000
26.99000 347.000
27.00500 348.000
27.02000 375.000
27.03500 363.000
27.05000 369.000
27.06500 359.000
27.08000 376.000
27.09500 373.000
27.11000 393.000
27.12500 337.000
27.14000 357.000
27.15500 357.000
27.17000 365.000
27.18500 367.000
27.20000 377.000
27.21500 394.000
27.23000 357.000
27.24500 337.000
27.26000 370.000
27.27500 371.000
27.29000 362.000
27.30500 365.000
27.32000 361.000
27.33500 399.000
27.35000 380.000
27.36500 384.000
27.38000 391.000
27.39500 388.000
27.41000 397.000
27.42500 421.000
27.44000 424.000
27.45500 371.000
27.47000 376.000
27.48500 420.000
27.50000 407.000
27.51500 474.000
27.53000 466.000
27.54500 450.000
27.56000 434.000
27.57500 435.000
27.59000 438.000
27.60500 439.000
27.62000 452.000
27.63500 488.000
27.65000 481.000
27.66500 554.000
27.68000 537.000
27.69500 558.000
27.71000 586.000
27.72500 632.000
27.74000 684.000
27.75500 720.000
27.77000 761.000
27.78500 807.000
27.80000 884.000
27.81500 990.000
27.83000 1033.000
27.84500 1195.000
27.86000 1332.000
27.87500 1451.000
27.89000 1682.000
27.90500 1820.000
27.92000 2022.000
27.93500 2232.000
27.95000 2470.000
27.96500 2647.000
27.98000 2777.000
27.99500 2720.000
28.01000 2841.000
28.02500 2763.000
28.04000 2525.000
28.05500 2339.000
28.07000 2077.000
28.08500 1845.000
28.10000 1672.000
28.11500 1480.000
28.13000 1254.000
28.14500 1084.000
28.16000 978.000
28.17500 926.000
28.19000 800.000
28.20500 780.000
28.22000 717.000
28.23500 604.000
28.25000 586.000
28.26500 581.000
28.28000 561.000
28.29500 529.000
28.31000 495.000
28.32500 475.000
28.34000 460.000
28.35500 462.000
28.37000 410.000
28.38500 397.000
28.40000 405.000
28.41500 423.000
28.43000 369.000
28.44500 360.000
28.46000 369.000
28.47500 360.000
28.49000 349.000
28.50500 330.000
28.52000 317.000
28.53500 319.000
28.55000 315.000
28.56500 320.000
28.58000 317.000
28.59500 306.000
28.61000 306.000
28.62500 326.000
28.64000 319.000
28.65500 266.000
28.67000 298.000
28.68500 294.000
28.70000 283.000
28.71500 295.000
28.73000 313.000
28.74500 297.000
28.76000 311.000
28.77500 305.000
28.79000 285.000
28.80500 291.000
28.82000 277.000
28.83500 279.000
28.85000 273.000
28.86500 256.000
28.88000 249.000
28.89500 266.000
28.91000 267.000
28.92500 295.000
28.94000 289.000
28.95500 246.000
28.97000 265.000
28.98500 253.000
29.00000 263.000
29.01500 270.000
29.03000 260.000
29.04500 265.000
29.06000 267.000
29.07500 262.000
29.09000 251.000
29.10500 264.000
29.12000 246.000
29.13500 255.000
29.15000 273.000
29.16500 268.000
29.18000 250.000
29.19500 224.000
29.21000 244.000
29.22500 243.000
29.24000 249.000
29.25500 216.000
29.27000 235.000
29.28500 220.000
29.30000 244.000
29.31500 255.000
29.33000 245.000
29.34500 257.000
29.36000 247.000
29.37500 263.000
29.39000 241.000
29.40500 244.000
29.42000 246.000
29.43500 240.000
29.45000 252.000
29.46500 241.000
29.48000 237.000
29.49500 236.000
29.51000 246.000
29.52500 227.000
29.54000 243.000
29.55500 231.000
29.57000 244.000
29.58500 235.000
29.60000 245.000
29.61500 261.000
29.63000 228.000
29.64500 250.000
29.66000 256.000
29.67500 229.000
29.69000 232.000
29.70500 233.000
29.72000 228.000
29.73500 214.000
29.75000 206.000
29.76500 214.000
29.78000 227.000
29.79500 233.000
29.81000 246.000
29.82500 207.000
29.84000 207.000
29.85500 230.000
29.87000 224.000
29.88500 221.000
29.90000 221.000
29.91500 209.000
29.93000 224.000
29.94500 228.000
29.96000 221.000
29.97500 203.000
29.99000 218.000
30.00500 208.000
30.02000 214.000
30.03500 220.000
30.05000 203.000
30.06500 206.000
30.08000 212.000
30.09500 198.000
30.11000 196.000
30.12500 213.000
30.14000 197.000
30.15500 217.000
30.17000 198.000
30.18500 213.000
30.20000 214.000
30.21500 219.000
30.23000 194.000
30.24500 210.000
30.26000 203.000
30.27500 204.000
30.29000 200.000
30.30500 237.000
30.32000 225.000
30.33500 219.000
30.35000 219.000
30.36500 216.000
30.38000 196.000
30.39500 208.000
30.41000 209.000
30.42500 209.000
30.44000 212.000
30.45500 206.000
30.47000 208.000
30.48500 206.000
30.50000 206.000
30.51500 211.000
30.53000 210.000
30.54500 234.000
30.56000 242.000
30.57500 202.000
30.59000 196.000
30.60500 216.000
30.62000 208.000
30.63500 206.000
30.65000 194.000
30.66500 195.000
30.68000 191.000
30.69500 205.000
30.71000 189.000
30.72500 182.000
30.74000 201.000
30.75500 199.000
30.77000 210.000
30.78500 210.000
30.80000 201.000
30.81500 191.000
30.83000 182.000
30.84500 191.000
30.86000 204.000
30.87500 201.000
30.89000 174.000
30.90500 192.000
30.92000 186.000
30.93500 198.000
30.95000 181.000
30.96500 182.000
30.98000 198.000
30.99500 212.000
31.01000 209.000
31.02500 193.000
31.04000 223.000
31.05500 199.000
31.07000 194.000
31.08500 197.000
31.10000 201.000
31.11500 174.000
31.13000 195.000
31.14500 198.000
31.16000 185.000
31.17500 206.000
31.19000 194.000
31.20500 188.000
31.22000 202.000
31.23500 183.000
31.25000 184.000
31.26500 198.000
31.28000 210.000
31.29500 200.000
31.31000 197.000
31.32500 198.000
31.34000 205.000
31.35500 210.000
31.37000 182.000
31.38500 187.000
31.40000 195.000
31.41500 184.000
31.43000 197.000
31.44500 205.000
31.46000 195.000
31.47500 196.000
31.49000 192.000
31.50500 178.000
31.52000 170.000
31.53500 194.000
31.55000 182.000
31.56500 202.000
31.58000 177.000
31.59500 198.000
31.61000 207.000
31.62500 192.000
31.64000 178.000
31.65500 171.000
31.67000 176.000
31.68500 173.000
31.70000 196.000
31.71500 207.000
31.73000 185.000
31.74500 174.000
31.76000 170.000
31.77500 190.000
31.79000 195.000
31.80500 181.000
31.82000 191.000
31.83500 190.000
31.85000 202.000
31.86500 203.000
31.88000 191.000
31.89500 188.000
31.91000 177.000
31.92500 208.000
31.94000 202.000
31.95500 199.000
31.97000 214.000
31.98500 216.000
32.00000 206.000
32.01500 238.000
32.03000 239.000
32.04500 239.000
32.06000 253.000
32.07500 280.000
32.09000 333.000
32.10500 382.000
32.12000 502.000
32.13500 637.000
32.15000 818.000
32.16500 1115.000
32.18000 1509.000
32.19500 1928.000
32.21000 2314.000
32.22500 2669.000
32.24000 2574.000
32.25500 2143.000
32.27000 1552.000
32.28500 1152.000
32.30000 756.000
32.31500 512.000
32.33000 402.000
32.34500 339.000
32.36000 306.000
32.37500 265.000
32.39000 249.000
32.40500 257.000
32.42000 246.000
32.43500 227.000
32.45000 221.000
32.46500 204.000
32.48000 220.000
32.49500 216.000
32.51000 210.000
32.52500 201.000
32.54000 206.000
32.55500 212.000
32.57000 215.000
32.58500 210.000
32.60000 231.000
32.61500 252.000
32.63000 238.000
32.64500 212.000
32.66000 239.000
32.67500 214.000
32.69000 216.000
32.70500 222.000
32.72000 242.000
32.73500 262.000
32.75000 243.000
32.76500 251.000
32.78000 300.000
32.79500 331.000
32.81000 306.000
32.82500 309.000
32.84000 333.000
32.85500 361.000
32.87000 414.000
32.88500 426.000
32.90000 430.000
32.91500 457.000
32.93000 499.000
32.94500 527.000
32.96000 485.000
32.97500 515.000
32.99000 493.000
33.00500 462.000
33.02000 455.000
33.03500 455.000
33.05000 433.000
33.06500 389.000
33.08000 359.000
33.09500 347.000
33.11000 313.000
33.12500 295.000
33.14000 263.000
33.15500 251.000
33.17000 246.000
33.18500 273.000
33.20000 253.000
33.21500 243.000
33.23000 216.000
33.24500 245.000
33.26000 223.000
33.27500 206.000
33.29000 201.000
33.30500 209.000
33.32000 192.000
33.33500 176.000
33.35000 170.000
33.36500 167.000
33.38000 188.000
33.39500 181.000
33.41000 173.000
33.42500 171.000
33.44000 183.000
33.45500 194.000
33.47000 179.000
33.48500 194.000
33.50000 190.000
33.51500 199.000
33.53000 179.000
33.54500 174.000
33.56000 166.000
33.57500 178.000
33.59000 173.000
33.60500 167.000
33.62000 170.000
33.63500 168.000
33.65000 152.000
33.66500 180.000
33.68000 166.000
33.69500 160.000
33.71000 156.000
33.72500 156.000
33.74000 176.000
33.75500 153.000
33.77000 150.000
33.78500 159.000
33.80000 166.000
33.81500 168.000
33.83000 170.000
33.84500 157.000
33.86000 171.000
33.87500 146.000
33.89000 170.000
33.90500 165.000
33.92000 171.000
33.93500 157.000
33.95000 166.000
33.96500 185.000
33.98000 173.000
33.99500 155.000
34.01000 157.000
34.02500 171.000
34.04000 155.000
34.05500 157.000
34.07000 148.000
34.08500 155.000
34.10000 163.000
34.11500 159.000
34.13000 179.000
34.14500 173.000
34.16000 162.000
34.17500 175.000
34.19000 179.000
34.20500 167.000
34.22000 178.000
34.23500 161.000
34.25000 166.000
34.26500 160.000
34.28000 166.000
34.29500 158.000
34.31000 151.000
34.32500 156.000
34.34000 158.000
34.35500 161.000
34.37000 157.000
34.38500 175.000
34.40000 168.000
34.41500 165.000
34.43000 153.000
34.44500 171.000
34.46000 157.000
34.47500 170.000
34.49000 172.000
34.50500 176.000
34.52000 171.000
34.53500 177.000
34.55000 169.000
34.56500 184.000
34.58000 177.000
34.59500 196.000
34.61000 192.000
34.62500 203.000
34.64000 178.000
34.65500 219.000
34.67000 198.000
34.68500 196.000
34.70000 212.000
34.71500 196.000
34.73000 204.000
34.74500 203.000
34.76000 189.000
34.77500 203.000
34.79000 201.000
34.80500 204.000
34.82000 195.000
34.83500 197.000
34.85000 196.000
34.86500 197.000
34.88000 185.000
34.89500 200.000
34.91000 203.000
34.92500 209.000
34.94000 215.000
34.95500 228.000
34.97000 241.000
34.98500 230.000
35.00000 259.000
35.01500 250.000
35.03000 260.000
35.04500 287.000
35.06000 287.000
35.07500 283.000
35.09000 343.000
35.10500 322.000
35.12000 366.000
35.13500 427.000
35.15000 404.000
35.16500 437.000
35.18000 478.000
35.19500 461.000
35.21000 499.000
35.22500 434.000
35.24000 462.000
35.25500 462.000
35.27000 465.000
35.28500 393.000
35.30000 368.000
35.31500 380.000
35.33000 338.000
35.34500 293.000
35.36000 312.000
35.37500 303.000
35.39000 284.000
35.40500 255.000
35.42000 251.000
35.43500 228.000
35.45000 211.000
35.46500 235.000
35.48000 214.000
35.49500 184.000
35.51000 198.000
35.52500 202.000
35.54000 190.000
35.55500 168.000
35.57000 163.000
35.58500 181.000
35.60000 189.000
35.61500 173.000
35.63000 180.000
35.64500 160.000
35.66000 158.000
35.67500 160.000
35.69000 177.000
35.70500 175.000
35.72000 165.000
35.73500 155.000
35.75000 146.000
35.76500 139.000
35.78000 148.000
35.79500 154.000
35.81000 137.000
35.82500 154.000
35.84000 163.000
35.85500 137.000
35.87000 135.000
35.88500 150.000
35.90000 160.000
35.91500 158.000
35.93000 143.000
35.94500 145.000
35.96000 139.000
35.97500 153.000
35.99000 157.000
36.00500 128.000
36.02000 132.000
36.03500 138.000
36.05000 135.000
36.06500 136.000
36.08000 140.000
36.09500 138.000
36.11000 129.000
36.12500 135.000
36.14000 123.000
36.15500 141.000
36.17000 149.000
36.18500 137.000
36.20000 152.000
36.21500 152.000
36.23000 142.000
36.24500 148.000
36.26000 132.000
36.27500 121.000
36.29000 142.000
36.30500 135.000
36.32000 133.000
36.33500 147.000
36.35000 139.000
36.36500 138.000
36.38000 138.000
36.39500 150.000
36.41000 140.000
36.42500 129.000
36.44000 121.000
36.45500 118.000
36.47000 149.000
36.48500 142.000
36.50000 145.000
36.51500 140.000
36.53000 124.000
36.54500 135.000
36.56000 154.000
36.57500 192.000
36.59000 188.000
36.60500 224.000
36.62000 252.000
36.63500 285.000
36.65000 351.000
36.66500 386.000
36.68000 408.000
36.69500 434.000
36.71000 411.000
36.72500 350.000
36.74000 286.000
36.75500 238.000
36.77000 194.000
36.78500 172.000
36.80000 168.000
36.81500 129.000
36.83000 132.000
36.84500 148.000
36.86000 129.000
36.87500 133.000
36.89000 121.000
36.90500 118.000
36.92000 129.000
36.93500 150.000
36.95000 131.000
36.96500 132.000
36.98000 138.000
36.99500 130.000
37.01000 121.000
37.02500 143.000
37.04000 121.000
37.05500 120.000
37.07000 120.000
37.08500 127.000
37.10000 128.000
37.11500 133.000
37.13000 142.000
37.14500 135.000
37.16000 127.000
37.17500 127.000
37.19000 130.000
37.20500 123.000
37.22000 124.000
37.23500 139.000
37.25000 147.000
37.26500 138.000
37.28000 135.000
37.29500 128.000
37.31000 123.000
37.32500 123.000
37.34000 118.000
37.35500 104.000
37.37000 125.000
37.38500 124.000
37.40000 129.000
37.41500 123.000
37.43000 120.000
37.44500 112.000
37.46000 128.000
37.47500 123.000
37.49000 151.000
37.50500 148.000
37.52000 134.000
37.53500 121.000
37.55000 123.000
37.56500 132.000
37.58000 119.000
37.59500 135.000
37.61000 138.000
37.62500 143.000
37.64000 125.000
37.65500 128.000
37.67000 120.000
37.68500 128.000
37.70000 122.000
37.71500 127.000
37.73000 107.000
37.74500 123.000
37.76000 124.000
37.77500 115.000
37.79000 128.000
37.80500 137.000
37.82000 125.000
37.83500 123.000
37.85000 124.000
37.86500 122.000
37.88000 131.000
37.89500 119.000
37.91000 123.000
37.92500 113.000
37.94000 118.000
37.95500 125.000
37.97000 124.000
37.98500 120.000
38.00000 129.000
38.01500 132.000
38.03000 127.000
38.04500 98.000
38.06000 108.000
38.07500 117.000
38.09000 120.000
38.10500 119.000
38.12000 115.000
38.13500 127.000
38.15000 117.000
38.16500 122.000
38.18000 122.000
38.19500 127.000
38.21000 139.000
38.22500 145.000
38.24000 132.000
38.25500 121.000
38.27000 111.000
38.28500 114.000
38.30000 118.000
38.31500 127.000
38.33000 112.000
38.34500 136.000
38.36000 104.000
38.37500 121.000
38.39000 117.000
38.40500 123.000
38.42000 128.000
38.43500 133.000
38.45000 110.000
38.46500 117.000
38.48000 117.000
38.49500 116.000
38.51000 120.000
38.52500 111.000
38.54000 113.000
38.55500 142.000
38.57000 117.000
38.58500 106.000
38.60000 119.000
38.61500 124.000
38.63000 123.000
38.64500 124.000
38.66000 117.000
38.67500 131.000
38.69000 114.000
38.70500 119.000
38.72000 137.000
38.73500 128.000
38.75000 110.000
38.76500 123.000
38.78000 117.000
38.79500 124.000
38.81000 124.000
38.82500 117.000
38.84000 117.000
38.85500 131.000
38.87000 133.000
38.88500 121.000
38.90000 115.000
38.91500 117.000
38.93000 123.000
38.94500 108.000
38.96000 113.000
38.97500 113.000
38.99000 113.000
39.00500 119.000
39.02000 109.000
39.03500 114.000
39.05000 115.000
39.06500 116.000
39.08000 122.000
39.09500 134.000
39.11000 113.000
39.12500 109.000
39.14000 98.000
39.15500 114.000
39.17000 115.000
39.18500 122.000
39.20000 126.000
39.21500 126.000
39.23000 139.000
39.24500 137.000
39.26000 109.000
39.27500 115.000
39.29000 116.000
39.30500 124.000
39.32000 93.000
39.33500 127.000
39.35000 126.000
39.36500 135.000
39.38000 117.000
39.39500 106.000
39.41000 112.000
39.42500 128.000
39.44000 124.000
39.45500 118.000
39.47000 114.000
39.48500 114.000
39.50000 98.000
39.51500 114.000
39.53000 129.000
39.54500 134.000
39.56000 115.000
39.57500 109.000
39.59000 113.000
39.60500 116.000
39.62000 120.000
39.63500 108.000
39.65000 113.000
39.66500 131.000
39.68000 117.000
39.69500 123.000
39.71000 119.000
39.72500 132.000
39.74000 120.000
39.75500 116.000
39.77000 114.000
39.78500 119.000
39.80000 123.000
39.81500 111.000
39.83000 124.000
39.84500 113.000
39.86000 107.000
39.87500 127.000
39.89000 140.000
39.90500 120.000
39.92000 127.000
39.93500 128.000
39.95000 122.000
39.96500 120.000
39.98000 120.000
39.99500 110.000
40.01000 126.000
40.02500 126.000
40.04000 115.000
40.05500 99.000
40.07000 115.000
40.08500 128.000
40.10000 116.000
40.11500 133.000
40.13000 132.000
40.14500 124.000
40.16000 105.000
40.17500 117.000
40.19000 126.000
40.20500 118.000
40.22000 129.000
40.23500 127.000
40.25000 121.000
40.26500 128.000
40.28000 128.000
40.29500 113.000
40.31000 126.000
40.32500 133.000
40.34000 137.000
40.35500 139.000
40.37000 112.000
40.38500 124.000
40.40000 116.000
40.41500 107.000
40.43000 99.000
40.44500 121.000
40.46000 118.000
40.47500 131.000
40.49000 120.000
40.50500 114.000
40.52000 125.000
40.53500 120.000
40.55000 112.000
40.56500 118.000
40.58000 130.000
40.59500 123.000
40.61000 120.000
40.62500 124.000
40.64000 124.000
40.65500 126.000
40.67000 125.000
40.68500 124.000
40.70000 124.000
40.71500 122.000
40.73000 131.000
40.74500 122.000
40.76000 117.000
40.77500 138.000
40.79000 132.000
40.80500 131.000
40.82000 130.000
40.83500 131.000
40.85000 132.000
40.86500 124.000
40.88000 139.000
40.89500 153.000
40.91000 139.000
40.92500 126.000
40.94000 141.000
40.95500 161.000
40.97000 161.000
40.98500 156.000
41.00000 147.000
41.01500 164.000
41.03000 156.000
41.04500 163.000
41.06000 159.000
41.07500 159.000
41.09000 181.000
41.10500 204.000
41.12000 198.000
41.13500 221.000
41.15000 214.000
41.16500 216.000
41.18000 241.000
41.19500 234.000
41.21000 261.000
41.22500 271.000
41.24000 278.000
41.25500 305.000
41.27000 279.000
41.28500 285.000
41.30000 324.000
41.31500 343.000
41.33000 331.000
41.34500 344.000
41.36000 306.000
41.37500 307.000
41.39000 311.000
41.40500 270.000
41.42000 266.000
41.43500 241.000
41.45000 215.000
41.46500 244.000
41.48000 210.000
41.49500 207.000
41.51000 220.000
41.52500 189.000
41.54000 195.000
41.55500 195.000
41.57000 158.000
41.58500 178.000
41.60000 169.000
41.61500 152.000
41.63000 157.000
41.64500 141.000
41.66000 146.000
41.67500 157.000
41.69000 132.000
41.70500 150.000
41.72000 141.000
41.73500 139.000
41.75000 129.000
41.76500 124.000
41.78000 136.000
41.79500 132.000
41.81000 137.000
41.82500 119.000
41.84000 132.000
41.85500 127.000
41.87000 122.000
41.88500 133.000
41.90000 135.000
41.91500 128.000
41.93000 128.000
41.94500 155.000
41.96000 128.000
41.97500 125.000
41.99000 145.000
42.00500 114.000
42.02000 110.000
42.03500 130.000
42.05000 135.000
42.06500 120.000
42.08000 108.000
42.09500 127.000
42.11000 125.000
42.12500 122.000
42.14000 121.000
42.15500 120.000
42.17000 95.000
42.18500 110.000
42.20000 123.000
42.21500 120.000
42.23000 128.000
42.24500 126.000
42.26000 112.000
42.27500 130.000
42.29000 125.000
42.30500 117.000
42.32000 126.000
42.33500 107.000
42.35000 110.000
42.36500 121.000
42.38000 112.000
42.39500 123.000
42.41000 124.000
42.42500 107.000
42.44000 112.000
42.45500 117.000
42.47000 118.000
42.48500 114.000
42.50000 129.000
42.51500 116.000
42.53000 108.000
42.54500 116.000
42.56000 115.000
42.57500 119.000
42.59000 115.000
42.60500 119.000
42.62000 139.000
42.63500 135.000
42.65000 125.000
42.66500 116.000
42.68000 107.000
42.69500 119.000
42.71000 126.000
42.72500 130.000
42.74000 124.000
42.75500 139.000
42.77000 116.000
42.78500 117.000
42.80000 121.000
42.81500 119.000
42.83000 129.000
42.84500 124.000
42.86000 128.000
42.87500 110.000
42.89000 114.000
42.90500 127.000
42.92000 133.000
42.93500 112.000
42.95000 117.000
42.96500 116.000
42.98000 105.000
42.99500 120.000
43.01000 118.000
43.02500 128.000
43.04000 129.000
43.05500 126.000
43.07000 123.000
43.08500 117.000
43.10000 123.000
43.11500 120.000
43.13000 106.000
43.14500 114.000
43.16000 125.000
43.17500 130.000
43.19000 131.000
43.20500 114.000
43.22000 113.000
43.23500 117.000
43.25000 117.000
43.26500 128.000
43.28000 114.000
43.29500 111.000
43.31000 121.000
43.32500 119.000
43.34000 118.000
43.35500 111.000
43.37000 114.000
43.38500 98.000
43.40000 125.000
43.41500 128.000
43.43000 125.000
43.44500 134.000
43.46000 120.000
43.47500 118.000
43.49000 115.000
43.50500 112.000
43.52000 102.000
43.53500 118.000
43.55000 132.000
43.56500 117.000
43.58000 124.000
43.59500 108.000
43.61000 126.000
43.62500 121.000
43.64000 114.000
43.65500 120.000
43.67000 124.000
43.68500 114.000
43.70000 130.000
43.71500 124.000
43.73000 133.000
43.74500 134.000
43.76000 128.000
43.77500 120.000
43.79000 110.000
43.80500 112.000
43.82000 126.000
43.83500 126.000
43.85000 129.000
43.86500 140.000
43.88000 132.000
43.89500 121.000
43.91000 133.000
43.92500 137.000
43.94000 123.000
43.95500 139.000
43.97000 130.000
43.98500 120.000
44.00000 131.000
44.01500 144.000
44.03000 131.000
44.04500 118.000
44.06000 121.000
44.07500 128.000
44.09000 123.000
44.10500 135.000
44.12000 124.000
44.13500 119.000
44.15000 133.000
44.16500 119.000
44.18000 135.000
44.19500 160.000
44.21000 139.000
44.22500 127.000
44.24000 155.000
44.25500 132.000
44.27000 136.000
44.28500 169.000
44.30000 189.000
44.31500 195.000
44.33000 224.000
44.34500 250.000
44.36000 312.000
44.37500 363.000
44.39000 461.000
44.40500 548.000
44.42000 637.000
44.43500 680.000
44.45000 734.000
44.46500 700.000
44.48000 640.000
44.49500 575.000
44.51000 450.000
44.52500 370.000
44.54000 332.000
44.55500 304.000
44.57000 267.000
44.58500 259.000
44.60000 269.000
44.61500 255.000
44.63000 244.000
44.64500 233.000
44.66000 225.000
44.67500 205.000
44.69000 224.000
44.70500 211.000
44.72000 202.000
44.73500 214.000
44.75000 209.000
44.76500 195.000
44.78000 183.000
44.79500 200.000
44.81000 205.000
44.82500 230.000
44.84000 224.000
44.85500 220.000
44.87000 254.000
44.88500 229.000
44.90000 249.000
44.91500 259.000
44.93000 262.000
44.94500 279.000
44.96000 273.000
44.97500 286.000
44.99000 283.000
45.00500 312.000
45.02000 286.000
45.03500 302.000
45.05000 287.000
45.06500 285.000
45.08000 279.000
45.09500 261.000
45.11000 258.000
45.12500 244.000
45.14000 221.000
45.15500 204.000
45.17000 206.000
45.18500 180.000
45.20000 206.000
45.21500 202.000
45.23000 164.000
45.24500 173.000
45.26000 179.000
45.27500 164.000
45.29000 153.000
45.30500 141.000
45.32000 141.000
45.33500 137.000
45.35000 163.000
45.36500 151.000
45.38000 144.000
45.39500 128.000
45.41000 139.000
45.42500 121.000
45.44000 126.000
45.45500 129.000
45.47000 134.000
45.48500 117.000
45.50000 127.000
45.51500 127.000
45.53000 126.000
45.54500 116.000
45.56000 109.000
45.57500 121.000
45.59000 126.000
45.60500 128.000
45.62000 109.000
45.63500 128.000
45.65000 140.000
45.66500 117.000
45.68000 118.000
45.69500 112.000
45.71000 126.000
45.72500 128.000
45.74000 119.000
45.75500 101.000
45.77000 113.000
45.78500 101.000
45.80000 108.000
45.81500 115.000
45.83000 118.000
45.84500 112.000
45.86000 119.000
45.87500 113.000
45.89000 130.000
45.90500 128.000
45.92000 118.000
45.93500 124.000
45.95000 113.000
45.96500 103.000
45.98000 107.000
45.99500 108.000
46.01000 110.000
46.02500 103.000
46.04000 128.000
46.05500 124.000
46.07000 122.000
46.08500 127.000
46.10000 140.000
46.11500 115.000
46.13000 108.000
46.14500 146.000
46.16000 130.000
46.17500 132.000
46.19000 138.000
46.20500 141.000
46.22000 135.000
46.23500 152.000
46.25000 173.000
46.26500 160.000
46.28000 154.000
46.29500 163.000
46.31000 168.000
46.32500 185.000
46.34000 209.000
46.35500 197.000
46.37000 198.000
46.38500 183.000
46.40000 169.000
46.41500 187.000
46.43000 185.000
46.44500 157.000
46.46000 136.000
46.47500 165.000
46.49000 153.000
46.50500 138.000
46.52000 132.000
46.53500 145.000
46.55000 140.000
46.56500 127.000
46.58000 139.000
46.59500 129.000
46.61000 116.000
46.62500 107.000
46.64000 117.000
46.65500 118.000
46.67000 114.000
46.68500 115.000
46.70000 103.000
46.71500 117.000
46.73000 118.000
46.74500 114.000
46.76000 124.000
46.77500 123.000
46.79000 127.000
46.80500 117.000
46.82000 109.000
46.83500 112.000
46.85000 112.000
46.86500 97.000
46.88000 117.000
46.89500 101.000
46.91000 114.000
46.92500 111.000
46.94000 103.000
46.95500 111.000
46.97000 120.000
46.98500 110.000
47.00000 96.000
47.01500 99.000
47.03000 108.000
47.04500 110.000
47.06000 114.000
47.07500 100.000
47.09000 121.000
47.10500 97.000
47.12000 90.000
47.13500 109.000
47.15000 124.000
47.16500 113.000
47.18000 102.000
47.19500 108.000
47.21000 125.000
47.22500 107.000
47.24000 102.000
47.25500 104.000
47.27000 102.000
47.28500 96.000
47.30000 102.000
47.31500 112.000
47.33000 108.000
47.34500 95.000
47.36000 123.000
47.37500 102.000
47.39000 102.000
47.40500 114.000
47.42000 104.000
47.43500 100.000
47.45000 104.000
47.46500 121.000
47.48000 109.000
47.49500 94.000
47.51000 107.000
47.52500 95.000
47.54000 83.000
47.55500 110.000
47.57000 113.000
47.58500 118.000
47.60000 101.000
47.61500 100.000
47.63000 109.000
47.64500 112.000
47.66000 93.000
47.67500 113.000
47.69000 104.000
47.70500 119.000
47.72000 119.000
47.73500 108.000
47.75000 103.000
47.76500 130.000
47.78000 118.000
47.79500 108.000
47.81000 106.000
47.82500 115.000
47.84000 103.000
47.85500 97.000
47.87000 112.000
47.88500 104.000
47.90000 111.000
47.91500 101.000
47.93000 112.000
47.94500 107.000
47.96000 103.000
47.97500 95.000
47.99000 101.000
48.00500 109.000
48.02000 98.000
48.03500 96.000
48.05000 107.000
48.06500 99.000
48.08000 116.000
48.09500 116.000
48.11000 108.000
48.12500 101.000
48.14000 106.000
48.15500 100.000
48.17000 90.000
48.18500 97.000
48.20000 94.000
48.21500 119.000
48.23000 98.000
48.24500 95.000
48.26000 110.000
48.27500 112.000
48.29000 107.000
48.30500 111.000
48.32000 105.000
48.33500 93.000
48.35000 112.000
48.36500 104.000
48.38000 109.000
48.39500 97.000
48.41000 112.000
48.42500 115.000
48.44000 108.000
48.45500 105.000
48.47000 98.000
48.48500 111.000
48.50000 101.000
48.51500 118.000
48.53000 124.000
48.54500 104.000
48.56000 102.000
48.57500 105.000
48.59000 118.000
48.60500 102.000
48.62000 109.000
48.63500 102.000
48.65000 98.000
48.66500 91.000
48.68000 99.000
48.69500 111.000
48.71000 109.000
48.72500 123.000
48.74000 95.000
48.75500 98.000
48.77000 99.000
48.78500 95.000
48.80000 97.000
48.81500 100.000
48.83000 106.000
48.84500 107.000
48.86000 102.000
48.87500 89.000
48.89000 97.000
48.90500 100.000
48.92000 95.000
48.93500 89.000
48.95000 96.000
48.96500 93.000
48.98000 101.000
48.99500 115.000
49.01000 123.000
49.02500 119.000
49.04000 122.000
49.05500 106.000
49.07000 106.000
49.08500 103.000
49.10000 97.000
49.11500 111.000
49.13000 108.000
49.14500 113.000
49.16000 113.000
49.17500 114.000
49.19000 93.000
49.20500 108.000
49.22000 110.000
49.23500 113.000
49.25000 109.000
49.26500 119.000
49.28000 104.000
49.29500 127.000
49.31000 131.000
49.32500 119.000
49.34000 113.000
49.35500 118.000
49.37000 119.000
49.38500 114.000
49.40000 112.000
49.41500 103.000
49.43000 123.000
49.44500 125.000
49.46000 117.000
49.47500 136.000
49.49000 154.000
49.50500 158.000
49.52000 168.000
49.53500 198.000
49.55000 236.000
49.56500 249.000
49.58000 262.000
49.59500 291.000
49.61000 315.000
49.62500 303.000
49.64000 278.000
49.65500 263.000
49.67000 244.000
49.68500 230.000
49.70000 212.000
49.71500 208.000
49.73000 197.000
49.74500 185.000
49.76000 180.000
49.77500 174.000
49.79000 174.000
49.80500 193.000
49.82000 205.000
49.83500 185.000
49.85000 209.000
49.86500 214.000
49.88000 218.000
49.89500 238.000
49.91000 258.000
49.92500 255.000
49.94000 280.000
49.95500 272.000
49.97000 284.000
49.98500 284.000
50.00000 325.000
50.01500 333.000
50.03000 377.000
50.04500 391.000
50.06000 404.000
50.07500 420.000
50.09000 412.000
50.10500 446.000
50.12000 456.000
50.13500 482.000
50.15000 457.000
50.16500 438.000
50.18000 442.000
50.19500 406.000
50.21000 405.000
50.22500 374.000
50.24000 339.000
50.25500 338.000
50.27000 344.000
50.28500 325.000
50.30000 274.000
50.31500 259.000
50.33000 250.000
50.34500 240.000
50.36000 229.000
50.37500 213.000
50.39000 217.000
50.40500 210.000
50.42000 182.000
50.43500 169.000
50.45000 172.000
50.46500 167.000
50.48000 175.000
50.49500 163.000
50.51000 170.000
50.52500 168.000
50.54000 153.000
50.55500 154.000
50.57000 164.000
50.58500 131.000
50.60000 158.000
50.61500 139.000
50.63000 137.000
50.64500 137.000
50.66000 128.000
50.67500 138.000
50.69000 129.000
50.70500 127.000
50.72000 132.000
50.73500 125.000
50.75000 146.000
50.76500 120.000
50.78000 117.000
50.79500 140.000
50.81000 132.000
50.82500 104.000
50.84000 126.000
50.85500 134.000
50.87000 132.000
50.88500 120.000
50.90000 122.000
50.91500 104.000
50.93000 121.000
50.94500 132.000
50.96000 119.000
50.97500 115.000
50.99000 124.000
51.00500 97.000
51.02000 126.000
51.03500 128.000
51.05000 131.000
51.06500 128.000
51.08000 114.000
51.09500 117.000
51.11000 125.000
51.12500 119.000
51.14000 115.000
51.15500 117.000
51.17000 121.000
51.18500 131.000
51.20000 132.000
51.21500 127.000
51.23000 123.000
51.24500 116.000
51.26000 129.000
51.27500 133.000
51.29000 128.000
51.30500 145.000
51.32000 132.000
51.33500 129.000
51.35000 159.000
51.36500 150.000
51.38000 149.000
51.39500 151.000
51.41000 152.000
51.42500 157.000
51.44000 152.000
51.45500 180.000
51.47000 169.000
51.48500 189.000
51.50000 193.000
51.51500 207.000
51.53000 218.000
51.54500 239.000
51.56000 237.000
51.57500 250.000
51.59000 280.000
51.60500 276.000
51.62000 280.000
51.63500 303.000
51.65000 307.000
51.66500 353.000
51.68000 342.000
51.69500 371.000
51.71000 376.000
51.72500 362.000
51.74000 369.000
51.75500 343.000
51.77000 320.000
51.78500 295.000
51.80000 277.000
51.81500 266.000
51.83000 257.000
51.84500 243.000
51.86000 245.000
51.87500 229.000
51.89000 213.000
51.90500 195.000
51.92000 203.000
51.93500 182.000
51.95000 195.000
51.96500 174.000
51.98000 165.000
51.99500 137.000
52.01000 130.000
52.02500 147.000
52.04000 143.000
52.05500 133.000
52.07000 134.000
52.08500 144.000
52.10000 141.000
52.11500 127.000
52.13000 143.000
52.14500 155.000
52.16000 131.000
52.17500 127.000
52.19000 131.000
52.20500 125.000
52.22000 128.000
52.23500 135.000
52.25000 116.000
52.26500 121.000
52.28000 118.000
52.29500 114.000
52.31000 117.000
52.32500 124.000
52.34000 118.000
52.35500 116.000
52.37000 107.000
52.38500 108.000
52.40000 112.000
52.41500 110.000
52.43000 128.000
52.44500 116.000
52.46000 109.000
52.47500 105.000
52.49000 120.000
52.50500 115.000
52.52000 116.000
52.53500 107.000
52.55000 116.000
52.56500 114.000
52.58000 103.000
52.59500 112.000
52.61000 111.000
52.62500 104.000
52.64000 119.000
52.65500 118.000
52.67000 121.000
52.68500 105.000
52.70000 109.000
52.71500 102.000
52.73000 97.000
52.74500 113.000
52.76000 113.000
52.77500 108.000
52.79000 99.000
52.80500 108.000
52.82000 121.000
52.83500 119.000
52.85000 113.000
52.86500 120.000
52.88000 106.000
52.89500 108.000
52.91000 109.000
52.92500 101.000
52.94000 115.000
52.95500 106.000
52.97000 120.000
52.98500 110.000
53.00000 97.000
53.01500 111.000
53.03000 116.000
53.04500 130.000
53.06000 113.000
53.07500 100.000
53.09000 95.000
53.10500 111.000
53.12000 115.000
53.13500 112.000
53.15000 112.000
53.16500 112.000
53.18000 127.000
53.19500 120.000
53.21000 121.000
53.22500 116.000
53.24000 133.000
53.25500 121.000
53.27000 118.000
53.28500 122.000
53.30000 116.000
53.31500 122.000
53.33000 128.000
53.34500 115.000
53.36000 109.000
53.37500 126.000
53.39000 122.000
53.40500 122.000
53.42000 119.000
53.43500 109.000
53.45000 118.000
53.46500 124.000
53.48000 109.000
53.49500 109.000
53.51000 96.000
53.52500 101.000
53.54000 97.000
53.55500 108.000
53.57000 109.000
53.58500 97.000
53.60000 112.000
53.61500 111.000
53.63000 114.000
53.64500 101.000
53.66000 104.000
53.67500 108.000
53.69000 101.000
53.70500 120.000
53.72000 122.000
53.73500 113.000
53.75000 104.000
53.76500 100.000
53.78000 106.000
53.79500 107.000
53.81000 99.000
53.82500 110.000
53.84000 107.000
53.85500 92.000
53.87000 98.000
53.88500 93.000
53.90000 103.000
53.91500 87.000
53.93000 102.000
53.94500 103.000
53.96000 99.000
53.97500 89.000
53.99000 93.000
54.00500 109.000
54.02000 106.000
54.03500 96.000
54.05000 97.000
54.06500 93.000
54.08000 110.000
54.09500 106.000
54.11000 92.000
54.12500 104.000
54.14000 103.000
54.15500 91.000
54.17000 111.000
54.18500 95.000
54.20000 97.000
54.21500 118.000
54.23000 135.000
54.24500 143.000
54.26000 144.000
54.27500 162.000
54.29000 167.000
54.30500 194.000
54.32000 249.000
54.33500 280.000
54.35000 325.000
54.36500 368.000
54.38000 387.000
54.39500 446.000
54.41000 455.000
54.42500 458.000
54.44000 463.000
54.45500 422.000
54.47000 392.000
54.48500 338.000
54.50000 265.000
54.51500 199.000
54.53000 173.000
54.54500 156.000
54.56000 145.000
54.57500 124.000
54.59000 133.000
54.60500 120.000
54.62000 127.000
54.63500 127.000
54.65000 113.000
54.66500 104.000
54.68000 108.000
54.69500 114.000
54.71000 114.000
54.72500 107.000
54.74000 111.000
54.75500 116.000
54.77000 115.000
54.78500 110.000
54.80000 111.000
54.81500 121.000
54.83000 116.000
54.84500 112.000
54.86000 111.000
54.87500 104.000
54.89000 107.000
54.90500 108.000
54.92000 105.000
54.93500 119.000
54.95000 113.000
54.96500 100.000
54.98000 114.000
54.99500 124.000
55.01000 106.000
55.02500 91.000
55.04000 100.000
55.05500 79.000
55.07000 96.000
55.08500 100.000
55.10000 105.000
55.11500 104.000
55.13000 103.000
55.14500 95.000
55.16000 106.000
55.17500 122.000
55.19000 95.000
55.20500 111.000
55.22000 93.000
55.23500 108.000
55.25000 107.000
55.26500 108.000
55.28000 102.000
55.29500 105.000
55.31000 101.000
55.32500 124.000
55.34000 122.000
55.35500 103.000
55.37000 102.000
55.38500 107.000
55.40000 96.000
55.41500 91.000
55.43000 89.000
55.44500 98.000
55.46000 97.000
55.47500 109.000
55.49000 108.000
55.50500 95.000
55.52000 92.000
55.53500 102.000
55.55000 111.000
55.56500 92.000
55.58000 113.000
55.59500 112.000
55.61000 104.000
55.62500 102.000
55.64000 115.000
55.65500 100.000
55.67000 104.000
55.68500 118.000
55.70000 99.000
55.71500 105.000
55.73000 120.000
55.74500 104.000
55.76000 115.000
55.77500 136.000
55.79000 113.000
55.80500 116.000
55.82000 121.000
55.83500 104.000
55.85000 103.000
55.86500 99.000
55.88000 119.000
55.89500 104.000
55.91000 111.000
55.92500 116.000
55.94000 120.000
55.95500 112.000
55.97000 122.000
55.98500 118.000
56.00000 130.000
56.01500 128.000
56.03000 124.000
56.04500 137.000
56.06000 128.000
56.07500 121.000
56.09000 151.000
56.10500 147.000
56.12000 149.000
56.13500 133.000
56.15000 130.000
56.16500 146.000
56.18000 167.000
56.19500 141.000
56.21000 153.000
56.22500 147.000
56.24000 155.000
56.25500 155.000
56.27000 181.000
56.28500 167.000
56.30000 186.000
56.31500 198.000
56.33000 187.000
56.34500 175.000
56.36000 187.000
56.37500 187.000
56.39000 188.000
56.40500 193.000
56.42000 187.000
56.43500 186.000
56.45000 184.000
56.46500 173.000
56.48000 185.000
56.49500 185.000
56.51000 190.000
56.52500 167.000
56.54000 161.000
56.55500 157.000
56.57000 157.000
56.58500 159.000
56.60000 171.000
56.61500 129.000
56.63000 147.000
56.64500 136.000
56.66000 139.000
56.67500 136.000
56.69000 128.000
56.70500 112.000
56.72000 121.000
56.73500 112.000
56.75000 122.000
56.76500 143.000
56.78000 129.000
56.79500 106.000
56.81000 115.000
56.82500 128.000
56.84000 107.000
56.85500 106.000
56.87000 109.000
56.88500 120.000
56.90000 117.000
56.91500 119.000
56.93000 120.000
56.94500 110.000
56.96000 92.000
56.97500 107.000
56.99000 117.000
57.00500 99.000
57.02000 107.000
57.03500 109.000
57.05000 119.000
57.06500 116.000
57.08000 114.000
57.09500 111.000
57.11000 102.000
57.12500 123.000
57.14000 115.000
57.15500 132.000
57.17000 131.000
57.18500 96.000
57.20000 101.000
57.21500 101.000
57.23000 108.000
57.24500 108.000
57.26000 115.000
57.27500 113.000
57.29000 118.000
57.30500 121.000
57.32000 130.000
57.33500 138.000
57.35000 142.000
57.36500 139.000
57.38000 155.000
57.39500 164.000
57.41000 174.000
57.42500 174.000
57.44000 191.000
57.45500 196.000
57.47000 211.000
57.48500 204.000
57.50000 201.000
57.51500 176.000
57.53000 169.000
57.54500 154.000
57.56000 152.000
57.57500 143.000
57.59000 132.000
57.60500 117.000
57.62000 125.000
57.63500 144.000
57.65000 142.000
57.66500 125.000
57.68000 118.000
57.69500 134.000
57.71000 134.000
57.72500 138.000
57.74000 145.000
57.75500 140.000
57.77000 137.000
57.78500 138.000
57.80000 137.000
57.81500 158.000
57.83000 143.000
57.84500 134.000
57.86000 139.000
57.87500 143.000
57.89000 140.000
57.90500 131.000
57.92000 147.000
57.93500 147.000
57.95000 132.000
57.96500 138.000
57.98000 136.000
57.99500 133.000
58.01000 136.000
58.02500 133.000
58.04000 125.000
58.05500 107.000
58.07000 131.000
58.08500 115.000
58.10000 94.000
58.11500 123.000
58.13000 124.000
58.14500 114.000
58.16000 123.000
58.17500 120.000
58.19000 123.000
58.20500 117.000
58.22000 111.000
58.23500 119.000
58.25000 115.000
58.26500 135.000
58.28000 117.000
58.29500 107.000
58.31000 108.000
58.32500 104.000
58.34000 113.000
58.35500 116.000
58.37000 104.000
58.38500 123.000
58.40000 112.000
58.41500 107.000
58.43000 127.000
58.44500 104.000
58.46000 113.000
58.47500 97.000
58.49000 96.000
58.50500 105.000
58.52000 97.000
58.53500 95.000
58.55000 108.000
58.56500 92.000
58.58000 91.000
58.59500 102.000
58.61000 102.000
58.62500 106.000
58.64000 96.000
58.65500 83.000
58.67000 98.000
58.68500 103.000
58.70000 90.000
58.71500 95.000
58.73000 96.000
58.74500 99.000
58.76000 103.000
58.77500 110.000
58.79000 110.000
58.80500 107.000
58.82000 108.000
58.83500 100.000
58.85000 103.000
58.86500 110.000
58.88000 98.000
58.89500 114.000
58.91000 100.000
58.92500 99.000
58.94000 107.000
58.95500 114.000
58.97000 97.000
58.98500 104.000
59.00000 106.000
59.01500 105.000
59.03000 118.000
59.04500 99.000
59.06000 97.000
59.07500 113.000
59.09000 112.000
59.10500 99.000
59.12000 100.000
59.13500 108.000
59.15000 108.000
59.16500 107.000
59.18000 117.000
59.19500 96.000
59.21000 84.000
59.22500 87.000
59.24000 92.000
59.25500 108.000
59.27000 106.000
59.28500 107.000
59.30000 98.000
59.31500 96.000
59.33000 89.000
59.34500 92.000
59.36000 94.000
59.37500 89.000
59.39000 85.000
59.40500 96.000
59.42000 82.000
59.43500 95.000
59.45000 105.000
59.46500 91.000
59.48000 107.000
59.49500 112.000
59.51000 90.000
59.52500 87.000
59.54000 99.000
59.55500 88.000
59.57000 93.000
59.58500 89.000
59.60000 90.000
59.61500 87.000
59.63000 88.000
59.64500 90.000
59.66000 83.000
59.67500 91.000
59.69000 74.000
59.70500 82.000
59.72000 86.000
59.73500 101.000
59.75000 103.000
59.76500 103.000
59.78000 96.000
59.79500 88.000
59.81000 102.000
59.82500 104.000
59.84000 108.000
59.85500 108.000
59.87000 89.000
59.88500 94.000
59.90000 105.000
59.91500 87.000
59.93000 92.000
59.94500 101.000
59.96000 101.000
59.97500 99.000
59.99000 92.000
60.00500 93.000
60.02000 112.000
60.03500 110.000
60.05000 96.000
60.06500 110.000
60.08000 117.000
60.09500 110.000
60.11000 111.000
60.12500 95.000
60.14000 92.000
60.15500 101.000
60.17000 104.000
60.18500 100.000
60.20000 102.000
60.21500 93.000
60.23000 87.000
60.24500 96.000
60.26000 105.000
60.27500 104.000
60.29000 100.000
60.30500 92.000
60.32000 98.000
60.33500 89.000
60.35000 104.000
60.36500 100.000
60.38000 104.000
60.39500 84.000
60.41000 104.000
60.42500 108.000
60.44000 105.000
60.45500 94.000
60.47000 102.000
60.48500 106.000
60.50000 96.000
60.51500 117.000
60.53000 106.000
60.54500 118.000
60.56000 115.000
60.57500 103.000
60.59000 93.000
60.60500 88.000
60.62000 97.000
60.63500 107.000
60.65000 107.000
60.66500 101.000
60.68000 112.000
60.69500 109.000
60.71000 108.000
60.72500 104.000
60.74000 116.000
60.75500 114.000
60.77000 111.000
60.78500 117.000
60.80000 103.000
60.81500 110.000
60.83000 109.000
60.84500 131.000
60.86000 123.000
60.87500 110.000
60.89000 112.000
60.90500 109.000
60.92000 117.000
60.93500 120.000
60.95000 107.000
60.96500 100.000
60.98000 103.000
60.99500 113.000
61.01000 114.000
61.02500 96.000
61.04000 97.000
61.05500 100.000
61.07000 110.000
61.08500 117.000
61.10000 98.000
61.11500 116.000
61.13000 107.000
61.14500 109.000
61.16000 107.000
61.17500 97.000
61.19000 101.000
61.20500 100.000
61.22000 97.000
61.23500 96.000
61.25000 101.000
61.26500 91.000
61.28000 99.000
61.29500 107.000
61.31000 102.000
61.32500 98.000
61.34000 101.000
61.35500 97.000
61.37000 104.000
61.38500 106.000
61.40000 99.000
61.41500 101.000
61.43000 96.000
61.44500 95.000
61.46000 95.000
61.47500 101.000
61.49000 97.000
61.50500 99.000
61.52000 112.000
61.53500 103.000
61.55000 86.000
61.56500 92.000
61.58000 112.000
61.59500 115.000
61.61000 91.000
61.62500 115.000
61.64000 103.000
61.65500 98.000
61.67000 117.000
61.68500 94.000
61.70000 112.000
61.71500 115.000
61.73000 111.000
61.74500 123.000
61.76000 124.000
61.77500 120.000
61.79000 101.000
61.80500 106.000
61.82000 110.000
61.83500 113.000
61.85000 108.000
61.86500 105.000
61.88000 100.000
61.89500 123.000
61.91000 135.000
61.92500 119.000
61.94000 96.000
61.95500 131.000
61.97000 143.000
61.98500 132.000
