2.00000 2.000
2.01500 1.000
2.03000 1.000
2.04500 2.000
2.06000 2.000
2.07500 1.000
2.09000 3.000
2.10500 2.000
2.12000 2.000
2.13500 1.000
2.15000 0.000
2.16500 3.000
2.18000 2.000
2.19500 0.000
2.21000 1.000
2.22500 1.000
2.24000 1.000
2.25500 1.000
2.27000 1.000
2.28500 3.000
2.30000 4.000
2.31500 2.000
2.33000 2.000
2.34500 1.000
2.36000 2.000
2.37500 3.000
2.39000 2.000
2.40500 2.000
2.42000 1.000
2.43500 2.000
2.45000 3.000
2.46500 2.000
2.48000 3.000
2.49500 3.000
2.51000 3.000
2.52500 3.000
2.54000 2.000
2.55500 2.000
2.57000 2.000
2.58500 1.000
2.60000 1.000
2.61500 2.000
2.63000 2.000
2.64500 2.000
2.66000 2.000
2.67500 2.000
2.69000 2.000
2.70500 3.000
2.72000 2.000
2.73500 2.000
2.75000 5.000
2.76500 6.000
2.78000 7.000
2.79500 12.000
2.81000 8.000
2.82500 10.000
2.84000 13.000
2.85500 16.000
2.87000 22.000
2.88500 27.000
2.90000 34.000
2.91500 45.000
2.93000 53.000
2.94500 77.000
2.96000 100.000
2.97500 133.000
2.99000 148.000
3.00500 191.000
3.02000 227.000
3.03500 226.000
3.05000 239.000
3.06500 225.000
3.08000 214.000
3.09500 216.000
3.11000 241.000
3.12500 225.000
3.14000 229.000
3.15500 238.000
3.17000 229.000
3.18500 213.000
3.20000 218.000
3.21500 228.000
3.23000 219.000
3.24500 185.000
3.26000 221.000
3.27500 229.000
3.29000 216.000
3.30500 207.000
3.32000 212.000
3.33500 239.000
3.35000 218.000
3.36500 222.000
3.38000 207.000
3.39500 233.000
3.41000 237.000
3.42500 219.000
3.44000 207.000
3.45500 210.000
3.47000 212.000
3.48500 200.000
3.50000 215.000
3.51500 227.000
3.53000 245.000
3.54500 226.000
3.56000 241.000
3.57500 201.000
3.59000 199.000
3.60500 215.000
3.62000 214.000
3.63500 225.000
3.65000 232.000
3.66500 233.000
3.68000 206.000
3.69500 221.000
3.71000 210.000
3.72500 206.000
3.74000 213.000
3.75500 218.000
3.77000 198.000
3.78500 219.000
3.80000 240.000
3.81500 227.000
3.83000 211.000
3.84500 204.000
3.86000 207.000
3.87500 215.000
3.89000 208.000
3.90500 212.000
3.92000 214.000
3.93500 227.000
3.95000 213.000
3.96500 227.000
3.98000 220.000
3.99500 228.000
4.01000 240.000
4.02500 213.000
4.04000 221.000
4.05500 225.000
4.07000 220.000
4.08500 216.000
4.10000 245.000
4.11500 229.000
4.13000 227.000
4.14500 207.000
4.16000 229.000
4.17500 219.000
4.19000 211.000
4.20500 222.000
4.22000 238.000
4.23500 224.000
4.25000 212.000
4.26500 228.000
4.28000 206.000
4.29500 195.000
4.31000 203.000
4.32500 227.000
4.34000 210.000
4.35500 228.000
4.37000 226.000
4.38500 220.000
4.40000 234.000
4.41500 202.000
4.43000 216.000
4.44500 198.000
4.46000 220.000
4.47500 220.000
4.49000 216.000
4.50500 246.000
4.52000 223.000
4.53500 217.000
4.55000 233.000
4.56500 220.000
4.58000 232.000
4.59500 209.000
4.61000 234.000
4.62500 208.000
4.64000 211.000
4.65500 248.000
4.67000 244.000
4.68500 219.000
4.70000 223.000
4.71500 229.000
4.73000 234.000
4.74500 223.000
4.76000 232.000
4.77500 235.000
4.79000 226.000
4.80500 231.000
4.82000 223.000
4.83500 217.000
4.85000 230.000
4.86500 210.000
4.88000 187.000
4.89500 210.000
4.91000 238.000
4.92500 209.000
4.94000 199.000
4.95500 220.000
4.97000 225.000
4.98500 221.000
5.00000 239.000
5.01500 228.000
5.03000 224.000
5.04500 187.000
5.06000 210.000
5.07500 250.000
5.09000 224.000
5.10500 235.000
5.12000 231.000
5.13500 226.000
5.15000 226.000
5.16500 217.000
5.18000 227.000
5.19500 258.000
5.21000 224.000
5.22500 211.000
5.24000 230.000
5.25500 223.000
5.27000 218.000
5.28500 237.000
5.30000 227.000
5.31500 226.000
5.33000 218.000
5.34500 214.000
5.36000 238.000
5.37500 238.000
5.39000 246.000
5.40500 250.000
5.42000 236.000
5.43500 254.000
5.45000 248.000
5.46500 237.000
5.48000 234.000
5.49500 247.000
5.51000 234.000
5.52500 246.000
5.54000 212.000
5.55500 255.000
5.57000 248.000
5.58500 221.000
5.60000 249.000
5.61500 250.000
5.63000 239.000
5.64500 233.000
5.66000 230.000
5.67500 219.000
5.69000 245.000
5.70500 244.000
5.72000 233.000
5.73500 229.000
5.75000 234.000
5.76500 250.000
5.78000 257.000
5.79500 259.000
5.81000 235.000
5.82500 258.000
5.84000 227.000
5.85500 250.000
5.87000 235.000
5.88500 223.000
5.90000 233.000
5.91500 261.000
5.93000 242.000
5.94500 244.000
5.96000 247.000
5.97500 252.000
5.99000 234.000
6.00500 233.000
6.02000 244.000
6.03500 266.000
6.05000 256.000
6.06500 248.000
6.08000 266.000
6.09500 238.000
6.11000 219.000
6.12500 243.000
6.14000 256.000
6.15500 246.000
6.17000 239.000
6.18500 248.000
6.20000 266.000
6.21500 276.000
6.23000 268.000
6.24500 257.000
6.26000 272.000
6.27500 258.000
6.29000 253.000
6.30500 244.000
6.32000 253.000
6.33500 247.000
6.35000 257.000
6.36500 252.000
6.38000 226.000
6.39500 264.000
6.41000 256.000
6.42500 271.000
6.44000 275.000
6.45500 258.000
6.47000 251.000
6.48500 256.000
6.50000 243.000
6.51500 266.000
6.53000 257.000
6.54500 264.000
6.56000 253.000
6.57500 269.000
6.59000 259.000
6.60500 261.000
6.62000 266.000
6.63500 278.000
6.65000 290.000
6.66500 283.000
6.68000 294.000
6.69500 272.000
6.71000 284.000
6.72500 278.000
6.74000 260.000
6.75500 251.000
6.77000 271.000
6.78500 277.000
6.80000 260.000
6.81500 275.000
6.83000 278.000
6.84500 282.000
6.86000 275.000
6.87500 254.000
6.89000 241.000
6.90500 269.000
6.92000 271.000
6.93500 283.000
6.95000 246.000
6.96500 281.000
6.98000 285.000
6.99500 278.000
7.01000 273.000
7.02500 259.000
7.04000 261.000
7.05500 277.000
7.07000 275.000
7.08500 271.000
7.10000 274.000
7.11500 279.000
7.13000 281.000
7.14500 287.000
7.16000 282.000
7.17500 306.000
7.19000 272.000
7.20500 259.000
7.22000 255.000
7.23500 258.000
7.25000 290.000
7.26500 288.000
7.28000 280.000
7.29500 279.000
7.31000 271.000
7.32500 276.000
7.34000 263.000
7.35500 261.000
7.37000 270.000
7.38500 289.000
7.40000 299.000
7.41500 291.000
7.43000 288.000
7.44500 266.000
7.46000 297.000
7.47500 277.000
7.49000 269.000
7.50500 276.000
7.52000 265.000
7.53500 303.000
7.55000 283.000
7.56500 267.000
7.58000 283.000
7.59500 297.000
7.61000 291.000
7.62500 294.000
7.64000 270.000
7.65500 284.000
7.67000 298.000
7.68500 268.000
7.70000 309.000
7.71500 319.000
7.73000 278.000
7.74500 312.000
7.76000 317.000
7.77500 291.000
7.79000 318.000
7.80500 309.000
7.82000 291.000
7.83500 299.000
7.85000 282.000
7.86500 272.000
7.88000 284.000
7.89500 291.000
7.91000 281.000
7.92500 276.000
7.94000 307.000
7.95500 298.000
7.97000 302.000
7.98500 310.000
8.00000 268.000
8.01500 292.000
8.03000 308.000
8.04500 304.000
8.06000 296.000
8.07500 308.000
8.09000 303.000
8.10500 281.000
8.12000 321.000
8.13500 347.000
8.15000 329.000
8.16500 333.000
8.18000 326.000
8.19500 322.000
8.21000 347.000
8.22500 316.000
8.24000 328.000
8.25500 309.000
8.27000 290.000
8.28500 320.000
8.30000 319.000
8.31500 315.000
8.33000 309.000
8.34500 339.000
8.36000 321.000
8.37500 341.000
8.39000 342.000
8.40500 357.000
8.42000 341.000
8.43500 346.000
8.45000 325.000
8.46500 321.000
8.48000 337.000
8.49500 351.000
8.51000 358.000
8.52500 327.000
8.54000 301.000
8.55500 303.000
8.57000 310.000
8.58500 315.000
8.60000 336.000
8.61500 346.000
8.63000 350.000
8.64500 320.000
8.66000 338.000
8.67500 324.000
8.69000 330.000
8.70500 325.000
8.72000 332.000
8.73500 337.000
8.75000 325.000
8.76500 311.000
8.78000 322.000
8.79500 321.000
8.81000 307.000
8.82500 320.000
8.84000 312.000
8.85500 322.000
8.87000 316.000
8.88500 317.000
8.90000 317.000
8.91500 318.000
8.93000 319.000
8.94500 334.000
8.96000 326.000
8.97500 322.000
8.99000 316.000
9.00500 335.000
9.02000 306.000
9.03500 296.000
9.05000 302.000
9.06500 316.000
9.08000 319.000
9.09500 305.000
9.11000 291.000
9.12500 278.000
9.14000 318.000
9.15500 307.000
9.17000 303.000
9.18500 294.000
9.20000 312.000
9.21500 308.000
9.23000 306.000
9.24500 301.000
9.26000 315.000
9.27500 288.000
9.29000 297.000
9.30500 311.000
9.32000 318.000
9.33500 332.000
9.35000 315.000
9.36500 301.000
9.38000 323.000
9.39500 326.000
9.41000 308.000
9.42500 302.000
9.44000 327.000
9.45500 318.000
9.47000 310.000
9.48500 310.000
9.50000 313.000
9.51500 311.000
9.53000 309.000
9.54500 339.000
9.56000 318.000
9.57500 306.000
9.59000 324.000
9.60500 320.000
9.62000 312.000
9.63500 325.000
9.65000 317.000
9.66500 337.000
9.68000 322.000
9.69500 326.000
9.71000 320.000
9.72500 319.000
9.74000 325.000
9.75500 325.000
9.77000 313.000
9.78500 345.000
9.80000 349.000
9.81500 350.000
9.83000 331.000
9.84500 326.000
9.86000 322.000
9.87500 318.000
9.89000 341.000
9.90500 327.000
9.92000 330.000
9.93500 329.000
9.95000 326.000
9.96500 322.000
9.98000 333.000
9.99500 362.000
10.01000 369.000
10.02500 356.000
10.04000 353.000
10.05500 408.000
10.07000 396.000
10.08500 387.000
10.10000 405.000
10.11500 414.000
10.13000 425.000
10.14500 463.000
10.16000 415.000
10.17500 361.000
10.19000 349.000
10.20500 337.000
10.22000 338.000
10.23500 372.000
10.25000 353.000
10.26500 335.000
10.28000 339.000
10.29500 323.000
10.31000 333.000
10.32500 337.000
10.34000 335.000
10.35500 341.000
10.37000 336.000
10.38500 345.000
10.40000 349.000
10.41500 358.000
10.43000 372.000
10.44500 380.000
10.46000 367.000
10.47500 359.000
10.49000 388.000
10.50500 380.000
10.52000 392.000
10.53500 400.000
10.55000 408.000
10.56500 424.000
10.58000 410.000
10.59500 492.000
10.61000 502.000
10.62500 519.000
10.64000 569.000
10.65500 608.000
10.67000 660.000
10.68500 775.000
10.70000 801.000
10.71500 855.000
10.73000 802.000
10.74500 719.000
10.76000 596.000
10.77500 528.000
10.79000 484.000
10.80500 467.000
10.82000 450.000
10.83500 448.000
10.85000 431.000
10.86500 413.000
10.88000 427.000
10.89500 404.000
10.91000 399.000
10.92500 429.000
10.94000 431.000
10.95500 426.000
10.97000 435.000
10.98500 425.000
11.00000 424.000
11.01500 402.000
11.03000 412.000
11.04500 445.000
11.06000 444.000
11.07500 438.000
11.09000 438.000
11.10500 420.000
11.12000 465.000
11.13500 461.000
11.15000 428.000
11.16500 466.000
11.18000 467.000
11.19500 480.000
11.21000 473.000
11.22500 458.000
11.24000 444.000
11.25500 475.000
11.27000 445.000
11.28500 489.000
11.30000 479.000
11.31500 490.000
11.33000 502.000
11.34500 462.000
11.36000 490.000
11.37500 458.000
11.39000 467.000
11.40500 449.000
11.42000 460.000
11.43500 508.000
11.45000 497.000
11.46500 463.000
11.48000 495.000
11.49500 494.000
11.51000 484.000
11.52500 474.000
11.54000 489.000
11.55500 463.000
11.57000 468.000
11.58500 484.000
11.60000 478.000
11.61500 432.000
11.63000 458.000
11.64500 439.000
11.66000 450.000
11.67500 452.000
11.69000 460.000
11.70500 455.000
11.72000 455.000
11.73500 411.000
11.75000 443.000
11.76500 428.000
11.78000 424.000
11.79500 436.000
11.81000 412.000
11.82500 450.000
11.84000 436.000
11.85500 432.000
11.87000 457.000
11.88500 453.000
11.90000 457.000
11.91500 482.000
11.93000 503.000
11.94500 535.000
11.96000 576.000
11.97500 605.000
11.99000 660.000
12.00500 722.000
12.02000 786.000
12.03500 854.000
12.05000 846.000
12.06500 913.000
12.08000 832.000
12.09500 699.000
12.11000 529.000
12.12500 424.000
12.14000 400.000
12.15500 381.000
12.17000 355.000
12.18500 317.000
12.20000 318.000
12.21500 304.000
12.23000 339.000
12.24500 337.000
12.26000 306.000
12.27500 297.000
12.29000 294.000
12.30500 305.000
12.32000 319.000
12.33500 292.000
12.35000 320.000
12.36500 324.000
12.38000 308.000
12.39500 293.000
12.41000 293.000
12.42500 312.000
12.44000 303.000
12.45500 318.000
12.47000 298.000
12.48500 318.000
12.50000 294.000
12.51500 297.000
12.53000 313.000
12.54500 319.000
12.56000 321.000
12.57500 311.000
12.59000 328.000
12.60500 329.000
12.62000 327.000
12.63500 334.000
12.65000 344.000
12.66500 368.000
12.68000 373.000
12.69500 398.000
12.71000 385.000
12.72500 447.000
12.74000 494.000
12.75500 500.000
12.77000 444.000
12.78500 372.000
12.80000 370.000
12.81500 336.000
12.83000 330.000
12.84500 340.000
12.86000 332.000
12.87500 341.000
12.89000 323.000
12.90500 312.000
12.92000 321.000
12.93500 316.000
12.95000 299.000
12.96500 305.000
12.98000 314.000
12.99500 329.000
13.01000 276.000
13.02500 310.000
13.04000 297.000
13.05500 284.000
13.07000 308.000
13.08500 307.000
13.10000 303.000
13.11500 296.000
13.13000 307.000
13.14500 278.000
13.16000 299.000
13.17500 307.000
13.19000 327.000
13.20500 316.000
13.22000 293.000
13.23500 310.000
13.25000 300.000
13.26500 282.000
13.28000 286.000
13.29500 280.000
13.31000 280.000
13.32500 278.000
13.34000 288.000
13.35500 294.000
13.37000 277.000
13.38500 311.000
13.40000 320.000
13.41500 268.000
13.43000 270.000
13.44500 268.000
13.46000 308.000
13.47500 294.000
13.49000 289.000
13.50500 289.000
13.52000 283.000
13.53500 278.000
13.55000 267.000
13.56500 277.000
13.58000 290.000
13.59500 298.000
13.61000 268.000
13.62500 272.000
13.64000 286.000
13.65500 268.000
13.67000 257.000
13.68500 268.000
13.70000 287.000
13.71500 267.000
13.73000 264.000
13.74500 282.000
13.76000 274.000
13.77500 254.000
13.79000 289.000
13.80500 249.000
13.82000 257.000
13.83500 253.000
13.85000 265.000
13.86500 273.000
13.88000 268.000
13.89500 264.000
13.91000 292.000
13.92500 277.000
13.94000 281.000
13.95500 244.000
13.97000 271.000
13.98500 268.000
14.00000 252.000
14.01500 231.000
14.03000 253.000
14.04500 278.000
14.06000 258.000
14.07500 264.000
14.09000 248.000
14.10500 265.000
14.12000 271.000
14.13500 261.000
14.15000 273.000
14.16500 244.000
14.18000 233.000
14.19500 283.000
14.21000 284.000
14.22500 274.000
14.24000 260.000
14.25500 243.000
14.27000 263.000
14.28500 267.000
14.30000 273.000
14.31500 271.000
14.33000 267.000
14.34500 256.000
14.36000 267.000
14.37500 239.000
14.39000 276.000
14.40500 265.000
14.42000 261.000
14.43500 243.000
14.45000 255.000
14.46500 262.000
14.48000 267.000
14.49500 262.000
14.51000 279.000
14.52500 266.000
14.54000 280.000
14.55500 273.000
14.57000 257.000
14.58500 261.000
14.60000 276.000
14.61500 271.000
14.63000 244.000
14.64500 249.000
14.66000 240.000
14.67500 258.000
14.69000 257.000
14.70500 231.000
14.72000 241.000
14.73500 273.000
14.75000 239.000
14.76500 253.000
14.78000 271.000
14.79500 252.000
14.81000 282.000
14.82500 256.000
14.84000 257.000
14.85500 262.000
14.87000 247.000
14.88500 268.000
14.90000 250.000
14.91500 255.000
14.93000 257.000
14.94500 222.000
14.96000 242.000
14.97500 258.000
14.99000 263.000
15.00500 267.000
15.02000 247.000
15.03500 259.000
15.05000 254.000
15.06500 259.000
15.08000 233.000
15.09500 236.000
15.11000 231.000
15.12500 238.000
15.14000 251.000
15.15500 283.000
15.17000 265.000
15.18500 227.000
15.20000 239.000
15.21500 240.000
15.23000 261.000
15.24500 239.000
15.26000 246.000
15.27500 231.000
15.29000 237.000
15.30500 240.000
15.32000 268.000
15.33500 283.000
15.35000 257.000
15.36500 248.000
15.38000 256.000
15.39500 260.000
15.41000 239.000
15.42500 241.000
15.44000 246.000
15.45500 255.000
15.47000 266.000
15.48500 245.000
15.50000 227.000
15.51500 236.000
15.53000 256.000
15.54500 263.000
15.56000 250.000
15.57500 225.000
15.59000 236.000
15.60500 254.000
15.62000 252.000
15.63500 240.000
15.65000 266.000
15.66500 276.000
15.68000 253.000
15.69500 243.000
15.71000 243.000
15.72500 232.000
15.74000 251.000
15.75500 248.000
15.77000 243.000
15.78500 261.000
15.80000 229.000
15.81500 273.000
15.83000 239.000
15.84500 245.000
15.86000 249.000
15.87500 257.000
15.89000 269.000
15.90500 252.000
15.92000 249.000
15.93500 237.000
15.95000 242.000
15.96500 235.000
15.98000 259.000
15.99500 267.000
16.01000 249.000
16.02500 250.000
16.04000 245.000
16.05500 242.000
16.07000 257.000
16.08500 267.000
16.10000 245.000
16.11500 226.000
16.13000 251.000
16.14500 264.000
16.16000 274.000
16.17500 262.000
16.19000 245.000
16.20500 265.000
16.22000 276.000
16.23500 275.000
16.25000 268.000
16.26500 262.000
16.28000 279.000
16.29500 300.000
16.31000 304.000
16.32500 299.000
16.34000 274.000
16.35500 246.000
16.37000 252.000
16.38500 281.000
16.40000 264.000
16.41500 246.000
16.43000 252.000
16.44500 230.000
16.46000 229.000
16.47500 242.000
16.49000 249.000
16.50500 232.000
16.52000 229.000
16.53500 256.000
16.55000 237.000
16.56500 259.000
16.58000 257.000
16.59500 269.000
16.61000 262.000
16.62500 240.000
16.64000 242.000
16.65500 251.000
16.67000 211.000
16.68500 232.000
16.70000 267.000
16.71500 271.000
16.73000 264.000
16.74500 265.000
16.76000 238.000
16.77500 227.000
16.79000 245.000
16.80500 268.000
16.82000 251.000
16.83500 251.000
16.85000 240.000
16.86500 237.000
16.88000 252.000
16.89500 263.000
16.91000 275.000
16.92500 264.000
16.94000 275.000
16.95500 258.000
16.97000 258.000
16.98500 278.000
17.00000 254.000
17.01500 251.000
17.03000 265.000
17.04500 265.000
17.06000 247.000
17.07500 239.000
17.09000 251.000
17.10500 254.000
17.12000 248.000
17.13500 260.000
17.15000 275.000
17.16500 264.000
17.18000 248.000
17.19500 259.000
17.21000 251.000
17.22500 261.000
17.24000 262.000
17.25500 293.000
17.27000 266.000
17.28500 318.000
17.30000 326.000
17.31500 305.000
17.33000 284.000
17.34500 281.000
17.36000 265.000
17.37500 278.000
17.39000 265.000
17.40500 247.000
17.42000 238.000
17.43500 247.000
17.45000 258.000
17.46500 251.000
17.48000 247.000
17.49500 258.000
17.51000 267.000
17.52500 240.000
17.54000 260.000
17.55500 253.000
17.57000 249.000
17.58500 249.000
17.60000 253.000
17.61500 261.000
17.63000 259.000
17.64500 266.000
17.66000 266.000
17.67500 263.000
17.69000 239.000
17.70500 238.000
17.72000 266.000
17.73500 259.000
17.75000 247.000
17.76500 246.000
17.78000 256.000
17.79500 253.000
17.81000 255.000
17.82500 258.000
17.84000 244.000
17.85500 243.000
17.87000 231.000
17.88500 260.000
17.90000 269.000
17.91500 235.000
17.93000 258.000
17.94500 274.000
17.96000 263.000
17.97500 259.000
17.99000 264.000
18.00500 265.000
18.02000 248.000
18.03500 236.000
18.05000 256.000
18.06500 240.000
18.08000 241.000
18.09500 248.000
18.11000 243.000
18.12500 223.000
18.14000 242.000
18.15500 263.000
18.17000 269.000
18.18500 248.000
18.20000 242.000
18.21500 273.000
18.23000 246.000
18.24500 256.000
18.26000 268.000
18.27500 247.000
18.29000 250.000
18.30500 276.000
18.32000 263.000
18.33500 267.000
18.35000 283.000
18.36500 251.000
18.38000 265.000
18.39500 276.000
18.41000 259.000
18.42500 242.000
18.44000 266.000
18.45500 264.000
18.47000 257.000
18.48500 281.000
18.50000 252.000
18.51500 254.000
18.53000 256.000
18.54500 244.000
18.56000 248.000
18.57500 228.000
18.59000 242.000
18.60500 258.000
18.62000 279.000
18.63500 280.000
18.65000 265.000
18.66500 234.000
18.68000 255.000
18.69500 249.000
18.71000 265.000
18.72500 286.000
18.74000 237.000
18.75500 254.000
18.77000 291.000
18.78500 267.000
18.80000 268.000
18.81500 265.000
18.83000 255.000
18.84500 243.000
18.86000 238.000
18.87500 258.000
18.89000 260.000
18.90500 256.000
18.92000 262.000
18.93500 262.000
18.95000 249.000
18.96500 258.000
18.98000 259.000
18.99500 269.000
19.01000 260.000
19.02500 266.000
19.04000 279.000
19.05500 260.000
19.07000 247.000
19.08500 238.000
19.10000 265.000
19.11500 268.000
19.13000 244.000
19.14500 247.000
19.16000 264.000
19.17500 260.000
19.19000 261.000
19.20500 248.000
19.22000 271.000
19.23500 275.000
19.25000 276.000
19.26500 252.000
19.28000 259.000
19.29500 256.000
19.31000 268.000
19.32500 270.000
19.34000 267.000
19.35500 277.000
19.37000 275.000
19.38500 250.000
19.40000 251.000
19.41500 265.000
19.43000 257.000
19.44500 263.000
19.46000 243.000
19.47500 240.000
19.49000 265.000
19.50500 261.000
19.52000 267.000
19.53500 269.000
19.55000 269.000
19.56500 250.000
19.58000 286.000
19.59500 282.000
19.61000 283.000
19.62500 252.000
19.64000 251.000
19.65500 281.000
19.67000 274.000
19.68500 243.000
19.70000 261.000
19.71500 266.000
19.73000 264.000
19.74500 225.000
19.76000 280.000
19.77500 295.000
19.79000 280.000
19.80500 309.000
19.82000 272.000
19.83500 270.000
19.85000 303.000
19.86500 313.000
19.88000 323.000
19.89500 306.000
19.91000 306.000
19.92500 315.000
19.94000 291.000
19.95500 289.000
19.97000 291.000
19.98500 252.000
20.00000 260.000
20.01500 265.000
20.03000 304.000
20.04500 303.000
20.06000 262.000
20.07500 271.000
20.09000 268.000
20.10500 273.000
20.12000 256.000
20.13500 258.000
20.15000 241.000
20.16500 255.000
20.18000 248.000
20.19500 267.000
20.21000 264.000
20.22500 272.000
20.24000 262.000
20.25500 256.000
20.27000 241.000
20.28500 272.000
20.30000 289.000
20.31500 259.000
20.33000 243.000
20.34500 258.000
20.36000 241.000
20.37500 249.000
20.39000 264.000
20.40500 291.000
20.42000 282.000
20.43500 252.000
20.45000 256.000
20.46500 246.000
20.48000 264.000
20.49500 270.000
20.51000 261.000
20.52500 248.000
20.54000 285.000
20.55500 267.000
20.57000 256.000
20.58500 251.000
20.60000 288.000
20.61500 243.000
20.63000 246.000
20.64500 276.000
20.66000 289.000
20.67500 274.000
20.69000 266.000
20.70500 268.000
20.72000 274.000
20.73500 254.000
20.75000 253.000
20.76500 262.000
20.78000 255.000
20.79500 253.000
20.81000 261.000
20.82500 261.000
20.84000 277.000
20.85500 265.000
20.87000 278.000
20.88500 289.000
20.90000 256.000
20.91500 275.000
20.93000 263.000
20.94500 249.000
20.96000 276.000
20.97500 286.000
20.99000 286.000
21.00500 279.000
21.02000 271.000
21.03500 291.000
21.05000 274.000
21.06500 263.000
21.08000 271.000
21.09500 270.000
21.11000 279.000
21.12500 287.000
21.14000 287.000
21.15500 260.000
21.17000 273.000
21.18500 269.000
21.20000 271.000
21.21500 280.000
21.23000 257.000
21.24500 258.000
21.26000 260.000
21.27500 268.000
21.29000 268.000
21.30500 271.000
21.32000 270.000
21.33500 271.000
21.35000 254.000
21.36500 242.000
21.38000 275.000
21.39500 275.000
21.41000 283.000
21.42500 278.000
21.44000 298.000
21.45500 291.000
21.47000 283.000
21.48500 276.000
21.50000 250.000
21.51500 259.000
21.53000 292.000
21.54500 295.000
21.56000 288.000
21.57500 266.000
21.59000 276.000
21.60500 259.000
21.62000 289.000
21.63500 286.000
21.65000 269.000
21.66500 287.000
21.68000 272.000
21.69500 276.000
21.71000 297.000
21.72500 279.000
21.74000 270.000
21.75500 258.000
21.77000 274.000
21.78500 275.000
21.80000 285.000
21.81500 283.000
21.83000 289.000
21.84500 278.000
21.86000 296.000
21.87500 273.000
21.89000 289.000
21.90500 283.000
21.92000 280.000
21.93500 285.000
21.95000 282.000
21.96500 272.000
21.98000 275.000
21.99500 275.000
22.01000 272.000
22.02500 258.000
22.04000 272.000
22.05500 284.000
22.07000 270.000
22.08500 294.000
22.10000 301.000
22.11500 294.000
22.13000 290.000
22.14500 285.000
22.16000 285.000
22.17500 300.000
22.19000 268.000
22.20500 262.000
22.22000 299.000
22.23500 284.000
22.25000 280.000
22.26500 287.000
22.28000 267.000
22.29500 279.000
22.31000 308.000
22.32500 294.000
22.34000 291.000
22.35500 306.000
22.37000 286.000
22.38500 275.000
22.40000 293.000
22.41500 297.000
22.43000 308.000
22.44500 274.000
22.46000 298.000
22.47500 290.000
22.49000 303.000
22.50500 305.000
22.52000 296.000
22.53500 304.000
22.55000 280.000
22.56500 298.000
22.58000 312.000
22.59500 332.000
22.61000 333.000
22.62500 339.000
22.64000 334.000
22.65500 370.000
22.67000 401.000
22.68500 368.000
22.70000 363.000
22.71500 364.000
22.73000 333.000
22.74500 325.000
22.76000 327.000
22.77500 305.000
22.79000 306.000
22.80500 315.000
22.82000 310.000
22.83500 304.000
22.85000 320.000
22.86500 305.000
22.88000 289.000
22.89500 321.000
22.91000 324.000
22.92500 354.000
22.94000 365.000
22.95500 386.000
22.97000 374.000
22.98500 332.000
23.00000 298.000
23.01500 334.000
23.03000 323.000
23.04500 295.000
23.06000 298.000
23.07500 327.000
23.09000 344.000
23.10500 305.000
23.12000 318.000
23.13500 315.000
23.15000 320.000
23.16500 329.000
23.18000 335.000
23.19500 344.000
23.21000 340.000
23.22500 349.000
23.24000 376.000
23.25500 367.000
23.27000 339.000
23.28500 326.000
23.30000 349.000
23.31500 327.000
23.33000 309.000
23.34500 308.000
23.36000 322.000
23.37500 295.000
23.39000 304.000
23.40500 298.000
23.42000 301.000
23.43500 301.000
23.45000 295.000
23.46500 302.000
23.48000 285.000
23.49500 324.000
23.51000 331.000
23.52500 318.000
23.54000 333.000
23.55500 345.000
23.57000 306.000
23.58500 304.000
23.60000 328.000
23.61500 283.000
23.63000 304.000
23.64500 343.000
23.66000 312.000
23.67500 327.000
23.69000 341.000
23.70500 308.000
23.72000 293.000
23.73500 310.000
23.75000 316.000
23.76500 337.000
23.78000 276.000
23.79500 278.000
23.81000 319.000
23.82500 312.000
23.84000 296.000
23.85500 290.000
23.87000 271.000
23.88500 287.000
23.90000 296.000
23.91500 323.000
23.93000 340.000
23.94500 326.000
23.96000 334.000
23.97500 300.000
23.99000 298.000
24.00500 334.000
24.02000 308.000
24.03500 307.000
24.05000 330.000
24.06500 299.000
24.08000 328.000
24.09500 318.000
24.11000 329.000
24.12500 340.000
24.14000 321.000
24.15500 333.000
24.17000 339.000
24.18500 340.000
24.20000 347.000
24.21500 339.000
24.23000 349.000
24.24500 350.000
24.26000 320.000
24.27500 334.000
24.29000 361.000
24.30500 309.000
24.32000 319.000
24.33500 326.000
24.35000 354.000
24.36500 333.000
24.38000 345.000
24.39500 317.000
24.41000 329.000
24.42500 357.000
24.44000 371.000
24.45500 355.000
24.47000 352.000
24.48500 365.000
24.50000 341.000
24.51500 341.000
24.53000 328.000
24.54500 335.000
24.56000 313.000
24.57500 348.000
24.59000 350.000
24.60500 327.000
24.62000 375.000
24.63500 383.000
24.65000 354.000
24.66500 371.000
24.68000 352.000
24.69500 360.000
24.71000 378.000
24.72500 368.000
24.74000 373.000
24.75500 375.000
24.77000 385.000
24.78500 385.000
24.80000 394.000
24.81500 412.000
24.83000 395.000
24.84500 416.000
24.86000 421.000
24.87500 451.000
24.89000 474.000
24.90500 469.000
24.92000 523.000
24.93500 539.000
24.95000 558.000
24.96500 605.000
24.98000 586.000
24.99500 651.000
25.01000 645.000
25.02500 627.000
25.04000 557.000
25.05500 521.000
25.07000 542.000
25.08500 500.000
25.10000 473.000
25.11500 451.000
25.13000 424.000
25.14500 464.000
25.16000 460.000
25.17500 459.000
25.19000 479.000
25.20500 471.000
25.22000 487.000
25.23500 487.000
25.25000 494.000
25.26500 483.000
25.28000 453.000
25.29500 479.000
25.31000 475.000
25.32500 510.000
25.34000 522.000
25.35500 510.000
25.37000 504.000
25.38500 511.000
25.40000 548.000
25.41500 561.000
25.43000 560.000
25.44500 559.000
25.46000 560.000
25.47500 591.000
25.49000 584.000
25.50500 610.000
25.52000 591.000
25.53500 563.000
25.55000 553.000
25.56500 590.000
25.58000 592.000
25.59500 575.000
25.61000 598.000
25.62500 591.000
25.64000 566.000
25.65500 542.000
25.67000 529.000
25.68500 528.000
25.70000 516.000
25.71500 488.000
25.73000 500.000
25.74500 509.000
25.76000 514.000
25.77500 488.000
25.79000 441.000
25.80500 499.000
25.82000 488.000
25.83500 507.000
25.85000 453.000
25.86500 470.000
25.88000 490.000
25.89500 482.000
25.91000 447.000
25.92500 478.000
25.94000 461.000
25.95500 493.000
25.97000 513.000
25.98500 500.000
26.00000 487.000
26.01500 471.000
26.03000 459.000
26.04500 460.000
26.06000 480.000
26.07500 493.000
26.09000 464.000
26.10500 500.000
26.12000 498.000
26.13500 477.000
26.15000 497.000
26.16500 452.000
26.18000 503.000
26.19500 472.000
26.21000 486.000
26.22500 492.000
26.24000 493.000
26.25500 497.000
26.27000 473.000
26.28500 479.000
26.30000 518.000
26.31500 471.000
26.33000 486.000
26.34500 522.000
26.36000 500.000
26.37500 480.000
26.39000 497.000
26.40500 467.000
26.42000 504.000
26.43500 527.000
26.45000 529.000
26.46500 508.000
26.48000 525.000
26.49500 573.000
26.51000 568.000
26.52500 530.000
26.54000 523.000
26.55500 541.000
26.57000 575.000
26.58500 553.000
26.60000 548.000
26.61500 539.000
26.63000 549.000
26.64500 519.000
26.66000 540.000
26.67500 562.000
26.69000 552.000
26.70500 545.000
26.72000 568.000
26.73500 565.000
26.75000 538.000
26.76500 595.000
26.78000 590.000
26.79500 590.000
26.81000 582.000
26.82500 610.000
26.84000 619.000
26.85500 589.000
26.87000 596.000
26.88500 587.000
26.90000 626.000
26.91500 639.000
26.93000 670.000
26.94500 708.000
26.96000 688.000
26.97500 737.000
26.99000 809.000
27.00500 841.000
27.02000 916.000
27.03500 967.000
27.05000 1091.000
27.06500 1214.000
27.08000 1310.000
27.09500 1454.000
27.11000 1576.000
27.12500 1684.000
27.14000 1725.000
27.15500 1734.000
27.17000 1638.000
27.18500 1475.000
27.20000 1391.000
27.21500 1235.000
27.23000 1151.000
27.24500 1010.000
27.26000 956.000
27.27500 849.000
27.29000 805.000
27.30500 803.000
27.32000 741.000
27.33500 737.000
27.35000 687.000
27.36500 625.000
27.38000 621.000
27.39500 639.000
27.41000 607.000
27.42500 598.000
27.44000 573.000
27.45500 563.000
27.47000 520.000
27.48500 537.000
27.50000 525.000
27.51500 523.000
27.53000 480.000
27.54500 507.000
27.56000 490.000
27.57500 482.000
27.59000 470.000
27.60500 459.000
27.62000 447.000
27.63500 476.000
27.65000 455.000
27.66500 444.000
27.68000 434.000
27.69500 429.000
27.71000 470.000
27.72500 425.000
27.74000 412.000
27.75500 428.000
27.77000 416.000
27.78500 400.000
27.80000 389.000
27.81500 387.000
27.83000 373.000
27.84500 370.000
27.86000 344.000
27.87500 346.000
27.89000 348.000
27.90500 333.000
27.92000 329.000
27.93500 320.000
27.95000 341.000
27.96500 345.000
27.98000 341.000
27.99500 325.000
28.01000 344.000
28.02500 350.000
28.04000 333.000
28.05500 324.000
28.07000 308.000
28.08500 333.000
28.10000 354.000
28.11500 323.000
28.13000 296.000
28.14500 279.000
28.16000 308.000
28.17500 330.000
28.19000 300.000
28.20500 342.000
28.22000 300.000
28.23500 293.000
28.25000 306.000
28.26500 307.000
28.28000 300.000
28.29500 294.000
28.31000 273.000
28.32500 299.000
28.34000 284.000
28.35500 291.000
28.37000 277.000
28.38500 271.000
28.40000 257.000
28.41500 253.000
28.43000 259.000
28.44500 292.000
28.46000 296.000
28.47500 293.000
28.49000 269.000
28.50500 272.000
28.52000 274.000
28.53500 274.000
28.55000 282.000
28.56500 259.000
28.58000 288.000
28.59500 264.000
28.61000 259.000
28.62500 271.000
28.64000 287.000
28.65500 278.000
28.67000 262.000
28.68500 280.000
28.70000 301.000
28.71500 287.000
28.73000 276.000
28.74500 279.000
28.76000 262.000
28.77500 291.000
28.79000 278.000
28.80500 270.000
28.82000 269.000
28.83500 258.000
28.85000 266.000
28.86500 270.000
28.88000 248.000
28.89500 269.000
28.91000 272.000
28.92500 240.000
28.94000 229.000
28.95500 255.000
28.97000 255.000
28.98500 262.000
29.00000 247.000
29.01500 238.000
29.03000 258.000
29.04500 235.000
29.06000 252.000
29.07500 252.000
29.09000 258.000
29.10500 251.000
29.12000 235.000
29.13500 237.000
29.15000 266.000
29.16500 258.000
29.18000 241.000
29.19500 254.000
29.21000 247.000
29.22500 249.000
29.24000 239.000
29.25500 222.000
29.27000 238.000
29.28500 267.000
29.30000 257.000
29.31500 261.000
29.33000 232.000
29.34500 223.000
29.36000 232.000
29.37500 237.000
29.39000 235.000
29.40500 253.000
29.42000 261.000
29.43500 246.000
29.45000 230.000
29.46500 242.000
29.48000 249.000
29.49500 239.000
29.51000 241.000
29.52500 236.000
29.54000 236.000
29.55500 243.000
29.57000 244.000
29.58500 226.000
29.60000 228.000
29.61500 214.000
29.63000 240.000
29.64500 232.000
29.66000 234.000
29.67500 249.000
29.69000 260.000
29.70500 257.000
29.72000 259.000
29.73500 250.000
29.75000 244.000
29.76500 267.000
29.78000 272.000
29.79500 273.000
29.81000 263.000
29.82500 274.000
29.84000 251.000
29.85500 234.000
29.87000 240.000
29.88500 258.000
29.90000 254.000
29.91500 231.000
29.93000 251.000
29.94500 241.000
29.96000 236.000
29.97500 235.000
29.99000 247.000
30.00500 252.000
30.02000 274.000
30.03500 253.000
30.05000 268.000
30.06500 244.000
30.08000 255.000
30.09500 263.000
30.11000 258.000
30.12500 251.000
30.14000 268.000
30.15500 240.000
30.17000 272.000
30.18500 275.000
30.20000 286.000
30.21500 301.000
30.23000 283.000
30.24500 273.000
30.26000 277.000
30.27500 302.000
30.29000 317.000
30.30500 317.000
30.32000 281.000
30.33500 308.000
30.35000 319.000
30.36500 352.000
30.38000 381.000
30.39500 386.000
30.41000 390.000
30.42500 379.000
30.44000 397.000
30.45500 394.000
30.47000 376.000
30.48500 356.000
30.50000 356.000
30.51500 327.000
30.53000 311.000
30.54500 293.000
30.56000 274.000
30.57500 273.000
30.59000 266.000
30.60500 247.000
30.62000 230.000
30.63500 257.000
30.65000 268.000
30.66500 247.000
30.68000 245.000
30.69500 239.000
30.71000 236.000
30.72500 248.000
30.74000 229.000
30.75500 234.000
30.77000 227.000
30.78500 221.000
30.80000 233.000
30.81500 218.000
30.83000 224.000
30.84500 236.000
30.86000 252.000
30.87500 258.000
30.89000 252.000
30.90500 255.000
30.92000 225.000
30.93500 249.000
30.95000 229.000
30.96500 237.000
30.98000 227.000
30.99500 233.000
31.01000 241.000
31.02500 239.000
31.04000 260.000
31.05500 272.000
31.07000 256.000
31.08500 274.000
31.10000 240.000
31.11500 252.000
31.13000 241.000
31.14500 224.000
31.16000 221.000
31.17500 240.000
31.19000 218.000
31.20500 203.000
31.22000 217.000
31.23500 216.000
31.25000 219.000
31.26500 226.000
31.28000 230.000
31.29500 235.000
31.31000 240.000
31.32500 203.000
31.34000 214.000
31.35500 243.000
31.37000 198.000
31.38500 193.000
31.40000 209.000
31.41500 216.000
31.43000 216.000
31.44500 194.000
31.46000 227.000
31.47500 210.000
31.49000 205.000
31.50500 206.000
31.52000 187.000
31.53500 205.000
31.55000 198.000
31.56500 211.000
31.58000 226.000
31.59500 216.000
31.61000 213.000
31.62500 200.000
31.64000 210.000
31.65500 214.000
31.67000 214.000
31.68500 220.000
31.70000 206.000
31.71500 210.000
31.73000 210.000
31.74500 177.000
31.76000 215.000
31.77500 213.000
31.79000 198.000
31.80500 199.000
31.82000 207.000
31.83500 196.000
31.85000 222.000
31.86500 201.000
31.88000 209.000
31.89500 238.000
31.91000 211.000
31.92500 183.000
31.94000 181.000
31.95500 211.000
31.97000 202.000
31.98500 210.000
32.00000 198.000
32.01500 201.000
32.03000 211.000
32.04500 218.000
32.06000 210.000
32.07500 204.000
32.09000 176.000
32.10500 187.000
32.12000 209.000
32.13500 198.000
32.15000 199.000
32.16500 184.000
32.18000 190.000
32.19500 191.000
32.21000 187.000
32.22500 196.000
32.24000 222.000
32.25500 211.000
32.27000 202.000
32.28500 200.000
32.30000 186.000
32.31500 183.000
32.33000 219.000
32.34500 202.000
32.36000 178.000
32.37500 189.000
32.39000 204.000
32.40500 186.000
32.42000 177.000
32.43500 193.000
32.45000 184.000
32.46500 187.000
32.48000 204.000
32.49500 200.000
32.51000 195.000
32.52500 182.000
32.54000 179.000
32.55500 197.000
32.57000 198.000
32.58500 176.000
32.60000 187.000
32.61500 183.000
32.63000 203.000
32.64500 190.000
32.66000 200.000
32.67500 188.000
32.69000 187.000
32.70500 198.000
32.72000 194.000
32.73500 194.000
32.75000 171.000
32.76500 182.000
32.78000 177.000
32.79500 184.000
32.81000 183.000
32.82500 195.000
32.84000 183.000
32.85500 179.000
32.87000 194.000
32.88500 174.000
32.90000 214.000
32.91500 207.000
32.93000 158.000
32.94500 174.000
32.96000 174.000
32.97500 195.000
32.99000 192.000
33.00500 186.000
33.02000 186.000
33.03500 184.000
33.05000 192.000
33.06500 187.000
33.08000 191.000
33.09500 183.000
33.11000 196.000
33.12500 183.000
33.14000 177.000
33.15500 186.000
33.17000 173.000
33.18500 182.000
33.20000 201.000
33.21500 193.000
33.23000 165.000
33.24500 170.000
33.26000 193.000
33.27500 182.000
33.29000 173.000
33.30500 178.000
33.32000 191.000
33.33500 221.000
33.35000 190.000
33.36500 202.000
33.38000 209.000
33.39500 206.000
33.41000 198.000
33.42500 194.000
33.44000 198.000
33.45500 208.000
33.47000 189.000
33.48500 193.000
33.50000 189.000
33.51500 191.000
33.53000 181.000
33.54500 182.000
33.56000 174.000
33.57500 190.000
33.59000 181.000
33.60500 172.000
33.62000 181.000
33.63500 169.000
33.65000 185.000
33.66500 166.000
33.68000 194.000
33.69500 186.000
33.71000 177.000
33.72500 190.000
33.74000 179.000
33.75500 175.000
33.77000 161.000
33.78500 167.000
33.80000 179.000
33.81500 170.000
33.83000 184.000
33.84500 179.000
33.86000 178.000
33.87500 172.000
33.89000 172.000
33.90500 170.000
33.92000 177.000
33.93500 180.000
33.95000 157.000
33.96500 171.000
33.98000 174.000
33.99500 185.000
34.01000 180.000
34.02500 178.000
34.04000 181.000
34.05500 185.000
34.07000 172.000
34.08500 187.000
34.10000 172.000
34.11500 151.000
34.13000 177.000
34.14500 169.000
34.16000 166.000
34.17500 176.000
34.19000 166.000
34.20500 180.000
34.22000 206.000
34.23500 165.000
34.25000 168.000
34.26500 173.000
34.28000 168.000
34.29500 157.000
34.31000 165.000
34.32500 165.000
34.34000 164.000
34.35500 164.000
34.37000 187.000
34.38500 160.000
34.40000 176.000
34.41500 166.000
34.43000 167.000
34.44500 173.000
34.46000 184.000
34.47500 195.000
34.49000 200.000
34.50500 200.000
34.52000 196.000
34.53500 208.000
34.55000 189.000
34.56500 192.000
34.58000 180.000
34.59500 179.000
34.61000 203.000
34.62500 189.000
34.64000 184.000
34.65500 183.000
34.67000 160.000
34.68500 158.000
34.70000 182.000
34.71500 202.000
34.73000 222.000
34.74500 215.000
34.76000 198.000
34.77500 212.000
34.79000 190.000
34.80500 213.000
34.82000 198.000
34.83500 186.000
34.85000 184.000
34.86500 201.000
34.88000 189.000
34.89500 178.000
34.91000 194.000
34.92500 187.000
34.94000 185.000
34.95500 169.000
34.97000 171.000
34.98500 186.000
35.00000 185.000
35.01500 170.000
35.03000 185.000
35.04500 168.000
35.06000 159.000
35.07500 168.000
35.09000 190.000
35.10500 182.000
35.12000 172.000
35.13500 183.000
35.15000 181.000
35.16500 175.000
35.18000 167.000
35.19500 172.000
35.21000 180.000
35.22500 166.000
35.24000 153.000
35.25500 176.000
35.27000 173.000
35.28500 174.000
35.30000 171.000
35.31500 168.000
35.33000 149.000
35.34500 173.000
35.36000 164.000
35.37500 155.000
35.39000 168.000
35.40500 169.000
35.42000 159.000
35.43500 157.000
35.45000 138.000
35.46500 137.000
35.48000 148.000
35.49500 173.000
35.51000 165.000
35.52500 163.000
35.54000 158.000
35.55500 168.000
35.57000 177.000
35.58500 167.000
35.60000 156.000
35.61500 174.000
35.63000 154.000
35.64500 152.000
35.66000 156.000
35.67500 163.000
35.69000 163.000
35.70500 151.000
35.72000 160.000
35.73500 149.000
35.75000 152.000
35.76500 150.000
35.78000 151.000
35.79500 136.000
35.81000 147.000
35.82500 146.000
35.84000 169.000
35.85500 168.000
35.87000 158.000
35.88500 157.000
35.90000 137.000
35.91500 141.000
35.93000 146.000
35.94500 150.000
35.96000 151.000
35.97500 150.000
35.99000 121.000
36.00500 126.000
36.02000 153.000
36.03500 154.000
36.05000 177.000
36.06500 158.000
36.08000 146.000
36.09500 134.000
36.11000 126.000
36.12500 141.000
36.14000 157.000
36.15500 144.000
36.17000 143.000
36.18500 153.000
36.20000 152.000
36.21500 139.000
36.23000 134.000
36.24500 144.000
36.26000 165.000
36.27500 146.000
36.29000 135.000
36.30500 145.000
36.32000 131.000
36.33500 132.000
36.35000 149.000
36.36500 150.000
36.38000 146.000
36.39500 146.000
36.41000 140.000
36.42500 137.000
36.44000 143.000
36.45500 147.000
36.47000 150.000
36.48500 152.000
36.50000 138.000
36.51500 144.000
36.53000 149.000
36.54500 152.000
36.56000 145.000
36.57500 126.000
36.59000 141.000
36.60500 152.000
36.62000 148.000
36.63500 140.000
36.65000 156.000
36.66500 176.000
36.68000 142.000
36.69500 133.000
36.71000 143.000
36.72500 152.000
36.74000 128.000
36.75500 147.000
36.77000 129.000
36.78500 133.000
36.80000 130.000
36.81500 147.000
36.83000 137.000
36.84500 133.000
36.86000 142.000
36.87500 149.000
36.89000 144.000
36.90500 151.000
36.92000 139.000
36.93500 141.000
36.95000 147.000
36.96500 139.000
36.98000 143.000
36.99500 165.000
37.01000 143.000
37.02500 143.000
37.04000 132.000
37.05500 149.000
37.07000 161.000
37.08500 149.000
37.10000 130.000
37.11500 129.000
37.13000 128.000
37.14500 148.000
37.16000 140.000
37.17500 146.000
37.19000 147.000
37.20500 124.000
37.22000 134.000
37.23500 132.000
37.25000 135.000
37.26500 132.000
37.28000 129.000
37.29500 134.000
37.31000 151.000
37.32500 143.000
37.34000 142.000
37.35500 131.000
37.37000 129.000
37.38500 143.000
37.40000 141.000
37.41500 144.000
37.43000 143.000
37.44500 133.000
37.46000 135.000
37.47500 127.000
37.49000 141.000
37.50500 136.000
37.52000 136.000
37.53500 132.000
37.55000 126.000
37.56500 131.000
37.58000 140.000
37.59500 136.000
37.61000 129.000
37.62500 140.000
37.64000 142.000
37.65500 134.000
37.67000 129.000
37.68500 141.000
37.70000 138.000
37.71500 134.000
37.73000 145.000
37.74500 136.000
37.76000 147.000
37.77500 128.000
37.79000 147.000
37.80500 150.000
37.82000 142.000
37.83500 136.000
37.85000 153.000
37.86500 135.000
37.88000 131.000
37.89500 145.000
37.91000 134.000
37.92500 144.000
37.94000 134.000
37.95500 151.000
37.97000 152.000
37.98500 140.000
38.00000 130.000
38.01500 139.000
38.03000 119.000
38.04500 138.000
38.06000 126.000
38.07500 126.000
38.09000 129.000
38.10500 130.000
38.12000 127.000
38.13500 120.000
38.15000 134.000
38.16500 150.000
38.18000 128.000
38.19500 149.000
38.21000 138.000
38.22500 135.000
38.24000 140.000
38.25500 121.000
38.27000 126.000
38.28500 131.000
38.30000 132.000
38.31500 139.000
38.33000 146.000
38.34500 116.000
38.36000 114.000
38.37500 125.000
38.39000 142.000
38.40500 140.000
38.42000 133.000
38.43500 135.000
38.45000 131.000
38.46500 140.000
38.48000 145.000
38.49500 129.000
38.51000 134.000
38.52500 135.000
38.54000 144.000
38.55500 150.000
38.57000 148.000
38.58500 146.000
38.60000 131.000
38.61500 133.000
38.63000 153.000
38.64500 133.000
38.66000 122.000
38.67500 125.000
38.69000 135.000
38.70500 125.000
38.72000 140.000
38.73500 155.000
38.75000 144.000
38.76500 141.000
38.78000 141.000
38.79500 144.000
38.81000 139.000
38.82500 132.000
38.84000 131.000
38.85500 145.000
38.87000 147.000
38.88500 133.000
38.90000 122.000
38.91500 132.000
38.93000 146.000
38.94500 136.000
38.96000 149.000
38.97500 130.000
38.99000 128.000
39.00500 136.000
39.02000 117.000
39.03500 131.000
39.05000 129.000
39.06500 127.000
39.08000 133.000
39.09500 134.000
39.11000 141.000
39.12500 142.000
39.14000 158.000
39.15500 134.000
39.17000 122.000
39.18500 124.000
39.20000 122.000
39.21500 132.000
39.23000 134.000
39.24500 146.000
39.26000 150.000
39.27500 137.000
39.29000 131.000
39.30500 130.000
39.32000 138.000
39.33500 140.000
39.35000 131.000
39.36500 121.000
39.38000 131.000
39.39500 125.000
39.41000 145.000
39.42500 142.000
39.44000 136.000
39.45500 140.000
39.47000 139.000
39.48500 149.000
39.50000 134.000
39.51500 137.000
39.53000 142.000
39.54500 144.000
39.56000 142.000
39.57500 147.000
39.59000 170.000
39.60500 153.000
39.62000 142.000
39.63500 171.000
39.65000 156.000
39.66500 146.000
39.68000 155.000
39.69500 155.000
39.71000 137.000
39.72500 145.000
39.74000 151.000
39.75500 148.000
39.77000 170.000
39.78500 150.000
39.80000 138.000
39.81500 148.000
39.83000 159.000
39.84500 188.000
39.86000 186.000
39.87500 172.000
39.89000 172.000
39.90500 154.000
39.92000 163.000
39.93500 148.000
39.95000 136.000
39.96500 160.000
39.98000 158.000
39.99500 149.000
40.01000 141.000
40.02500 146.000
40.04000 141.000
40.05500 149.000
40.07000 130.000
40.08500 158.000
40.10000 146.000
40.11500 154.000
40.13000 138.000
40.14500 138.000
40.16000 155.000
40.17500 157.000
40.19000 147.000
40.20500 149.000
40.22000 154.000
40.23500 156.000
40.25000 163.000
40.26500 158.000
40.28000 159.000
40.29500 156.000
40.31000 165.000
40.32500 153.000
40.34000 161.000
40.35500 136.000
40.37000 149.000
40.38500 141.000
40.40000 146.000
40.41500 149.000
40.43000 142.000
40.44500 150.000
40.46000 129.000
40.47500 125.000
40.49000 155.000
40.50500 154.000
40.52000 139.000
40.53500 142.000
40.55000 147.000
40.56500 144.000
40.58000 141.000
40.59500 135.000
40.61000 149.000
40.62500 133.000
40.64000 143.000
40.65500 142.000
40.67000 154.000
40.68500 151.000
40.70000 145.000
40.71500 148.000
40.73000 129.000
40.74500 126.000
40.76000 128.000
40.77500 142.000
40.79000 140.000
40.80500 145.000
40.82000 147.000
40.83500 154.000
40.85000 139.000
40.86500 153.000
40.88000 159.000
40.89500 161.000
40.91000 151.000
40.92500 158.000
40.94000 174.000
40.95500 135.000
40.97000 155.000
40.98500 161.000
41.00000 154.000
41.01500 158.000
41.03000 155.000
41.04500 148.000
41.06000 131.000
41.07500 151.000
41.09000 154.000
41.10500 153.000
41.12000 159.000
41.13500 137.000
41.15000 148.000
41.16500 150.000
41.18000 134.000
41.19500 141.000
41.21000 143.000
41.22500 147.000
41.24000 137.000
41.25500 151.000
41.27000 155.000
41.28500 162.000
41.30000 152.000
41.31500 151.000
41.33000 161.000
41.34500 162.000
41.36000 163.000
41.37500 160.000
41.39000 153.000
41.40500 134.000
41.42000 147.000
41.43500 144.000
41.45000 151.000
41.46500 136.000
41.48000 141.000
41.49500 143.000
41.51000 137.000
41.52500 128.000
41.54000 143.000
41.55500 127.000
41.57000 136.000
41.58500 152.000
41.60000 142.000
41.61500 140.000
41.63000 155.000
41.64500 139.000
41.66000 139.000
41.67500 126.000
41.69000 137.000
41.70500 140.000
41.72000 134.000
41.73500 135.000
41.75000 136.000
41.76500 138.000
41.78000 118.000
41.79500 139.000
41.81000 145.000
41.82500 123.000
41.84000 143.000
41.85500 151.000
41.87000 137.000
41.88500 152.000
41.90000 152.000
41.91500 153.000
41.93000 148.000
41.94500 149.000
41.96000 155.000
41.97500 158.000
41.99000 155.000
42.00500 158.000
42.02000 153.000
42.03500 147.000
42.05000 141.000
42.06500 149.000
42.08000 149.000
42.09500 144.000
42.11000 134.000
42.12500 143.000
42.14000 125.000
42.15500 126.000
42.17000 138.000
42.18500 152.000
42.20000 149.000
42.21500 151.000
42.23000 141.000
42.24500 127.000
42.26000 133.000
42.27500 131.000
42.29000 137.000
42.30500 138.000
42.32000 126.000
42.33500 130.000
42.35000 139.000
42.36500 126.000
42.38000 124.000
42.39500 138.000
42.41000 144.000
42.42500 140.000
42.44000 144.000
42.45500 113.000
42.47000 135.000
42.48500 134.000
42.50000 112.000
42.51500 139.000
42.53000 132.000
42.54500 135.000
42.56000 146.000
42.57500 140.000
42.59000 136.000
42.60500 132.000
42.62000 137.000
42.63500 152.000
42.65000 144.000
42.66500 150.000
42.68000 125.000
42.69500 123.000
42.71000 127.000
42.72500 129.000
42.74000 114.000
42.75500 139.000
42.77000 140.000
42.78500 131.000
42.80000 136.000
42.81500 133.000
42.83000 131.000
42.84500 134.000
42.86000 127.000
42.87500 129.000
42.89000 131.000
42.90500 117.000
42.92000 125.000
42.93500 137.000
42.95000 148.000
42.96500 143.000
42.98000 126.000
42.99500 135.000
43.01000 160.000
43.02500 155.000
43.04000 137.000
43.05500 149.000
43.07000 141.000
43.08500 143.000
43.10000 134.000
43.11500 141.000
43.13000 126.000
43.14500 121.000
43.16000 148.000
43.17500 121.000
43.19000 126.000
43.20500 133.000
43.22000 126.000
43.23500 131.000
43.25000 132.000
43.26500 114.000
43.28000 141.000
43.29500 138.000
43.31000 130.000
43.32500 134.000
43.34000 136.000
43.35500 146.000
43.37000 140.000
43.38500 128.000
43.40000 144.000
43.41500 133.000
43.43000 135.000
43.44500 137.000
43.46000 135.000
43.47500 145.000
43.49000 126.000
43.50500 116.000
43.52000 116.000
43.53500 123.000
43.55000 131.000
43.56500 128.000
43.58000 138.000
43.59500 129.000
43.61000 125.000
43.62500 124.000
43.64000 134.000
43.65500 123.000
43.67000 112.000
43.68500 118.000
43.70000 116.000
43.71500 112.000
43.73000 113.000
43.74500 115.000
43.76000 127.000
43.77500 117.000
43.79000 107.000
43.80500 120.000
43.82000 122.000
43.83500 116.000
43.85000 125.000
43.86500 134.000
43.88000 120.000
43.89500 115.000
43.91000 127.000
43.92500 128.000
43.94000 113.000
43.95500 133.000
43.97000 131.000
43.98500 105.000
44.00000 130.000
44.01500 142.000
44.03000 135.000
44.04500 128.000
44.06000 119.000
44.07500 135.000
44.09000 137.000
44.10500 117.000
44.12000 126.000
44.13500 132.000
44.15000 134.000
44.16500 121.000
44.18000 125.000
44.19500 121.000
44.21000 117.000
44.22500 126.000
44.24000 124.000
44.25500 128.000
44.27000 119.000
44.28500 121.000
44.30000 124.000
44.31500 126.000
44.33000 114.000
44.34500 123.000
44.36000 123.000
44.37500 118.000
44.39000 115.000
44.40500 133.000
44.42000 126.000
44.43500 105.000
44.45000 106.000
44.46500 94.000
44.48000 115.000
44.49500 115.000
44.51000 118.000
44.52500 111.000
44.54000 122.000
44.55500 114.000
44.57000 105.000
44.58500 129.000
44.60000 136.000
44.61500 130.000
44.63000 127.000
44.64500 117.000
44.66000 128.000
44.67500 132.000
44.69000 125.000
44.70500 146.000
44.72000 126.000
44.73500 118.000
44.75000 128.000
44.76500 116.000
44.78000 136.000
44.79500 136.000
44.81000 149.000
44.82500 123.000
44.84000 118.000
44.85500 117.000
44.87000 121.000
44.88500 124.000
44.90000 139.000
44.91500 136.000
44.93000 117.000
44.94500 118.000
44.96000 139.000
44.97500 131.000
44.99000 117.000
45.00500 112.000
45.02000 131.000
45.03500 139.000
45.05000 122.000
45.06500 123.000
45.08000 124.000
45.09500 134.000
45.11000 147.000
45.12500 135.000
45.14000 125.000
45.15500 114.000
45.17000 116.000
45.18500 111.000
45.20000 108.000
45.21500 141.000
45.23000 137.000
45.24500 134.000
45.26000 104.000
45.27500 117.000
45.29000 134.000
45.30500 128.000
45.32000 143.000
45.33500 135.000
45.35000 139.000
45.36500 135.000
45.38000 135.000
45.39500 140.000
45.41000 133.000
45.42500 126.000
45.44000 145.000
45.45500 122.000
45.47000 126.000
45.48500 135.000
45.50000 141.000
45.51500 125.000
45.53000 128.000
45.54500 139.000
45.56000 131.000
45.57500 138.000
45.59000 150.000
45.60500 141.000
45.62000 135.000
45.63500 141.000
45.65000 152.000
45.66500 131.000
45.68000 141.000
45.69500 148.000
45.71000 152.000
45.72500 149.000
45.74000 149.000
45.75500 165.000
45.77000 140.000
45.78500 145.000
45.80000 136.000
45.81500 132.000
45.83000 128.000
45.84500 141.000
45.86000 136.000
45.87500 137.000
45.89000 125.000
45.90500 114.000
45.92000 117.000
45.93500 127.000
45.95000 122.000
45.96500 118.000
45.98000 117.000
45.99500 122.000
46.01000 120.000
46.02500 126.000
46.04000 117.000
46.05500 140.000
46.07000 131.000
46.08500 141.000
46.10000 131.000
46.11500 113.000
46.13000 124.000
46.14500 134.000
46.16000 123.000
46.17500 111.000
46.19000 132.000
46.20500 130.000
46.22000 132.000
46.23500 130.000
46.25000 132.000
46.26500 124.000
46.28000 129.000
46.29500 122.000
46.31000 127.000
46.32500 132.000
46.34000 134.000
46.35500 122.000
46.37000 119.000
46.38500 134.000
46.40000 134.000
46.41500 117.000
46.43000 118.000
46.44500 124.000
46.46000 122.000
46.47500 125.000
46.49000 131.000
46.50500 126.000
46.52000 141.000
46.53500 123.000
46.55000 118.000
46.56500 127.000
46.58000 116.000
46.59500 105.000
46.61000 129.000
46.62500 124.000
46.64000 119.000
46.65500 119.000
46.67000 120.000
46.68500 115.000
46.70000 121.000
46.71500 128.000
46.73000 126.000
46.74500 117.000
46.76000 116.000
46.77500 115.000
46.79000 126.000
46.80500 122.000
46.82000 103.000
46.83500 122.000
46.85000 122.000
46.86500 112.000
46.88000 126.000
46.89500 138.000
46.91000 134.000
46.92500 137.000
46.94000 131.000
46.95500 112.000
46.97000 131.000
46.98500 124.000
47.00000 114.000
47.01500 109.000
47.03000 112.000
47.04500 127.000
47.06000 144.000
47.07500 119.000
47.09000 110.000
47.10500 115.000
47.12000 115.000
47.13500 120.000
47.15000 121.000
47.16500 105.000
47.18000 130.000
47.19500 125.000
47.21000 122.000
47.22500 105.000
47.24000 106.000
47.25500 108.000
47.27000 116.000
47.28500 131.000
47.30000 119.000
47.31500 114.000
47.33000 112.000
47.34500 130.000
47.36000 122.000
47.37500 123.000
47.39000 101.000
47.40500 115.000
47.42000 119.000
47.43500 109.000
47.45000 114.000
47.46500 124.000
47.48000 112.000
47.49500 115.000
47.51000 107.000
47.52500 113.000
47.54000 125.000
47.55500 124.000
47.57000 111.000
47.58500 123.000
47.60000 127.000
47.61500 101.000
47.63000 116.000
47.64500 119.000
47.66000 118.000
47.67500 117.000
47.69000 106.000
47.70500 107.000
47.72000 111.000
47.73500 111.000
47.75000 119.000
47.76500 117.000
47.78000 133.000
47.79500 110.000
47.81000 113.000
47.82500 119.000
47.84000 121.000
47.85500 126.000
47.87000 127.000
47.88500 118.000
47.90000 127.000
47.91500 122.000
47.93000 135.000
47.94500 124.000
47.96000 122.000
47.97500 138.000
47.99000 119.000
48.00500 104.000
48.02000 113.000
48.03500 112.000
48.05000 124.000
48.06500 121.000
48.08000 105.000
48.09500 105.000
48.11000 128.000
48.12500 128.000
48.14000 140.000
48.15500 113.000
48.17000 117.000
48.18500 111.000
48.20000 109.000
48.21500 125.000
48.23000 110.000
48.24500 111.000
48.26000 114.000
48.27500 123.000
48.29000 126.000
48.30500 121.000
48.32000 108.000
48.33500 111.000
48.35000 118.000
48.36500 104.000
48.38000 119.000
48.39500 127.000
48.41000 129.000
48.42500 114.000
48.44000 99.000
48.45500 113.000
48.47000 100.000
48.48500 116.000
48.50000 122.000
48.51500 117.000
48.53000 115.000
48.54500 109.000
48.56000 100.000
48.57500 110.000
48.59000 116.000
48.60500 111.000
48.62000 116.000
48.63500 110.000
48.65000 109.000
48.66500 121.000
48.68000 126.000
48.69500 140.000
48.71000 134.000
48.72500 124.000
48.74000 115.000
48.75500 112.000
48.77000 102.000
48.78500 132.000
48.80000 125.000
48.81500 107.000
48.83000 109.000
48.84500 108.000
48.86000 120.000
48.87500 118.000
48.89000 114.000
48.90500 102.000
48.92000 109.000
48.93500 101.000
48.95000 107.000
48.96500 102.000
48.98000 98.000
48.99500 111.000
49.01000 117.000
49.02500 106.000
49.04000 107.000
49.05500 114.000
49.07000 110.000
49.08500 108.000
49.10000 88.000
49.11500 93.000
49.13000 104.000
49.14500 111.000
49.16000 115.000
49.17500 101.000
49.19000 106.000
49.20500 112.000
49.22000 89.000
49.23500 115.000
49.25000 113.000
49.26500 110.000
49.28000 107.000
49.29500 91.000
49.31000 98.000
49.32500 104.000
49.34000 116.000
49.35500 123.000
49.37000 114.000
49.38500 118.000
49.40000 108.000
49.41500 105.000
49.43000 100.000
49.44500 108.000
49.46000 125.000
49.47500 122.000
49.49000 117.000
49.50500 101.000
49.52000 85.000
49.53500 103.000
49.55000 111.000
49.56500 91.000
49.58000 119.000
49.59500 116.000
49.61000 105.000
49.62500 116.000
49.64000 96.000
49.65500 100.000
49.67000 107.000
49.68500 115.000
49.70000 118.000
49.71500 122.000
49.73000 111.000
49.74500 94.000
49.76000 115.000
49.77500 109.000
49.79000 94.000
49.80500 110.000
49.82000 115.000
49.83500 100.000
49.85000 113.000
49.86500 104.000
49.88000 108.000
49.89500 104.000
49.91000 111.000
49.92500 104.000
49.94000 90.000
49.95500 95.000
49.97000 97.000
49.98500 101.000
50.00000 102.000
50.01500 111.000
50.03000 105.000
50.04500 108.000
50.06000 108.000
50.07500 114.000
50.09000 94.000
50.10500 104.000
50.12000 111.000
50.13500 113.000
50.15000 104.000
50.16500 110.000
50.18000 96.000
50.19500 92.000
50.21000 106.000
50.22500 117.000
50.24000 96.000
50.25500 99.000
50.27000 75.000
50.28500 88.000
50.30000 90.000
50.31500 87.000
50.33000 112.000
50.34500 107.000
50.36000 112.000
50.37500 91.000
50.39000 95.000
50.40500 109.000
50.42000 121.000
50.43500 101.000
50.45000 109.000
50.46500 101.000
50.48000 89.000
50.49500 101.000
50.51000 106.000
50.52500 117.000
50.54000 102.000
50.55500 117.000
50.57000 105.000
50.58500 106.000
50.60000 103.000
50.61500 97.000
50.63000 108.000
50.64500 91.000
50.66000 96.000
50.67500 106.000
50.69000 105.000
50.70500 101.000
50.72000 92.000
50.73500 102.000
50.75000 105.000
50.76500 95.000
50.78000 86.000
50.79500 109.000
50.81000 113.000
50.82500 106.000
50.84000 113.000
50.85500 108.000
50.87000 104.000
50.88500 92.000
50.90000 107.000
50.91500 106.000
50.93000 100.000
50.94500 111.000
50.96000 116.000
50.97500 92.000
50.99000 104.000
51.00500 100.000
51.02000 90.000
51.03500 107.000
51.05000 99.000
51.06500 94.000
51.08000 93.000
51.09500 116.000
51.11000 101.000
51.12500 118.000
51.14000 110.000
51.15500 118.000
51.17000 111.000
51.18500 107.000
51.20000 100.000
51.21500 110.000
51.23000 130.000
51.24500 107.000
51.26000 82.000
51.27500 108.000
51.29000 105.000
51.30500 111.000
51.32000 118.000
51.33500 111.000
51.35000 113.000
51.36500 124.000
51.38000 126.000
51.39500 114.000
51.41000 117.000
51.42500 108.000
51.44000 99.000
51.45500 111.000
51.47000 116.000
51.48500 112.000
51.50000 100.000
51.51500 85.000
51.53000 98.000
51.54500 112.000
51.56000 101.000
51.57500 115.000
51.59000 95.000
51.60500 114.000
51.62000 105.000
51.63500 103.000
51.65000 105.000
51.66500 126.000
51.68000 139.000
51.69500 113.000
51.71000 93.000
51.72500 115.000
51.74000 123.000
51.75500 113.000
51.77000 102.000
51.78500 112.000
51.80000 116.000
51.81500 105.000
51.83000 96.000
51.84500 111.000
51.86000 112.000
51.87500 136.000
51.89000 120.000
51.90500 105.000
51.92000 103.000
51.93500 109.000
51.95000 106.000
51.96500 111.000
51.98000 95.000
51.99500 107.000
52.01000 103.000
52.02500 98.000
52.04000 91.000
52.05500 108.000
52.07000 99.000
52.08500 101.000
52.10000 106.000
52.11500 108.000
52.13000 104.000
52.14500 97.000
52.16000 93.000
52.17500 96.000
52.19000 109.000
52.20500 114.000
52.22000 97.000
52.23500 114.000
52.25000 97.000
52.26500 92.000
52.28000 107.000
52.29500 109.000
52.31000 108.000
52.32500 113.000
52.34000 120.000
52.35500 108.000
52.37000 107.000
52.38500 105.000
52.40000 98.000
52.41500 97.000
52.43000 107.000
52.44500 120.000
52.46000 108.000
52.47500 112.000
52.49000 121.000
52.50500 123.000
52.52000 116.000
52.53500 112.000
52.55000 96.000
52.56500 113.000
52.58000 116.000
52.59500 114.000
52.61000 99.000
52.62500 121.000
52.64000 117.000
52.65500 99.000
52.67000 97.000
52.68500 93.000
52.70000 108.000
52.71500 112.000
52.73000 112.000
52.74500 110.000
52.76000 115.000
52.77500 105.000
52.79000 96.000
52.80500 102.000
52.82000 106.000
52.83500 106.000
52.85000 102.000
52.86500 99.000
52.88000 102.000
52.89500 106.000
52.91000 113.000
52.92500 95.000
52.94000 99.000
52.95500 112.000
52.97000 116.000
52.98500 102.000
53.00000 101.000
53.01500 112.000
53.03000 97.000
53.04500 113.000
53.06000 120.000
53.07500 128.000
53.09000 123.000
53.10500 92.000
53.12000 118.000
53.13500 115.000
53.15000 115.000
53.16500 119.000
53.18000 115.000
53.19500 115.000
53.21000 114.000
53.22500 115.000
53.24000 114.000
53.25500 124.000
53.27000 114.000
53.28500 134.000
53.30000 110.000
53.31500 110.000
53.33000 112.000
53.34500 110.000
53.36000 115.000
53.37500 109.000
53.39000 111.000
53.40500 98.000
53.42000 109.000
53.43500 98.000
53.45000 101.000
53.46500 105.000
53.48000 116.000
53.49500 111.000
53.51000 112.000
53.52500 113.000
53.54000 103.000
53.55500 99.000
53.57000 122.000
53.58500 110.000
53.60000 126.000
53.61500 120.000
53.63000 117.000
53.64500 105.000
53.66000 110.000
53.67500 107.000
53.69000 97.000
53.70500 91.000
53.72000 105.000
53.73500 102.000
53.75000 107.000
53.76500 105.000
53.78000 122.000
53.79500 128.000
53.81000 106.000
53.82500 111.000
53.84000 103.000
53.85500 131.000
53.87000 128.000
53.88500 115.000
53.90000 118.000
53.91500 117.000
53.93000 115.000
53.94500 98.000
53.96000 89.000
53.97500 105.000
53.99000 108.000
54.00500 103.000
54.02000 113.000
54.03500 110.000
54.05000 105.000
54.06500 107.000
54.08000 104.000
54.09500 108.000
54.11000 100.000
54.12500 92.000
54.14000 109.000
54.15500 111.000
54.17000 121.000
54.18500 113.000
54.20000 93.000
54.21500 104.000
54.23000 106.000
54.24500 98.000
54.26000 121.000
54.27500 113.000
54.29000 112.000
54.30500 97.000
54.32000 116.000
54.33500 101.000
54.35000 108.000
54.36500 108.000
54.38000 111.000
54.39500 109.000
54.41000 121.000
54.42500 115.000
54.44000 106.000
54.45500 86.000
54.47000 107.000
54.48500 114.000
54.50000 97.000
54.51500 105.000
54.53000 103.000
54.54500 119.000
54.56000 117.000
54.57500 97.000
54.59000 112.000
54.60500 113.000
54.62000 110.000
54.63500 108.000
54.65000 112.000
54.66500 130.000
54.68000 134.000
54.69500 104.000
54.71000 119.000
54.72500 131.000
54.74000 107.000
54.75500 93.000
54.77000 103.000
54.78500 118.000
54.80000 108.000
54.81500 120.000
54.83000 123.000
54.84500 111.000
54.86000 110.000
54.87500 94.000
54.89000 103.000
54.90500 118.000
54.92000 116.000
54.93500 119.000
54.95000 110.000
54.96500 105.000
54.98000 102.000
54.99500 109.000
55.01000 100.000
55.02500 105.000
55.04000 100.000
55.05500 104.000
55.07000 109.000
55.08500 112.000
55.10000 114.000
55.11500 101.000
55.13000 94.000
55.14500 104.000
55.16000 109.000
55.17500 94.000
55.19000 100.000
55.20500 93.000
55.22000 106.000
55.23500 112.000
55.25000 107.000
55.26500 113.000
55.28000 95.000
55.29500 90.000
55.31000 84.000
55.32500 103.000
55.34000 97.000
55.35500 97.000
55.37000 94.000
55.38500 97.000
55.40000 109.000
55.41500 92.000
55.43000 91.000
55.44500 100.000
55.46000 93.000
55.47500 102.000
55.49000 108.000
55.50500 105.000
55.52000 106.000
55.53500 104.000
55.55000 93.000
55.56500 81.000
55.58000 97.000
55.59500 109.000
55.61000 104.000
55.62500 110.000
55.64000 103.000
55.65500 91.000
55.67000 90.000
55.68500 103.000
55.70000 104.000
55.71500 89.000
55.73000 112.000
55.74500 112.000
55.76000 97.000
55.77500 89.000
55.79000 89.000
55.80500 95.000
55.82000 109.000
55.83500 120.000
55.85000 103.000
55.86500 92.000
55.88000 104.000
55.89500 105.000
55.91000 122.000
55.92500 113.000
55.94000 111.000
55.95500 114.000
55.97000 118.000
55.98500 103.000
56.00000 104.000
56.01500 98.000
56.03000 89.000
56.04500 99.000
56.06000 111.000
56.07500 101.000
56.09000 109.000
56.10500 96.000
56.12000 100.000
56.13500 112.000
56.15000 108.000
56.16500 115.000
56.18000 95.000
56.19500 108.000
56.21000 100.000
56.22500 91.000
56.24000 85.000
56.25500 95.000
56.27000 103.000
56.28500 111.000
56.30000 104.000
56.31500 105.000
56.33000 103.000
56.34500 95.000
56.36000 90.000
56.37500 99.000
56.39000 103.000
56.40500 120.000
56.42000 111.000
56.43500 95.000
56.45000 100.000
56.46500 115.000
56.48000 98.000
56.49500 97.000
56.51000 77.000
56.52500 89.000
56.54000 89.000
56.55500 81.000
56.57000 100.000
56.58500 117.000
56.60000 96.000
56.61500 88.000
56.63000 101.000
56.64500 102.000
56.66000 94.000
56.67500 94.000
56.69000 82.000
56.70500 100.000
56.72000 81.000
56.73500 86.000
56.75000 96.000
56.76500 95.000
56.78000 93.000
56.79500 76.000
56.81000 103.000
56.82500 108.000
56.84000 102.000
56.85500 102.000
56.87000 94.000
56.88500 93.000
56.90000 105.000
56.91500 100.000
56.93000 105.000
56.94500 93.000
56.96000 93.000
56.97500 101.000
56.99000 89.000
57.00500 99.000
57.02000 92.000
57.03500 90.000
57.05000 98.000
57.06500 92.000
57.08000 102.000
57.09500 98.000
57.11000 84.000
57.12500 93.000
57.14000 93.000
57.15500 98.000
57.17000 110.000
57.18500 88.000
57.20000 83.000
57.21500 92.000
57.23000 98.000
57.24500 88.000
57.26000 87.000
57.27500 96.000
57.29000 84.000
57.30500 73.000
57.32000 85.000
57.33500 83.000
57.35000 82.000
57.36500 95.000
57.38000 91.000
57.39500 84.000
57.41000 81.000
57.42500 80.000
57.44000 94.000
57.45500 100.000
57.47000 92.000
57.48500 82.000
57.50000 69.000
57.51500 80.000
57.53000 94.000
57.54500 94.000
57.56000 93.000
57.57500 103.000
57.59000 94.000
57.60500 93.000
57.62000 88.000
57.63500 81.000
57.65000 100.000
57.66500 91.000
57.68000 98.000
57.69500 91.000
57.71000 98.000
57.72500 86.000
57.74000 99.000
57.75500 102.000
57.77000 94.000
57.78500 90.000
57.80000 92.000
57.81500 84.000
57.83000 92.000
57.84500 90.000
57.86000 94.000
57.87500 92.000
57.89000 98.000
57.90500 83.000
57.92000 100.000
57.93500 87.000
57.95000 91.000
57.96500 94.000
57.98000 88.000
57.99500 86.000
58.01000 86.000
58.02500 100.000
58.04000 94.000
58.05500 111.000
58.07000 106.000
58.08500 107.000
58.10000 95.000
58.11500 96.000
58.13000 106.000
58.14500 96.000
58.16000 97.000
58.17500 86.000
58.19000 79.000
58.20500 87.000
58.22000 91.000
58.23500 95.000
58.25000 102.000
58.26500 94.000
58.28000 94.000
58.29500 76.000
58.31000 91.000
58.32500 89.000
58.34000 86.000
58.35500 98.000
58.37000 86.000
58.38500 78.000
58.40000 83.000
58.41500 79.000
58.43000 80.000
58.44500 86.000
58.46000 86.000
58.47500 90.000
58.49000 74.000
58.50500 82.000
58.52000 89.000
58.53500 100.000
58.55000 86.000
58.56500 91.000
58.58000 89.000
58.59500 95.000
58.61000 95.000
58.62500 85.000
58.64000 97.000
58.65500 92.000
58.67000 88.000
58.68500 84.000
58.70000 91.000
58.71500 99.000
58.73000 110.000
58.74500 91.000
58.76000 98.000
58.77500 80.000
58.79000 82.000
58.80500 84.000
58.82000 78.000
58.83500 86.000
58.85000 97.000
58.86500 90.000
58.88000 93.000
58.89500 89.000
58.91000 83.000
58.92500 79.000
58.94000 93.000
58.95500 87.000
58.97000 101.000
58.98500 97.000
59.00000 86.000
59.01500 95.000
59.03000 110.000
59.04500 88.000
59.06000 93.000
59.07500 88.000
59.09000 89.000
59.10500 83.000
59.12000 95.000
59.13500 73.000
59.15000 92.000
59.16500 96.000
59.18000 94.000
59.19500 81.000
59.21000 95.000
59.22500 75.000
59.24000 104.000
59.25500 86.000
59.27000 88.000
59.28500 89.000
59.30000 93.000
59.31500 97.000
59.33000 88.000
59.34500 104.000
59.36000 103.000
59.37500 99.000
59.39000 116.000
59.40500 99.000
59.42000 91.000
59.43500 92.000
59.45000 87.000
59.46500 83.000
59.48000 96.000
59.49500 94.000
59.51000 94.000
59.52500 101.000
59.54000 89.000
59.55500 85.000
59.57000 96.000
59.58500 92.000
59.60000 86.000
59.61500 86.000
59.63000 84.000
59.64500 82.000
59.66000 94.000
59.67500 95.000
59.69000 98.000
59.70500 102.000
59.72000 92.000
59.73500 89.000
59.75000 98.000
59.76500 92.000
59.78000 94.000
59.79500 98.000
59.81000 91.000
59.82500 94.000
59.84000 92.000
59.85500 99.000
59.87000 100.000
59.88500 89.000
59.90000 99.000
59.91500 82.000
59.93000 89.000
59.94500 73.000
59.96000 95.000
59.97500 76.000
59.99000 80.000
60.00500 94.000
60.02000 104.000
60.03500 93.000
60.05000 91.000
60.06500 92.000
60.08000 79.000
60.09500 76.000
60.11000 87.000
60.12500 83.000
60.14000 84.000
60.15500 84.000
60.17000 86.000
60.18500 84.000
60.20000 83.000
60.21500 82.000
60.23000 91.000
60.24500 92.000
60.26000 93.000
60.27500 82.000
60.29000 86.000
60.30500 92.000
60.32000 82.000
60.33500 73.000
60.35000 85.000
60.36500 85.000
60.38000 86.000
60.39500 98.000
60.41000 82.000
60.42500 77.000
60.44000 94.000
60.45500 99.000
60.47000 94.000
60.48500 72.000
60.50000 80.000
60.51500 71.000
60.53000 91.000
60.54500 91.000
60.56000 68.000
60.57500 75.000
60.59000 82.000
60.60500 79.000
60.62000 81.000
60.63500 83.000
60.65000 74.000
60.66500 71.000
60.68000 87.000
60.69500 83.000
60.71000 96.000
60.72500 81.000
60.74000 87.000
60.75500 89.000
60.77000 80.000
60.78500 83.000
60.80000 77.000
60.81500 82.000
60.83000 84.000
60.84500 78.000
60.86000 79.000
60.87500 79.000
60.89000 84.000
60.90500 87.000
60.92000 76.000
60.93500 98.000
60.95000 96.000
60.96500 83.000
60.98000 88.000
60.99500 93.000
61.01000 91.000
61.02500 79.000
61.04000 76.000
61.05500 79.000
61.07000 81.000
61.08500 87.000
61.10000 101.000
61.11500 90.000
61.13000 75.000
61.14500 83.000
61.16000 80.000
61.17500 74.000
61.19000 93.000
61.20500 80.000
61.22000 68.000
61.23500 80.000
61.25000 79.000
61.26500 87.000
61.28000 88.000
61.29500 92.000
61.31000 91.000
61.32500 81.000
61.34000 89.000
61.35500 85.000
61.37000 88.000
61.38500 96.000
61.40000 82.000
61.41500 78.000
61.43000 86.000
61.44500 87.000
61.46000 77.000
61.47500 71.000
61.49000 81.000
61.50500 68.000
61.52000 70.000
61.53500 63.000
61.55000 76.000
61.56500 75.000
61.58000 81.000
61.59500 82.000
61.61000 61.000
61.62500 77.000
61.64000 78.000
61.65500 79.000
61.67000 84.000
61.68500 80.000
61.70000 87.000
61.71500 83.000
61.73000 76.000
61.74500 77.000
61.76000 81.000
61.77500 74.000
61.79000 82.000
61.80500 75.000
61.82000 80.000
61.83500 84.000
61.85000 83.000
61.86500 93.000
61.88000 73.000
61.89500 74.000
61.91000 66.000
61.92500 82.000
61.94000 94.000
61.95500 82.000
61.97000 82.000
61.98500 85.000
