2.00000 712.000
2.01500 685.000
2.03000 693.000
2.04500 683.000
2.06000 644.000
2.07500 646.000
2.09000 637.000
2.10500 635.000
2.12000 628.000
2.13500 609.000
2.15000 588.000
2.16500 605.000
2.18000 574.000
2.19500 539.000
2.21000 576.000
2.22500 576.000
2.24000 530.000
2.25500 486.000
2.27000 483.000
2.28500 487.000
2.30000 504.000
2.31500 486.000
2.33000 462.000
2.34500 462.000
2.36000 431.000
2.37500 442.000
2.39000 417.000
2.40500 416.000
2.42000 423.000
2.43500 393.000
2.45000 417.000
2.46500 400.000
2.48000 400.000
2.49500 403.000
2.51000 380.000
2.52500 387.000
2.54000 358.000
2.55500 356.000
2.57000 373.000
2.58500 370.000
2.60000 349.000
2.61500 360.000
2.63000 340.000
2.64500 352.000
2.66000 359.000
2.67500 357.000
2.69000 352.000
2.70500 302.000
2.72000 306.000
2.73500 302.000
2.75000 303.000
2.76500 306.000
2.78000 304.000
2.79500 300.000
2.81000 293.000
2.82500 322.000
2.84000 303.000
2.85500 291.000
2.87000 300.000
2.88500 318.000
2.90000 295.000
2.91500 303.000
2.93000 311.000
2.94500 275.000
2.96000 282.000
2.97500 263.000
2.99000 258.000
3.00500 258.000
3.02000 275.000
3.03500 267.000
3.05000 251.000
3.06500 267.000
3.08000 272.000
3.09500 263.000
3.11000 254.000
3.12500 260.000
3.14000 227.000
3.15500 253.000
3.17000 243.000
3.18500 233.000
3.20000 201.000
3.21500 236.000
3.23000 227.000
3.24500 233.000
3.26000 225.000
3.27500 224.000
3.29000 230.000
3.30500 227.000
3.32000 217.000
3.33500 222.000
3.35000 243.000
3.36500 224.000
3.38000 213.000
3.39500 216.000
3.41000 218.000
3.42500 202.000
3.44000 194.000
3.45500 209.000
3.47000 215.000
3.48500 206.000
3.50000 217.000
3.51500 217.000
3.53000 224.000
3.54500 207.000
3.56000 213.000
3.57500 197.000
3.59000 192.000
3.60500 206.000
3.62000 196.000
3.63500 194.000
3.65000 198.000
3.66500 207.000
3.68000 204.000
3.69500 197.000
3.71000 214.000
3.72500 206.000
3.74000 205.000
3.75500 204.000
3.77000 202.000
3.78500 200.000
3.80000 188.000
3.81500 183.000
3.83000 206.000
3.84500 197.000
3.86000 180.000
3.87500 160.000
3.89000 197.000
3.90500 209.000
3.92000 190.000
3.93500 197.000
3.95000 189.000
3.96500 162.000
3.98000 170.000
3.99500 187.000
4.01000 176.000
4.02500 185.000
4.04000 200.000
4.05500 188.000
4.07000 177.000
4.08500 162.000
4.10000 194.000
4.11500 181.000
4.13000 166.000
4.14500 196.000
4.16000 208.000
4.17500 180.000
4.19000 192.000
4.20500 196.000
4.22000 177.000
4.23500 193.000
4.25000 190.000
4.26500 197.000
4.28000 199.000
4.29500 181.000
4.31000 172.000
4.32500 181.000
4.34000 194.000
4.35500 203.000
4.37000 185.000
4.38500 186.000
4.40000 182.000
4.41500 177.000
4.43000 189.000
4.44500 178.000
4.46000 182.000
4.47500 176.000
4.49000 192.000
4.50500 178.000
4.52000 176.000
4.53500 173.000
4.55000 190.000
4.56500 194.000
4.58000 194.000
4.59500 186.000
4.61000 177.000
4.62500 186.000
4.64000 172.000
4.65500 150.000
4.67000 179.000
4.68500 171.000
4.70000 149.000
4.71500 167.000
4.73000 172.000
4.74500 159.000
4.76000 177.000
4.77500 166.000
4.79000 164.000
4.80500 167.000
4.82000 198.000
4.83500 170.000
4.85000 185.000
4.86500 172.000
4.88000 169.000
4.89500 173.000
4.91000 167.000
4.92500 165.000
4.94000 174.000
4.95500 179.000
4.97000 186.000
4.98500 167.000
5.00000 169.000
5.01500 162.000
5.03000 165.000
5.04500 168.000
5.06000 178.000
5.07500 175.000
5.09000 185.000
5.10500 151.000
5.12000 165.000
5.13500 170.000
5.15000 164.000
5.16500 190.000
5.18000 163.000
5.19500 163.000
5.21000 170.000
5.22500 180.000
5.24000 167.000
5.25500 149.000
5.27000 166.000
5.28500 179.000
5.30000 165.000
5.31500 159.000
5.33000 146.000
5.34500 172.000
5.36000 180.000
5.37500 174.000
5.39000 163.000
5.40500 194.000
5.42000 197.000
5.43500 194.000
5.45000 166.000
5.46500 145.000
5.48000 165.000
5.49500 174.000
5.51000 170.000
5.52500 170.000
5.54000 177.000
5.55500 172.000
5.57000 180.000
5.58500 156.000
5.60000 164.000
5.61500 177.000
5.63000 175.000
5.64500 186.000
5.66000 181.000
5.67500 175.000
5.69000 164.000
5.70500 150.000
5.72000 153.000
5.73500 169.000
5.75000 154.000
5.76500 187.000
5.78000 201.000
5.79500 186.000
5.81000 165.000
5.82500 166.000
5.84000 160.000
5.85500 171.000
5.87000 174.000
5.88500 172.000
5.90000 161.000
5.91500 161.000
5.93000 158.000
5.94500 160.000
5.96000 173.000
5.97500 164.000
5.99000 179.000
6.00500 179.000
6.02000 186.000
6.03500 164.000
6.05000 183.000
6.06500 177.000
6.08000 153.000
6.09500 165.000
6.11000 185.000
6.12500 177.000
6.14000 149.000
6.15500 173.000
6.17000 179.000
6.18500 174.000
6.20000 165.000
6.21500 156.000
6.23000 152.000
6.24500 174.000
6.26000 164.000
6.27500 168.000
6.29000 179.000
6.30500 181.000
6.32000 175.000
6.33500 160.000
6.35000 153.000
6.36500 159.000
6.38000 164.000
6.39500 190.000
6.41000 167.000
6.42500 167.000
6.44000 162.000
6.45500 158.000
6.47000 164.000
6.48500 166.000
6.50000 172.000
6.51500 143.000
6.53000 156.000
6.54500 178.000
6.56000 179.000
6.57500 168.000
6.59000 173.000
6.60500 168.000
6.62000 173.000
6.63500 167.000
6.65000 172.000
6.66500 159.000
6.68000 165.000
6.69500 168.000
6.71000 173.000
6.72500 157.000
6.74000 164.000
6.75500 168.000
6.77000 163.000
6.78500 170.000
6.80000 176.000
6.81500 172.000
6.83000 172.000
6.84500 180.000
6.86000 160.000
6.87500 175.000
6.89000 177.000
6.90500 158.000
6.92000 159.000
6.93500 173.000
6.95000 163.000
6.96500 162.000
6.98000 179.000
6.99500 167.000
7.01000 171.000
7.02500 171.000
7.04000 157.000
7.05500 170.000
7.07000 172.000
7.08500 168.000
7.10000 172.000
7.11500 172.000
7.13000 165.000
7.14500 188.000
7.16000 182.000
7.17500 173.000
7.19000 169.000
7.20500 161.000
7.22000 180.000
7.23500 188.000
7.25000 192.000
7.26500 155.000
7.28000 163.000
7.29500 158.000
7.31000 165.000
7.32500 154.000
7.34000 178.000
7.35500 186.000
7.37000 179.000
7.38500 169.000
7.40000 154.000
7.41500 174.000
7.43000 173.000
7.44500 170.000
7.46000 169.000
7.47500 188.000
7.49000 154.000
7.50500 165.000
7.52000 177.000
7.53500 170.000
7.55000 167.000
7.56500 177.000
7.58000 172.000
7.59500 182.000
7.61000 208.000
7.62500 176.000
7.64000 172.000
7.65500 180.000
7.67000 170.000
7.68500 167.000
7.70000 156.000
7.71500 191.000
7.73000 187.000
7.74500 175.000
7.76000 179.000
7.77500 167.000
7.79000 160.000
7.80500 160.000
7.82000 202.000
7.83500 206.000
7.85000 177.000
7.86500 192.000
7.88000 173.000
7.89500 163.000
7.91000 177.000
7.92500 178.000
7.94000 182.000
7.95500 179.000
7.97000 176.000
7.98500 173.000
8.00000 188.000
8.01500 167.000
8.03000 171.000
8.04500 166.000
8.06000 178.000
8.07500 176.000
8.09000 190.000
8.10500 178.000
8.12000 205.000
8.13500 188.000
8.15000 196.000
8.16500 179.000
8.18000 187.000
8.19500 151.000
8.21000 166.000
8.22500 192.000
8.24000 196.000
8.25500 191.000
8.27000 196.000
8.28500 196.000
8.30000 191.000
8.31500 211.000
8.33000 212.000
8.34500 229.000
8.36000 206.000
8.37500 203.000
8.39000 224.000
8.40500 207.000
8.42000 227.000
8.43500 226.000
8.45000 206.000
8.46500 236.000
8.48000 227.000
8.49500 232.000
8.51000 248.000
8.52500 242.000
8.54000 244.000
8.55500 231.000
8.57000 231.000
8.58500 253.000
8.60000 270.000
8.61500 260.000
8.63000 250.000
8.64500 237.000
8.66000 250.000
8.67500 267.000
8.69000 245.000
8.70500 248.000
8.72000 261.000
8.73500 250.000
8.75000 235.000
8.76500 234.000
8.78000 237.000
8.79500 204.000
8.81000 217.000
8.82500 223.000
8.84000 207.000
8.85500 213.000
8.87000 199.000
8.88500 202.000
8.90000 193.000
8.91500 203.000
8.93000 200.000
8.94500 190.000
8.96000 187.000
8.97500 197.000
8.99000 188.000
9.00500 197.000
9.02000 179.000
9.03500 180.000
9.05000 163.000
9.06500 154.000
9.08000 160.000
9.09500 168.000
9.11000 171.000
9.12500 177.000
9.14000 179.000
9.15500 189.000
9.17000 179.000
9.18500 180.000
9.20000 195.000
9.21500 191.000
9.23000 159.000
9.24500 183.000
9.26000 182.000
9.27500 161.000
9.29000 186.000
9.30500 174.000
9.32000 148.000
9.33500 173.000
9.35000 167.000
9.36500 197.000
9.38000 169.000
9.39500 182.000
9.41000 161.000
9.42500 169.000
9.44000 171.000
9.45500 165.000
9.47000 185.000
9.48500 180.000
9.50000 183.000
9.51500 174.000
9.53000 184.000
9.54500 168.000
9.56000 166.000
9.57500 187.000
9.59000 183.000
9.60500 189.000
9.62000 180.000
9.63500 182.000
9.65000 171.000
9.66500 170.000
9.68000 164.000
9.69500 176.000
9.71000 185.000
9.72500 187.000
9.74000 175.000
9.75500 178.000
9.77000 178.000
9.78500 187.000
9.80000 159.000
9.81500 176.000
9.83000 164.000
9.84500 167.000
9.86000 209.000
9.87500 185.000
9.89000 202.000
9.90500 206.000
9.92000 186.000
9.93500 190.000
9.95000 197.000
9.96500 203.000
9.98000 215.000
9.99500 203.000
10.01000 202.000
10.02500 205.000
10.04000 190.000
10.05500 183.000
10.07000 190.000
10.08500 203.000
10.10000 207.000
10.11500 206.000
10.13000 188.000
10.14500 185.000
10.16000 202.000
10.17500 200.000
10.19000 180.000
10.20500 175.000
10.22000 191.000
10.23500 183.000
10.25000 164.000
10.26500 169.000
10.28000 165.000
10.29500 174.000
10.31000 182.000
10.32500 174.000
10.34000 178.000
10.35500 189.000
10.37000 171.000
10.38500 165.000
10.40000 202.000
10.41500 203.000
10.43000 180.000
10.44500 179.000
10.46000 165.000
10.47500 176.000
10.49000 179.000
10.50500 194.000
10.52000 167.000
10.53500 188.000
10.55000 190.000
10.56500 189.000
10.58000 182.000
10.59500 199.000
10.61000 186.000
10.62500 187.000
10.64000 207.000
10.65500 183.000
10.67000 176.000
10.68500 199.000
10.70000 216.000
10.71500 204.000
10.73000 200.000
10.74500 179.000
10.76000 188.000
10.77500 197.000
10.79000 215.000
10.80500 205.000
10.82000 186.000
10.83500 205.000
10.85000 197.000
10.86500 180.000
10.88000 206.000
10.89500 201.000
10.91000 199.000
10.92500 204.000
10.94000 195.000
10.95500 211.000
10.97000 208.000
10.98500 194.000
11.00000 216.000
11.01500 230.000
11.03000 224.000
11.04500 219.000
11.06000 234.000
11.07500 238.000
11.09000 229.000
11.10500 238.000
11.12000 243.000
11.13500 259.000
11.15000 249.000
11.16500 277.000
11.18000 265.000
11.19500 274.000
11.21000 268.000
11.22500 318.000
11.24000 299.000
11.25500 317.000
11.27000 304.000
11.28500 325.000
11.30000 353.000
11.31500 358.000
11.33000 346.000
11.34500 377.000
11.36000 415.000
11.37500 443.000
11.39000 450.000
11.40500 468.000
11.42000 500.000
11.43500 518.000
11.45000 512.000
11.46500 549.000
11.48000 572.000
11.49500 615.000
11.51000 624.000
11.52500 644.000
11.54000 664.000
11.55500 660.000
11.57000 654.000
11.58500 654.000
11.60000 672.000
11.61500 629.000
11.63000 636.000
11.64500 594.000
11.66000 575.000
11.67500 573.000
11.69000 575.000
11.70500 501.000
11.72000 517.000
11.73500 512.000
11.75000 485.000
11.76500 462.000
11.78000 422.000
11.79500 424.000
11.81000 448.000
11.82500 435.000
11.84000 428.000
11.85500 423.000
11.87000 414.000
11.88500 422.000
11.90000 425.000
11.91500 384.000
11.93000 397.000
11.94500 387.000
11.96000 391.000
11.97500 358.000
11.99000 358.000
12.00500 356.000
12.02000 326.000
12.03500 318.000
12.05000 270.000
12.06500 243.000
12.08000 256.000
12.09500 244.000
12.11000 228.000
12.12500 199.000
12.14000 203.000
12.15500 200.000
12.17000 206.000
12.18500 200.000
12.20000 209.000
12.21500 189.000
12.23000 195.000
12.24500 185.000
12.26000 199.000
12.27500 184.000
12.29000 178.000
12.30500 179.000
12.32000 171.000
12.33500 182.000
12.35000 183.000
12.36500 177.000
12.38000 182.000
12.39500 184.000
12.41000 190.000
12.42500 194.000
12.44000 177.000
12.45500 182.000
12.47000 190.000
12.48500 199.000
12.50000 178.000
12.51500 178.000
12.53000 202.000
12.54500 189.000
12.56000 180.000
12.57500 210.000
12.59000 172.000
12.60500 185.000
12.62000 205.000
12.63500 206.000
12.65000 225.000
12.66500 211.000
12.68000 203.000
12.69500 213.000
12.71000 208.000
12.72500 206.000
12.74000 223.000
12.75500 191.000
12.77000 223.000
12.78500 233.000
12.80000 236.000
12.81500 240.000
12.83000 256.000
12.84500 245.000
12.86000 235.000
12.87500 254.000
12.89000 245.000
12.90500 250.000
12.92000 259.000
12.93500 249.000
12.95000 244.000
12.96500 204.000
12.98000 226.000
12.99500 216.000
13.01000 212.000
13.02500 246.000
13.04000 247.000
13.05500 208.000
13.07000 221.000
13.08500 221.000
13.10000 225.000
13.11500 204.000
13.13000 248.000
13.14500 230.000
13.16000 214.000
13.17500 224.000
13.19000 226.000
13.20500 231.000
13.22000 224.000
13.23500 212.000
13.25000 239.000
13.26500 226.000
13.28000 227.000
13.29500 229.000
13.31000 208.000
13.32500 215.000
13.34000 194.000
13.35500 195.000
13.37000 213.000
13.38500 216.000
13.40000 241.000
13.41500 213.000
13.43000 196.000
13.44500 203.000
13.46000 204.000
13.47500 192.000
13.49000 222.000
13.50500 207.000
13.52000 181.000
13.53500 183.000
13.55000 184.000
13.56500 191.000
13.58000 193.000
13.59500 181.000
13.61000 189.000
13.62500 180.000
13.64000 168.000
13.65500 171.000
13.67000 186.000
13.68500 186.000
13.70000 169.000
13.71500 174.000
13.73000 172.000
13.74500 173.000
13.76000 195.000
13.77500 181.000
13.79000 168.000
13.80500 165.000
13.82000 153.000
13.83500 186.000
13.85000 181.000
13.86500 167.000
13.88000 178.000
13.89500 181.000
13.91000 166.000
13.92500 191.000
13.94000 183.000
13.95500 167.000
13.97000 166.000
13.98500 159.000
14.00000 181.000
14.01500 181.000
14.03000 168.000
14.04500 163.000
14.06000 191.000
14.07500 179.000
14.09000 166.000
14.10500 167.000
14.12000 157.000
14.13500 180.000
14.15000 181.000
14.16500 167.000
14.18000 164.000
14.19500 192.000
14.21000 177.000
14.22500 174.000
14.24000 171.000
14.25500 175.000
14.27000 188.000
14.28500 166.000
14.30000 151.000
14.31500 169.000
14.33000 167.000
14.34500 166.000
14.36000 155.000
14.37500 153.000
14.39000 173.000
14.40500 163.000
14.42000 171.000
14.43500 161.000
14.45000 168.000
14.46500 149.000
14.48000 173.000
14.49500 163.000
14.51000 172.000
14.52500 188.000
14.54000 167.000
14.55500 192.000
14.57000 162.000
14.58500 162.000
14.60000 153.000
14.61500 174.000
14.63000 152.000
14.64500 153.000
14.66000 173.000
14.67500 168.000
14.69000 170.000
14.70500 173.000
14.72000 169.000
14.73500 156.000
14.75000 157.000
14.76500 169.000
14.78000 176.000
14.79500 162.000
14.81000 156.000
14.82500 163.000
14.84000 173.000
14.85500 173.000
14.87000 167.000
14.88500 188.000
14.90000 179.000
14.91500 165.000
14.93000 162.000
14.94500 167.000
14.96000 170.000
14.97500 165.000
14.99000 167.000
15.00500 174.000
15.02000 163.000
15.03500 171.000
15.05000 158.000
15.06500 157.000
15.08000 156.000
15.09500 163.000
15.11000 192.000
15.12500 172.000
15.14000 165.000
15.15500 156.000
15.17000 181.000
15.18500 171.000
15.20000 171.000
15.21500 151.000
15.23000 150.000
15.24500 159.000
15.26000 153.000
15.27500 169.000
15.29000 179.000
15.30500 168.000
15.32000 161.000
15.33500 154.000
15.35000 166.000
15.36500 168.000
15.38000 152.000
15.39500 177.000
15.41000 152.000
15.42500 161.000
15.44000 162.000
15.45500 176.000
15.47000 163.000
15.48500 162.000
15.50000 172.000
15.51500 176.000
15.53000 160.000
15.54500 177.000
15.56000 171.000
15.57500 188.000
15.59000 176.000
15.60500 174.000
15.62000 169.000
15.63500 155.000
15.65000 166.000
15.66500 176.000
15.68000 199.000
15.69500 163.000
15.71000 164.000
15.72500 164.000
15.74000 161.000
15.75500 169.000
15.77000 173.000
15.78500 167.000
15.80000 177.000
15.81500 163.000
15.83000 179.000
15.84500 185.000
15.86000 174.000
15.87500 178.000
15.89000 169.000
15.90500 162.000
15.92000 159.000
15.93500 172.000
15.95000 148.000
15.96500 180.000
15.98000 166.000
15.99500 161.000
16.01000 183.000
16.02500 188.000
16.04000 183.000
16.05500 176.000
16.07000 181.000
16.08500 183.000
16.10000 167.000
16.11500 174.000
16.13000 197.000
16.14500 156.000
16.16000 157.000
16.17500 163.000
16.19000 163.000
16.20500 166.000
16.22000 209.000
16.23500 194.000
16.25000 183.000
16.26500 182.000
16.28000 188.000
16.29500 189.000
16.31000 174.000
16.32500 174.000
16.34000 161.000
16.35500 179.000
16.37000 166.000
16.38500 181.000
16.40000 165.000
16.41500 179.000
16.43000 174.000
16.44500 164.000
16.46000 176.000
16.47500 165.000
16.49000 183.000
16.50500 184.000
16.52000 164.000
16.53500 176.000
16.55000 151.000
16.56500 156.000
16.58000 169.000
16.59500 183.000
16.61000 174.000
16.62500 157.000
16.64000 154.000
16.65500 160.000
16.67000 182.000
16.68500 169.000
16.70000 165.000
16.71500 166.000
16.73000 170.000
16.74500 189.000
16.76000 169.000
16.77500 181.000
16.79000 181.000
16.80500 152.000
16.82000 169.000
16.83500 179.000
16.85000 178.000
16.86500 184.000
16.88000 172.000
16.89500 185.000
16.91000 164.000
16.92500 171.000
16.94000 204.000
16.95500 174.000
16.97000 178.000
16.98500 172.000
17.00000 168.000
17.01500 180.000
17.03000 179.000
17.04500 177.000
17.06000 186.000
17.07500 192.000
17.09000 160.000
17.10500 157.000
17.12000 175.000
17.13500 170.000
17.15000 178.000
17.16500 184.000
17.18000 179.000
17.19500 186.000
17.21000 173.000
17.22500 193.000
17.24000 177.000
17.25500 153.000
17.27000 178.000
17.28500 182.000
17.30000 178.000
17.31500 176.000
17.33000 178.000
17.34500 163.000
17.36000 180.000
17.37500 185.000
17.39000 189.000
17.40500 192.000
17.42000 184.000
17.43500 166.000
17.45000 173.000
17.46500 172.000
17.48000 171.000
17.49500 184.000
17.51000 186.000
17.52500 164.000
17.54000 170.000
17.55500 171.000
17.57000 171.000
17.58500 175.000
17.60000 183.000
17.61500 188.000
17.63000 188.000
17.64500 192.000
17.66000 164.000
17.67500 177.000
17.69000 169.000
17.70500 181.000
17.72000 176.000
17.73500 162.000
17.75000 192.000
17.76500 207.000
17.78000 184.000
17.79500 164.000
17.81000 175.000
17.82500 194.000
17.84000 182.000
17.85500 183.000
17.87000 189.000
17.88500 193.000
17.90000 188.000
17.91500 167.000
17.93000 181.000
17.94500 178.000
17.96000 176.000
17.97500 194.000
17.99000 210.000
18.00500 166.000
18.02000 177.000
18.03500 188.000
18.05000 176.000
18.06500 196.000
18.08000 191.000
18.09500 192.000
18.11000 195.000
18.12500 179.000
18.14000 198.000
18.15500 196.000
18.17000 189.000
18.18500 180.000
18.20000 200.000
18.21500 178.000
18.23000 191.000
18.24500 195.000
18.26000 172.000
18.27500 167.000
18.29000 183.000
18.30500 166.000
18.32000 184.000
18.33500 204.000
18.35000 203.000
18.36500 184.000
18.38000 174.000
18.39500 200.000
18.41000 206.000
18.42500 184.000
18.44000 194.000
18.45500 203.000
18.47000 188.000
18.48500 184.000
18.50000 191.000
18.51500 215.000
18.53000 217.000
18.54500 210.000
18.56000 191.000
18.57500 189.000
18.59000 215.000
18.60500 205.000
18.62000 207.000
18.63500 201.000
18.65000 193.000
18.66500 193.000
18.68000 194.000
18.69500 214.000
18.71000 205.000
18.72500 202.000
18.74000 198.000
18.75500 181.000
18.77000 189.000
18.78500 193.000
18.80000 175.000
18.81500 191.000
18.83000 210.000
18.84500 204.000
18.86000 211.000
18.87500 208.000
18.89000 191.000
18.90500 186.000
18.92000 200.000
18.93500 215.000
18.95000 212.000
18.96500 202.000
18.98000 190.000
18.99500 199.000
19.01000 190.000
19.02500 213.000
19.04000 216.000
19.05500 214.000
19.07000 196.000
19.08500 170.000
19.10000 197.000
19.11500 174.000
19.13000 189.000
19.14500 208.000
19.16000 222.000
19.17500 210.000
19.19000 219.000
19.20500 185.000
19.22000 191.000
19.23500 204.000
19.25000 197.000
19.26500 191.000
19.28000 198.000
19.29500 183.000
19.31000 187.000
19.32500 207.000
19.34000 193.000
19.35500 206.000
19.37000 196.000
19.38500 197.000
19.40000 207.000
19.41500 212.000
19.43000 204.000
19.44500 202.000
19.46000 214.000
19.47500 215.000
19.49000 225.000
19.50500 200.000
19.52000 189.000
19.53500 195.000
19.55000 205.000
19.56500 202.000
19.58000 205.000
19.59500 236.000
19.61000 210.000
19.62500 215.000
19.64000 201.000
19.65500 217.000
19.67000 208.000
19.68500 210.000
19.70000 207.000
19.71500 228.000
19.73000 214.000
19.74500 206.000
19.76000 219.000
19.77500 207.000
19.79000 219.000
19.80500 217.000
19.82000 231.000
19.83500 228.000
19.85000 222.000
19.86500 211.000
19.88000 228.000
19.89500 217.000
19.91000 215.000
19.92500 225.000
19.94000 202.000
19.95500 220.000
19.97000 203.000
19.98500 221.000
20.00000 217.000
20.01500 195.000
20.03000 195.000
20.04500 216.000
20.06000 219.000
20.07500 203.000
20.09000 206.000
20.10500 207.000
20.12000 213.000
20.13500 230.000
20.15000 221.000
20.16500 245.000
20.18000 220.000
20.19500 208.000
20.21000 200.000
20.22500 215.000
20.24000 235.000
20.25500 198.000
20.27000 216.000
20.28500 209.000
20.30000 217.000
20.31500 233.000
20.33000 214.000
20.34500 240.000
20.36000 222.000
20.37500 213.000
20.39000 208.000
20.40500 209.000
20.42000 193.000
20.43500 207.000
20.45000 203.000
20.46500 202.000
20.48000 226.000
20.49500 219.000
20.51000 224.000
20.52500 216.000
20.54000 208.000
20.55500 220.000
20.57000 217.000
20.58500 219.000
20.60000 218.000
20.61500 211.000
20.63000 210.000
20.64500 205.000
20.66000 202.000
20.67500 197.000
20.69000 231.000
20.70500 216.000
20.72000 209.000
20.73500 200.000
20.75000 209.000
20.76500 219.000
20.78000 213.000
20.79500 204.000
20.81000 215.000
20.82500 214.000
20.84000 191.000
20.85500 213.000
20.87000 219.000
20.88500 212.000
20.90000 200.000
20.91500 214.000
20.93000 222.000
20.94500 223.000
20.96000 234.000
20.97500 217.000
20.99000 208.000
21.00500 222.000
21.02000 219.000
21.03500 238.000
21.05000 222.000
21.06500 226.000
21.08000 230.000
21.09500 214.000
21.11000 222.000
21.12500 208.000
21.14000 207.000
21.15500 217.000
21.17000 206.000
21.18500 204.000
21.20000 226.000
21.21500 221.000
21.23000 211.000
21.24500 207.000
21.26000 215.000
21.27500 220.000
21.29000 247.000
21.30500 215.000
21.32000 214.000
21.33500 237.000
21.35000 253.000
21.36500 215.000
21.38000 221.000
21.39500 206.000
21.41000 224.000
21.42500 222.000
21.44000 208.000
21.45500 220.000
21.47000 213.000
21.48500 238.000
21.50000 211.000
21.51500 211.000
21.53000 227.000
21.54500 221.000
21.56000 207.000
21.57500 221.000
21.59000 215.000
21.60500 215.000
21.62000 211.000
21.63500 238.000
21.65000 238.000
21.66500 232.000
21.68000 227.000
21.69500 208.000
21.71000 227.000
21.72500 229.000
21.74000 226.000
21.75500 214.000
21.77000 213.000
21.78500 245.000
21.80000 235.000
21.81500 249.000
21.83000 213.000
21.84500 192.000
21.86000 224.000
21.87500 219.000
21.89000 224.000
21.90500 231.000
21.92000 220.000
21.93500 231.000
21.95000 228.000
21.96500 209.000
21.98000 226.000
21.99500 243.000
22.01000 235.000
22.02500 209.000
22.04000 206.000
22.05500 221.000
22.07000 230.000
22.08500 237.000
22.10000 227.000
22.11500 230.000
22.13000 235.000
22.14500 228.000
22.16000 227.000
22.17500 221.000
22.19000 233.000
22.20500 242.000
22.22000 236.000
22.23500 237.000
22.25000 226.000
22.26500 243.000
22.28000 239.000
22.29500 250.000
22.31000 239.000
22.32500 230.000
22.34000 238.000
22.35500 232.000
22.37000 218.000
22.38500 225.000
22.40000 228.000
22.41500 233.000
22.43000 207.000
22.44500 210.000
22.46000 222.000
22.47500 247.000
22.49000 258.000
22.50500 239.000
22.52000 224.000
22.53500 220.000
22.55000 232.000
22.56500 226.000
22.58000 226.000
22.59500 220.000
22.61000 214.000
22.62500 203.000
22.64000 229.000
22.65500 228.000
22.67000 236.000
22.68500 229.000
22.70000 231.000
22.71500 241.000
22.73000 239.000
22.74500 227.000
22.76000 226.000
22.77500 235.000
22.79000 233.000
22.80500 221.000
22.82000 242.000
22.83500 251.000
22.85000 224.000
22.86500 253.000
22.88000 233.000
22.89500 213.000
22.91000 199.000
22.92500 224.000
22.94000 209.000
22.95500 232.000
22.97000 243.000
22.98500 230.000
23.00000 233.000
23.01500 250.000
23.03000 254.000
23.04500 253.000
23.06000 227.000
23.07500 224.000
23.09000 264.000
23.10500 280.000
23.12000 270.000
23.13500 249.000
23.15000 239.000
23.16500 257.000
23.18000 258.000
23.19500 285.000
23.21000 247.000
23.22500 241.000
23.24000 254.000
23.25500 243.000
23.27000 257.000
23.28500 235.000
23.30000 251.000
23.31500 246.000
23.33000 251.000
23.34500 232.000
23.36000 248.000
23.37500 252.000
23.39000 260.000
23.40500 258.000
23.42000 247.000
23.43500 264.000
23.45000 241.000
23.46500 264.000
23.48000 249.000
23.49500 270.000
23.51000 261.000
23.52500 240.000
23.54000 272.000
23.55500 277.000
23.57000 254.000
23.58500 268.000
23.60000 264.000
23.61500 239.000
23.63000 249.000
23.64500 237.000
23.66000 228.000
23.67500 268.000
23.69000 254.000
23.70500 252.000
23.72000 243.000
23.73500 246.000
23.75000 248.000
23.76500 251.000
23.78000 275.000
23.79500 258.000
23.81000 271.000
23.82500 264.000
23.84000 275.000
23.85500 284.000
23.87000 259.000
23.88500 269.000
23.90000 253.000
23.91500 245.000
23.93000 255.000
23.94500 265.000
23.96000 273.000
23.97500 290.000
23.99000 272.000
24.00500 253.000
24.02000 285.000
24.03500 281.000
24.05000 263.000
24.06500 258.000
24.08000 289.000
24.09500 259.000
24.11000 270.000
24.12500 272.000
24.14000 272.000
24.15500 285.000
24.17000 287.000
24.18500 278.000
24.20000 258.000
24.21500 289.000
24.23000 254.000
24.24500 262.000
24.26000 278.000
24.27500 286.000
24.29000 284.000
24.30500 271.000
24.32000 252.000
24.33500 283.000
24.35000 275.000
24.36500 282.000
24.38000 279.000
24.39500 286.000
24.41000 287.000
24.42500 259.000
24.44000 291.000
24.45500 280.000
24.47000 277.000
24.48500 268.000
24.50000 257.000
24.51500 285.000
24.53000 277.000
24.54500 296.000
24.56000 296.000
24.57500 291.000
24.59000 273.000
24.60500 299.000
24.62000 281.000
24.63500 273.000
24.65000 277.000
24.66500 276.000
24.68000 290.000
24.69500 271.000
24.71000 278.000
24.72500 330.000
24.74000 289.000
24.75500 317.000
24.77000 305.000
24.78500 301.000
24.80000 306.000
24.81500 337.000
24.83000 304.000
24.84500 340.000
24.86000 296.000
24.87500 308.000
24.89000 300.000
24.90500 317.000
24.92000 333.000
24.93500 344.000
24.95000 352.000
24.96500 372.000
24.98000 351.000
24.99500 374.000
25.01000 356.000
25.02500 361.000
25.04000 335.000
25.05500 357.000
25.07000 392.000
25.08500 388.000
25.10000 397.000
25.11500 366.000
25.13000 380.000
25.14500 378.000
25.16000 393.000
25.17500 411.000
25.19000 404.000
25.20500 429.000
25.22000 392.000
25.23500 388.000
25.25000 419.000
25.26500 429.000
25.28000 422.000
25.29500 438.000
25.31000 416.000
25.32500 440.000
25.34000 465.000
25.35500 447.000
25.37000 490.000
25.38500 505.000
25.40000 526.000
25.41500 511.000
25.43000 524.000
25.44500 509.000
25.46000 496.000
25.47500 542.000
25.49000 583.000
25.50500 519.000
25.52000 573.000
25.53500 598.000
25.55000 573.000
25.56500 566.000
25.58000 562.000
25.59500 569.000
25.61000 561.000
25.62500 547.000
25.64000 557.000
25.65500 555.000
25.67000 544.000
25.68500 521.000
25.70000 514.000
25.71500 532.000
25.73000 527.000
25.74500 479.000
25.76000 446.000
25.77500 465.000
25.79000 463.000
25.80500 451.000
25.82000 421.000
25.83500 428.000
25.85000 453.000
25.86500 411.000
25.88000 395.000
25.89500 397.000
25.91000 426.000
25.92500 398.000
25.94000 355.000
25.95500 395.000
25.97000 367.000
25.98500 381.000
26.00000 369.000
26.01500 385.000
26.03000 353.000
26.04500 353.000
26.06000 358.000
26.07500 328.000
26.09000 343.000
26.10500 340.000
26.12000 369.000
26.13500 350.000
26.15000 345.000
26.16500 347.000
26.18000 365.000
26.19500 366.000
26.21000 378.000
26.22500 363.000
26.24000 335.000
26.25500 355.000
26.27000 327.000
26.28500 317.000
26.30000 324.000
26.31500 339.000
26.33000 362.000
26.34500 364.000
26.36000 346.000
26.37500 354.000
26.39000 343.000
26.40500 363.000
26.42000 353.000
26.43500 367.000
26.45000 344.000
26.46500 357.000
26.48000 359.000
26.49500 351.000
26.51000 370.000
26.52500 374.000
26.54000 334.000
26.55500 368.000
26.57000 366.000
26.58500 367.000
26.60000 362.000
26.61500 390.000
26.63000 373.000
26.64500 363.000
26.66000 373.000
26.67500 357.000
26.69000 359.000
26.70500 352.000
26.72000 357.000
26.73500 363.000
26.75000 376.000
26.76500 382.000
26.78000 373.000
26.79500 354.000
26.81000 369.000
26.82500 390.000
26.84000 362.000
26.85500 355.000
26.87000 377.000
26.88500 365.000
26.90000 360.000
26.91500 357.000
26.93000 409.000
26.94500 409.000
26.96000 398.000
26.97500 393.000
26.99000 399.000
27.00500 416.000
27.02000 422.000
27.03500 401.000
27.05000 407.000
27.06500 502.000
27.08000 512.000
27.09500 479.000
27.11000 487.000
27.12500 485.000
27.14000 510.000
27.15500 515.000
27.17000 523.000
27.18500 478.000
27.20000 504.000
27.21500 520.000
27.23000 543.000
27.24500 567.000
27.26000 555.000
27.27500 561.000
27.29000 565.000
27.30500 559.000
27.32000 552.000
27.33500 559.000
27.35000 613.000
27.36500 571.000
27.38000 594.000
27.39500 625.000
27.41000 604.000
27.42500 600.000
27.44000 604.000
27.45500 631.000
27.47000 641.000
27.48500 611.000
27.50000 642.000
27.51500 599.000
27.53000 603.000
27.54500 595.000
27.56000 624.000
27.57500 581.000
27.59000 540.000
27.60500 557.000
27.62000 564.000
27.63500 520.000
27.65000 513.000
27.66500 495.000
27.68000 474.000
27.69500 452.000
27.71000 457.000
27.72500 430.000
27.74000 410.000
27.75500 368.000
27.77000 363.000
27.78500 356.000
27.80000 379.000
27.81500 354.000
27.83000 336.000
27.84500 349.000
27.86000 349.000
27.87500 305.000
27.89000 309.000
27.90500 318.000
27.92000 330.000
27.93500 302.000
27.95000 288.000
27.96500 288.000
27.98000 285.000
27.99500 287.000
28.01000 269.000
28.02500 288.000
28.04000 272.000
28.05500 284.000
28.07000 283.000
28.08500 266.000
28.10000 284.000
28.11500 256.000
28.13000 260.000
28.14500 249.000
28.16000 266.000
28.17500 263.000
28.19000 244.000
28.20500 256.000
28.22000 231.000
28.23500 256.000
28.25000 259.000
28.26500 261.000
28.28000 229.000
28.29500 247.000
28.31000 247.000
28.32500 218.000
28.34000 225.000
28.35500 213.000
28.37000 204.000
28.38500 223.000
28.40000 208.000
28.41500 238.000
28.43000 227.000
28.44500 259.000
28.46000 256.000
28.47500 241.000
28.49000 256.000
28.50500 232.000
28.52000 210.000
28.53500 233.000
28.55000 223.000
28.56500 229.000
28.58000 222.000
28.59500 228.000
28.61000 235.000
28.62500 211.000
28.64000 219.000
28.65500 235.000
28.67000 205.000
28.68500 225.000
28.70000 214.000
28.71500 196.000
28.73000 202.000
28.74500 206.000
28.76000 229.000
28.77500 228.000
28.79000 223.000
28.80500 232.000
28.82000 238.000
28.83500 205.000
28.85000 200.000
28.86500 201.000
28.88000 224.000
28.89500 228.000
28.91000 213.000
28.92500 210.000
28.94000 212.000
28.95500 207.000
28.97000 208.000
28.98500 220.000
29.00000 208.000
29.01500 211.000
29.03000 213.000
29.04500 239.000
29.06000 224.000
29.07500 211.000
29.09000 206.000
29.10500 209.000
29.12000 205.000
29.13500 212.000
29.15000 221.000
29.16500 200.000
29.18000 195.000
29.19500 206.000
29.21000 209.000
29.22500 202.000
29.24000 207.000
29.25500 215.000
29.27000 231.000
29.28500 207.000
29.30000 211.000
29.31500 214.000
29.33000 221.000
29.34500 200.000
29.36000 218.000
29.37500 218.000
29.39000 217.000
29.40500 211.000
29.42000 199.000
29.43500 218.000
29.45000 210.000
29.46500 204.000
29.48000 200.000
29.49500 191.000
29.51000 191.000
29.52500 201.000
29.54000 218.000
29.55500 215.000
29.57000 200.000
29.58500 209.000
29.60000 220.000
29.61500 202.000
29.63000 193.000
29.64500 236.000
29.66000 201.000
29.67500 204.000
29.69000 203.000
29.70500 198.000
29.72000 214.000
29.73500 209.000
29.75000 197.000
29.76500 212.000
29.78000 204.000
29.79500 212.000
29.81000 224.000
29.82500 192.000
29.84000 203.000
29.85500 216.000
29.87000 210.000
29.88500 211.000
29.90000 199.000
29.91500 211.000
29.93000 223.000
29.94500 197.000
29.96000 214.000
29.97500 227.000
29.99000 220.000
30.00500 215.000
30.02000 203.000
30.03500 204.000
30.05000 225.000
30.06500 223.000
30.08000 203.000
30.09500 226.000
30.11000 236.000
30.12500 220.000
30.14000 227.000
30.15500 221.000
30.17000 215.000
30.18500 237.000
30.20000 205.000
30.21500 235.000
30.23000 244.000
30.24500 259.000
30.26000 250.000
30.27500 254.000
30.29000 239.000
30.30500 239.000
30.32000 265.000
30.33500 248.000
30.35000 255.000
30.36500 232.000
30.38000 225.000
30.39500 256.000
30.41000 253.000
30.42500 252.000
30.44000 253.000
30.45500 254.000
30.47000 269.000
30.48500 255.000
30.50000 254.000
30.51500 244.000
30.53000 231.000
30.54500 234.000
30.56000 212.000
30.57500 235.000
30.59000 234.000
30.60500 231.000
30.62000 239.000
30.63500 241.000
30.65000 236.000
30.66500 225.000
30.68000 225.000
30.69500 234.000
30.71000 223.000
30.72500 205.000
30.74000 221.000
30.75500 231.000
30.77000 215.000
30.78500 205.000
30.80000 222.000
30.81500 207.000
30.83000 200.000
30.84500 215.000
30.86000 209.000
30.87500 201.000
30.89000 219.000
30.90500 220.000
30.92000 220.000
30.93500 208.000
30.95000 206.000
30.96500 212.000
30.98000 196.000
30.99500 204.000
31.01000 192.000
31.02500 185.000
31.04000 206.000
31.05500 188.000
31.07000 196.000
31.08500 193.000
31.10000 179.000
31.11500 184.000
31.13000 179.000
31.14500 207.000
31.16000 223.000
31.17500 200.000
31.19000 199.000
31.20500 173.000
31.22000 176.000
31.23500 185.000
31.25000 193.000
31.26500 186.000
31.28000 170.000
31.29500 170.000
31.31000 182.000
31.32500 172.000
31.34000 180.000
31.35500 191.000
31.37000 162.000
31.38500 166.000
31.40000 186.000
31.41500 168.000
31.43000 188.000
31.44500 165.000
31.46000 192.000
31.47500 168.000
31.49000 177.000
31.50500 176.000
31.52000 207.000
31.53500 169.000
31.55000 158.000
31.56500 166.000
31.58000 180.000
31.59500 165.000
31.61000 189.000
31.62500 178.000
31.64000 183.000
31.65500 174.000
31.67000 174.000
31.68500 175.000
31.70000 187.000
31.71500 192.000
31.73000 177.000
31.74500 156.000
31.76000 164.000
31.77500 179.000
31.79000 177.000
31.80500 163.000
31.82000 162.000
31.83500 152.000
31.85000 167.000
31.86500 169.000
31.88000 164.000
31.89500 155.000
31.91000 165.000
31.92500 170.000
31.94000 158.000
31.95500 153.000
31.97000 152.000
31.98500 155.000
32.00000 168.000
32.01500 165.000
32.03000 163.000
32.04500 163.000
32.06000 167.000
32.07500 157.000
32.09000 168.000
32.10500 160.000
32.12000 150.000
32.13500 171.000
32.15000 187.000
32.16500 173.000
32.18000 171.000
32.19500 177.000
32.21000 157.000
32.22500 159.000
32.24000 160.000
32.25500 172.000
32.27000 155.000
32.28500 168.000
32.30000 161.000
32.31500 159.000
32.33000 172.000
32.34500 183.000
32.36000 160.000
32.37500 162.000
32.39000 169.000
32.40500 162.000
32.42000 158.000
32.43500 165.000
32.45000 154.000
32.46500 160.000
32.48000 163.000
32.49500 151.000
32.51000 160.000
32.52500 164.000
32.54000 178.000
32.55500 160.000
32.57000 158.000
32.58500 151.000
32.60000 155.000
32.61500 154.000
32.63000 161.000
32.64500 156.000
32.66000 152.000
32.67500 148.000
32.69000 151.000
32.70500 172.000
32.72000 178.000
32.73500 167.000
32.75000 169.000
32.76500 139.000
32.78000 140.000
32.79500 143.000
32.81000 142.000
32.82500 173.000
32.84000 170.000
32.85500 160.000
32.87000 172.000
32.88500 163.000
32.90000 165.000
32.91500 139.000
32.93000 156.000
32.94500 157.000
32.96000 159.000
32.97500 144.000
32.99000 151.000
33.00500 148.000
33.02000 162.000
33.03500 172.000
33.05000 146.000
33.06500 172.000
33.08000 161.000
33.09500 144.000
33.11000 147.000
33.12500 154.000
33.14000 137.000
33.15500 157.000
33.17000 173.000
33.18500 160.000
33.20000 144.000
33.21500 158.000
33.23000 159.000
33.24500 142.000
33.26000 153.000
33.27500 155.000
33.29000 139.000
33.30500 144.000
33.32000 163.000
33.33500 149.000
33.35000 144.000
33.36500 146.000
33.38000 158.000
33.39500 161.000
33.41000 146.000
33.42500 148.000
33.44000 154.000
33.45500 164.000
33.47000 146.000
33.48500 143.000
33.50000 151.000
33.51500 151.000
33.53000 151.000
33.54500 174.000
33.56000 159.000
33.57500 126.000
33.59000 159.000
33.60500 153.000
33.62000 152.000
33.63500 128.000
33.65000 144.000
33.66500 174.000
33.68000 152.000
33.69500 143.000
33.71000 138.000
33.72500 149.000
33.74000 148.000
33.75500 159.000
33.77000 136.000
33.78500 142.000
33.80000 152.000
33.81500 153.000
33.83000 147.000
33.84500 136.000
33.86000 153.000
33.87500 139.000
33.89000 152.000
33.90500 146.000
33.92000 147.000
33.93500 145.000
33.95000 141.000
33.96500 148.000
33.98000 155.000
33.99500 136.000
34.01000 162.000
34.02500 148.000
34.04000 149.000
34.05500 147.000
34.07000 136.000
34.08500 132.000
34.10000 150.000
34.11500 149.000
34.13000 143.000
34.14500 146.000
34.16000 152.000
34.17500 147.000
34.19000 138.000
34.20500 143.000
34.22000 132.000
34.23500 150.000
34.25000 147.000
34.26500 137.000
34.28000 139.000
34.29500 147.000
34.31000 151.000
34.32500 152.000
34.34000 133.000
34.35500 138.000
34.37000 148.000
34.38500 166.000
34.40000 151.000
34.41500 130.000
34.43000 124.000
34.44500 124.000
34.46000 138.000
34.47500 133.000
34.49000 148.000
34.50500 133.000
34.52000 141.000
34.53500 135.000
34.55000 143.000
34.56500 140.000
34.58000 147.000
34.59500 138.000
34.61000 125.000
34.62500 138.000
34.64000 137.000
34.65500 129.000
34.67000 157.000
34.68500 139.000
34.70000 141.000
34.71500 140.000
34.73000 128.000
34.74500 127.000
34.76000 135.000
34.77500 141.000
34.79000 137.000
34.80500 136.000
34.82000 135.000
34.83500 142.000
34.85000 127.000
34.86500 125.000
34.88000 139.000
34.89500 131.000
34.91000 115.000
34.92500 133.000
34.94000 132.000
34.95500 123.000
34.97000 122.000
34.98500 119.000
35.00000 121.000
35.01500 129.000
35.03000 147.000
35.04500 137.000
35.06000 138.000
35.07500 136.000
35.09000 131.000
35.10500 137.000
35.12000 136.000
35.13500 141.000
35.15000 127.000
35.16500 126.000
35.18000 148.000
35.19500 140.000
35.21000 131.000
35.22500 144.000
35.24000 135.000
35.25500 134.000
35.27000 116.000
35.28500 125.000
35.30000 147.000
35.31500 134.000
35.33000 125.000
35.34500 142.000
35.36000 122.000
35.37500 119.000
35.39000 117.000
35.40500 119.000
35.42000 113.000
35.43500 112.000
35.45000 131.000
35.46500 145.000
35.48000 129.000
35.49500 132.000
35.51000 132.000
35.52500 140.000
35.54000 136.000
35.55500 123.000
35.57000 123.000
35.58500 138.000
35.60000 150.000
35.61500 139.000
35.63000 123.000
35.64500 122.000
35.66000 123.000
35.67500 120.000
35.69000 113.000
35.70500 117.000
35.72000 115.000
35.73500 115.000
35.75000 135.000
35.76500 132.000
35.78000 131.000
35.79500 103.000
35.81000 125.000
35.82500 114.000
35.84000 121.000
35.85500 125.000
35.87000 117.000
35.88500 118.000
35.90000 133.000
35.91500 122.000
35.93000 116.000
35.94500 135.000
35.96000 124.000
35.97500 130.000
35.99000 135.000
36.00500 125.000
36.02000 139.000
36.03500 117.000
36.05000 121.000
36.06500 107.000
36.08000 109.000
36.09500 117.000
36.11000 123.000
36.12500 123.000
36.14000 122.000
36.15500 135.000
36.17000 113.000
36.18500 103.000
36.20000 126.000
36.21500 138.000
36.23000 109.000
36.24500 117.000
36.26000 116.000
36.27500 120.000
36.29000 133.000
36.30500 126.000
36.32000 122.000
36.33500 120.000
36.35000 127.000
36.36500 114.000
36.38000 127.000
36.39500 130.000
36.41000 113.000
36.42500 132.000
36.44000 126.000
36.45500 124.000
36.47000 121.000
36.48500 118.000
36.50000 108.000
36.51500 116.000
36.53000 114.000
36.54500 106.000
36.56000 118.000
36.57500 128.000
36.59000 107.000
36.60500 89.000
36.62000 99.000
36.63500 113.000
36.65000 132.000
36.66500 119.000
36.68000 101.000
36.69500 112.000
36.71000 98.000
36.72500 116.000
36.74000 123.000
36.75500 112.000
36.77000 108.000
36.78500 109.000
36.80000 108.000
36.81500 114.000
36.83000 120.000
36.84500 101.000
36.86000 117.000
36.87500 99.000
36.89000 111.000
36.90500 129.000
36.92000 118.000
36.93500 108.000
36.95000 114.000
36.96500 108.000
36.98000 121.000
36.99500 93.000
37.01000 102.000
37.02500 97.000
37.04000 107.000
37.05500 116.000
37.07000 103.000
37.08500 115.000
37.10000 127.000
37.11500 109.000
37.13000 96.000
37.14500 103.000
37.16000 114.000
37.17500 107.000
37.19000 101.000
37.20500 108.000
37.22000 124.000
37.23500 121.000
37.25000 115.000
37.26500 118.000
37.28000 105.000
37.29500 110.000
37.31000 114.000
37.32500 119.000
37.34000 119.000
37.35500 137.000
37.37000 107.000
37.38500 99.000
37.40000 112.000
37.41500 105.000
37.43000 100.000
37.44500 119.000
37.46000 117.000
37.47500 112.000
37.49000 118.000
37.50500 106.000
37.52000 104.000
37.53500 104.000
37.55000 127.000
37.56500 107.000
37.58000 117.000
37.59500 108.000
37.61000 108.000
37.62500 105.000
37.64000 105.000
37.65500 117.000
37.67000 99.000
37.68500 114.000
37.70000 102.000
37.71500 110.000
37.73000 117.000
37.74500 97.000
37.76000 106.000
37.77500 103.000
37.79000 100.000
37.80500 108.000
37.82000 111.000
37.83500 116.000
37.85000 117.000
37.86500 96.000
37.88000 102.000
37.89500 103.000
37.91000 92.000
37.92500 101.000
37.94000 110.000
37.95500 118.000
37.97000 105.000
37.98500 112.000
38.00000 119.000
38.01500 119.000
38.03000 119.000
38.04500 121.000
38.06000 101.000
38.07500 110.000
38.09000 100.000
38.10500 93.000
38.12000 101.000
38.13500 107.000
38.15000 116.000
38.16500 105.000
38.18000 113.000
38.19500 109.000
38.21000 117.000
38.22500 108.000
38.24000 91.000
38.25500 116.000
38.27000 121.000
38.28500 110.000
38.30000 116.000
38.31500 101.000
38.33000 101.000
38.34500 122.000
38.36000 110.000
38.37500 91.000
38.39000 115.000
38.40500 118.000
38.42000 113.000
38.43500 115.000
38.45000 112.000
38.46500 105.000
38.48000 119.000
38.49500 119.000
38.51000 118.000
38.52500 111.000
38.54000 93.000
38.55500 101.000
38.57000 117.000
38.58500 132.000
38.60000 129.000
38.61500 106.000
38.63000 102.000
38.64500 105.000
38.66000 118.000
38.67500 120.000
38.69000 116.000
38.70500 114.000
38.72000 119.000
38.73500 133.000
38.75000 117.000
38.76500 133.000
38.78000 117.000
38.79500 117.000
38.81000 120.000
38.82500 101.000
38.84000 113.000
38.85500 105.000
38.87000 108.000
38.88500 117.000
38.90000 97.000
38.91500 123.000
38.93000 118.000
38.94500 103.000
38.96000 115.000
38.97500 110.000
38.99000 99.000
39.00500 85.000
39.02000 119.000
39.03500 97.000
39.05000 98.000
39.06500 99.000
39.08000 107.000
39.09500 109.000
39.11000 98.000
39.12500 96.000
39.14000 106.000
39.15500 101.000
39.17000 95.000
39.18500 102.000
39.20000 103.000
39.21500 107.000
39.23000 117.000
39.24500 111.000
39.26000 108.000
39.27500 105.000
39.29000 105.000
39.30500 102.000
39.32000 100.000
39.33500 94.000
39.35000 110.000
39.36500 106.000
39.38000 105.000
39.39500 126.000
39.41000 111.000
39.42500 107.000
39.44000 97.000
39.45500 119.000
39.47000 109.000
39.48500 92.000
39.50000 100.000
39.51500 122.000
39.53000 110.000
39.54500 114.000
39.56000 105.000
39.57500 118.000
39.59000 125.000
39.60500 114.000
39.62000 108.000
39.63500 105.000
39.65000 130.000
39.66500 116.000
39.68000 113.000
39.69500 118.000
39.71000 119.000
39.72500 114.000
39.74000 105.000
39.75500 111.000
39.77000 115.000
39.78500 107.000
39.80000 112.000
39.81500 114.000
39.83000 108.000
39.84500 96.000
39.86000 102.000
39.87500 119.000
39.89000 127.000
39.90500 111.000
39.92000 121.000
39.93500 115.000
39.95000 106.000
39.96500 103.000
39.98000 120.000
39.99500 122.000
40.01000 107.000
40.02500 133.000
40.04000 135.000
40.05500 108.000
40.07000 108.000
40.08500 121.000
40.10000 125.000
40.11500 123.000
40.13000 126.000
40.14500 128.000
40.16000 122.000
40.17500 119.000
40.19000 119.000
40.20500 115.000
40.22000 111.000
40.23500 125.000
40.25000 127.000
40.26500 118.000
40.28000 124.000
40.29500 124.000
40.31000 127.000
40.32500 133.000
40.34000 118.000
40.35500 113.000
40.37000 114.000
40.38500 129.000
40.40000 122.000
40.41500 111.000
40.43000 123.000
40.44500 119.000
40.46000 119.000
40.47500 123.000
40.49000 134.000
40.50500 120.000
40.52000 121.000
40.53500 113.000
40.55000 109.000
40.56500 121.000
40.58000 124.000
40.59500 119.000
40.61000 112.000
40.62500 125.000
40.64000 121.000
40.65500 115.000
40.67000 130.000
40.68500 111.000
40.70000 117.000
40.71500 119.000
40.73000 125.000
40.74500 125.000
40.76000 110.000
40.77500 122.000
40.79000 118.000
40.80500 117.000
40.82000 108.000
40.83500 112.000
40.85000 111.000
40.86500 99.000
40.88000 108.000
40.89500 115.000
40.91000 132.000
40.92500 127.000
40.94000 111.000
40.95500 103.000
40.97000 129.000
40.98500 115.000
41.00000 117.000
41.01500 105.000
41.03000 112.000
41.04500 115.000
41.06000 123.000
41.07500 105.000
41.09000 117.000
41.10500 123.000
41.12000 113.000
41.13500 110.000
41.15000 122.000
41.16500 118.000
41.18000 117.000
41.19500 111.000
41.21000 126.000
41.22500 122.000
41.24000 141.000
41.25500 137.000
41.27000 115.000
41.28500 116.000
41.30000 123.000
41.31500 122.000
41.33000 116.000
41.34500 104.000
41.36000 113.000
41.37500 113.000
41.39000 96.000
41.40500 106.000
41.42000 109.000
41.43500 125.000
41.45000 119.000
41.46500 107.000
41.48000 103.000
41.49500 119.000
41.51000 111.000
41.52500 109.000
41.54000 124.000
41.55500 109.000
41.57000 111.000
41.58500 129.000
41.60000 126.000
41.61500 114.000
41.63000 111.000
41.64500 99.000
41.66000 81.000
41.67500 103.000
41.69000 111.000
41.70500 97.000
41.72000 104.000
41.73500 102.000
41.75000 99.000
41.76500 113.000
41.78000 112.000
41.79500 101.000
41.81000 106.000
41.82500 102.000
41.84000 91.000
41.85500 109.000
41.87000 116.000
41.88500 93.000
41.90000 105.000
41.91500 94.000
41.93000 116.000
41.94500 113.000
41.96000 86.000
41.97500 95.000
41.99000 113.000
42.00500 119.000
42.02000 97.000
42.03500 100.000
42.05000 104.000
42.06500 122.000
42.08000 109.000
42.09500 88.000
42.11000 105.000
42.12500 96.000
42.14000 108.000
42.15500 114.000
42.17000 100.000
42.18500 109.000
42.20000 103.000
42.21500 112.000
42.23000 104.000
42.24500 101.000
42.26000 89.000
42.27500 105.000
42.29000 123.000
42.30500 109.000
42.32000 96.000
42.33500 110.000
42.35000 97.000
42.36500 104.000
42.38000 105.000
42.39500 103.000
42.41000 96.000
42.42500 90.000
42.44000 95.000
42.45500 98.000
42.47000 98.000
42.48500 103.000
42.50000 100.000
42.51500 107.000
42.53000 115.000
42.54500 116.000
42.56000 101.000
42.57500 105.000
42.59000 110.000
42.60500 108.000
42.62000 105.000
42.63500 99.000
42.65000 104.000
42.66500 107.000
42.68000 100.000
42.69500 91.000
42.71000 102.000
42.72500 100.000
42.74000 97.000
42.75500 104.000
42.77000 102.000
42.78500 106.000
42.80000 107.000
42.81500 96.000
42.83000 112.000
42.84500 102.000
42.86000 107.000
42.87500 106.000
42.89000 90.000
42.90500 117.000
42.92000 106.000
42.93500 103.000
42.95000 100.000
42.96500 106.000
42.98000 94.000
42.99500 94.000
43.01000 109.000
43.02500 108.000
43.04000 108.000
43.05500 104.000
43.07000 110.000
43.08500 101.000
43.10000 94.000
43.11500 117.000
43.13000 96.000
43.14500 101.000
43.16000 99.000
43.17500 109.000
43.19000 114.000
43.20500 105.000
43.22000 96.000
43.23500 105.000
43.25000 100.000
43.26500 106.000
43.28000 107.000
43.29500 117.000
43.31000 109.000
43.32500 114.000
43.34000 118.000
43.35500 99.000
43.37000 98.000
43.38500 104.000
43.40000 107.000
43.41500 93.000
43.43000 105.000
43.44500 104.000
43.46000 97.000
43.47500 114.000
43.49000 86.000
43.50500 103.000
43.52000 90.000
43.53500 92.000
43.55000 102.000
43.56500 95.000
43.58000 109.000
43.59500 107.000
43.61000 100.000
43.62500 91.000
43.64000 99.000
43.65500 117.000
43.67000 109.000
43.68500 107.000
43.70000 110.000
43.71500 101.000
43.73000 94.000
43.74500 97.000
43.76000 96.000
43.77500 93.000
43.79000 98.000
43.80500 115.000
43.82000 93.000
43.83500 89.000
43.85000 84.000
43.86500 104.000
43.88000 117.000
43.89500 98.000
43.91000 106.000
43.92500 105.000
43.94000 102.000
43.95500 92.000
43.97000 103.000
43.98500 122.000
44.00000 110.000
44.01500 90.000
44.03000 103.000
44.04500 94.000
44.06000 92.000
44.07500 119.000
44.09000 96.000
44.10500 94.000
44.12000 87.000
44.13500 89.000
44.15000 101.000
44.16500 115.000
44.18000 104.000
44.19500 88.000
44.21000 103.000
44.22500 99.000
44.24000 91.000
44.25500 96.000
44.27000 96.000
44.28500 85.000
44.30000 91.000
44.31500 109.000
44.33000 106.000
44.34500 96.000
44.36000 91.000
44.37500 96.000
44.39000 101.000
44.40500 104.000
44.42000 91.000
44.43500 115.000
44.45000 98.000
44.46500 98.000
44.48000 104.000
44.49500 103.000
44.51000 107.000
44.52500 93.000
44.54000 103.000
44.55500 102.000
44.57000 84.000
44.58500 108.000
44.60000 107.000
44.61500 106.000
44.63000 100.000
44.64500 92.000
44.66000 103.000
44.67500 97.000
44.69000 106.000
44.70500 99.000
44.72000 105.000
44.73500 104.000
44.75000 99.000
44.76500 97.000
44.78000 107.000
44.79500 101.000
44.81000 96.000
44.82500 94.000
44.84000 97.000
44.85500 95.000
44.87000 92.000
44.88500 82.000
44.90000 89.000
44.91500 90.000
44.93000 82.000
44.94500 96.000
44.96000 101.000
44.97500 97.000
44.99000 113.000
45.00500 105.000
45.02000 97.000
45.03500 104.000
45.05000 94.000
45.06500 97.000
45.08000 94.000
45.09500 98.000
45.11000 110.000
45.12500 104.000
45.14000 100.000
45.15500 94.000
45.17000 97.000
45.18500 93.000
45.20000 91.000
45.21500 111.000
45.23000 111.000
45.24500 82.000
45.26000 90.000
45.27500 94.000
45.29000 110.000
45.30500 105.000
45.32000 104.000
45.33500 101.000
45.35000 111.000
45.36500 91.000
45.38000 96.000
45.39500 102.000
45.41000 100.000
45.42500 99.000
45.44000 107.000
45.45500 112.000
45.47000 98.000
45.48500 106.000
45.50000 121.000
45.51500 100.000
45.53000 102.000
45.54500 101.000
45.56000 116.000
45.57500 105.000
45.59000 103.000
45.60500 107.000
45.62000 96.000
45.63500 100.000
45.65000 107.000
45.66500 103.000
45.68000 90.000
45.69500 101.000
45.71000 123.000
45.72500 114.000
45.74000 108.000
45.75500 108.000
45.77000 110.000
45.78500 120.000
45.80000 115.000
45.81500 111.000
45.83000 116.000
45.84500 107.000
45.86000 107.000
45.87500 118.000
45.89000 110.000
45.90500 112.000
45.92000 113.000
45.93500 100.000
45.95000 101.000
45.96500 98.000
45.98000 98.000
45.99500 110.000
46.01000 105.000
46.02500 90.000
46.04000 96.000
46.05500 107.000
46.07000 91.000
46.08500 97.000
46.10000 107.000
46.11500 116.000
46.13000 100.000
46.14500 103.000
46.16000 96.000
46.17500 91.000
46.19000 98.000
46.20500 114.000
46.22000 90.000
46.23500 95.000
46.25000 102.000
46.26500 100.000
46.28000 96.000
46.29500 105.000
46.31000 86.000
46.32500 97.000
46.34000 93.000
46.35500 91.000
46.37000 103.000
46.38500 98.000
46.40000 95.000
46.41500 91.000
46.43000 102.000
46.44500 108.000
46.46000 97.000
46.47500 102.000
46.49000 101.000
46.50500 102.000
46.52000 99.000
46.53500 97.000
46.55000 96.000
46.56500 97.000
46.58000 90.000
46.59500 108.000
46.61000 91.000
46.62500 93.000
46.64000 90.000
46.65500 95.000
46.67000 93.000
46.68500 97.000
46.70000 117.000
46.71500 97.000
46.73000 93.000
46.74500 97.000
46.76000 89.000
46.77500 85.000
46.79000 96.000
46.80500 98.000
46.82000 71.000
46.83500 98.000
46.85000 89.000
46.86500 97.000
46.88000 78.000
46.89500 89.000
46.91000 97.000
46.92500 101.000
46.94000 91.000
46.95500 81.000
46.97000 88.000
46.98500 109.000
47.00000 95.000
47.01500 92.000
47.03000 83.000
47.04500 89.000
47.06000 96.000
47.07500 85.000
47.09000 84.000
47.10500 88.000
47.12000 87.000
47.13500 85.000
47.15000 84.000
47.16500 97.000
47.18000 96.000
47.19500 97.000
47.21000 76.000
47.22500 83.000
47.24000 103.000
47.25500 98.000
47.27000 89.000
47.28500 101.000
47.30000 99.000
47.31500 79.000
47.33000 97.000
47.34500 92.000
47.36000 88.000
47.37500 92.000
47.39000 98.000
47.40500 89.000
47.42000 81.000
47.43500 84.000
47.45000 90.000
47.46500 88.000
47.48000 84.000
47.49500 104.000
47.51000 84.000
47.52500 104.000
47.54000 104.000
47.55500 84.000
47.57000 78.000
47.58500 94.000
47.60000 89.000
47.61500 86.000
47.63000 86.000
47.64500 104.000
47.66000 84.000
47.67500 96.000
47.69000 91.000
47.70500 102.000
47.72000 90.000
47.73500 77.000
47.75000 84.000
47.76500 94.000
47.78000 91.000
47.79500 79.000
47.81000 89.000
47.82500 92.000
47.84000 90.000
47.85500 103.000
47.87000 95.000
47.88500 102.000
47.90000 82.000
47.91500 88.000
47.93000 99.000
47.94500 100.000
47.96000 91.000
47.97500 83.000
47.99000 87.000
48.00500 86.000
48.02000 78.000
48.03500 84.000
48.05000 99.000
48.06500 88.000
48.08000 100.000
48.09500 90.000
48.11000 97.000
48.12500 95.000
48.14000 80.000
48.15500 106.000
48.17000 89.000
48.18500 101.000
48.20000 83.000
48.21500 83.000
48.23000 86.000
48.24500 73.000
48.26000 89.000
48.27500 81.000
48.29000 97.000
48.30500 90.000
48.32000 85.000
48.33500 75.000
48.35000 71.000
48.36500 77.000
48.38000 98.000
48.39500 90.000
48.41000 79.000
48.42500 89.000
48.44000 78.000
48.45500 81.000
48.47000 79.000
48.48500 84.000
48.50000 82.000
48.51500 94.000
48.53000 77.000
48.54500 92.000
48.56000 83.000
48.57500 84.000
48.59000 96.000
48.60500 98.000
48.62000 90.000
48.63500 88.000
48.65000 88.000
48.66500 94.000
48.68000 84.000
48.69500 94.000
48.71000 95.000
48.72500 99.000
48.74000 89.000
48.75500 86.000
48.77000 88.000
48.78500 78.000
48.80000 100.000
48.81500 81.000
48.83000 92.000
48.84500 84.000
48.86000 91.000
48.87500 97.000
48.89000 90.000
48.90500 89.000
48.92000 84.000
48.93500 88.000
48.95000 83.000
48.96500 81.000
48.98000 96.000
48.99500 97.000
49.01000 91.000
49.02500 91.000
49.04000 94.000
49.05500 84.000
49.07000 85.000
49.08500 88.000
49.10000 84.000
49.11500 88.000
49.13000 77.000
49.14500 85.000
49.16000 86.000
49.17500 86.000
49.19000 84.000
49.20500 87.000
49.22000 86.000
49.23500 81.000
49.25000 83.000
49.26500 92.000
49.28000 91.000
49.29500 70.000
49.31000 97.000
49.32500 99.000
49.34000 96.000
49.35500 90.000
49.37000 81.000
49.38500 92.000
49.40000 99.000
49.41500 96.000
49.43000 94.000
49.44500 94.000
49.46000 79.000
49.47500 81.000
49.49000 101.000
49.50500 87.000
49.52000 81.000
49.53500 87.000
49.55000 83.000
49.56500 84.000
49.58000 86.000
49.59500 76.000
49.61000 75.000
49.62500 73.000
49.64000 73.000
49.65500 85.000
49.67000 85.000
49.68500 86.000
49.70000 84.000
49.71500 83.000
49.73000 81.000
49.74500 78.000
49.76000 79.000
49.77500 87.000
49.79000 89.000
49.80500 75.000
49.82000 92.000
49.83500 86.000
49.85000 85.000
49.86500 80.000
49.88000 82.000
49.89500 91.000
49.91000 85.000
49.92500 91.000
49.94000 80.000
49.95500 80.000
49.97000 93.000
49.98500 79.000
50.00000 77.000
50.01500 99.000
50.03000 80.000
50.04500 97.000
50.06000 82.000
50.07500 100.000
50.09000 89.000
50.10500 79.000
50.12000 90.000
50.13500 95.000
50.15000 77.000
50.16500 82.000
50.18000 86.000
50.19500 90.000
50.21000 79.000
50.22500 72.000
50.24000 73.000
50.25500 88.000
50.27000 82.000
50.28500 86.000
50.30000 96.000
50.31500 82.000
50.33000 77.000
50.34500 85.000
50.36000 96.000
50.37500 89.000
50.39000 102.000
50.40500 84.000
50.42000 80.000
50.43500 88.000
50.45000 72.000
50.46500 77.000
50.48000 84.000
50.49500 71.000
50.51000 65.000
50.52500 81.000
50.54000 82.000
50.55500 92.000
50.57000 81.000
50.58500 72.000
50.60000 81.000
50.61500 76.000
50.63000 80.000
50.64500 78.000
50.66000 79.000
50.67500 79.000
50.69000 83.000
50.70500 91.000
50.72000 83.000
50.73500 82.000
50.75000 83.000
50.76500 85.000
50.78000 82.000
50.79500 91.000
50.81000 73.000
50.82500 90.000
50.84000 89.000
50.85500 93.000
50.87000 79.000
50.88500 78.000
50.90000 73.000
50.91500 88.000
50.93000 84.000
50.94500 87.000
50.96000 88.000
50.97500 93.000
50.99000 87.000
51.00500 97.000
51.02000 81.000
51.03500 77.000
51.05000 87.000
51.06500 79.000
51.08000 82.000
51.09500 88.000
51.11000 85.000
51.12500 82.000
51.14000 81.000
51.15500 97.000
51.17000 97.000
51.18500 82.000
51.20000 82.000
51.21500 87.000
51.23000 91.000
51.24500 84.000
51.26000 92.000
51.27500 70.000
51.29000 76.000
51.30500 70.000
51.32000 74.000
51.33500 87.000
51.35000 92.000
51.36500 91.000
51.38000 96.000
51.39500 95.000
51.41000 95.000
51.42500 90.000
51.44000 75.000
51.45500 93.000
51.47000 87.000
51.48500 84.000
51.50000 95.000
51.51500 81.000
51.53000 91.000
51.54500 85.000
51.56000 87.000
51.57500 88.000
51.59000 85.000
51.60500 88.000
51.62000 70.000
51.63500 87.000
51.65000 72.000
51.66500 85.000
51.68000 80.000
51.69500 79.000
51.71000 63.000
51.72500 83.000
51.74000 97.000
51.75500 81.000
51.77000 91.000
51.78500 86.000
51.80000 77.000
51.81500 82.000
51.83000 88.000
51.84500 82.000
51.86000 88.000
51.87500 87.000
51.89000 68.000
51.90500 77.000
51.92000 94.000
51.93500 92.000
51.95000 82.000
51.96500 93.000
51.98000 87.000
51.99500 86.000
52.01000 76.000
52.02500 91.000
52.04000 96.000
52.05500 84.000
52.07000 104.000
52.08500 100.000
52.10000 79.000
52.11500 79.000
52.13000 76.000
52.14500 77.000
52.16000 80.000
52.17500 103.000
52.19000 100.000
52.20500 75.000
52.22000 79.000
52.23500 81.000
52.25000 78.000
52.26500 81.000
52.28000 78.000
52.29500 80.000
52.31000 80.000
52.32500 91.000
52.34000 92.000
52.35500 87.000
52.37000 97.000
52.38500 85.000
52.40000 76.000
52.41500 89.000
52.43000 88.000
52.44500 86.000
52.46000 76.000
52.47500 79.000
52.49000 88.000
52.50500 79.000
52.52000 92.000
52.53500 96.000
52.55000 91.000
52.56500 81.000
52.58000 92.000
52.59500 82.000
52.61000 89.000
52.62500 97.000
52.64000 91.000
52.65500 76.000
52.67000 74.000
52.68500 84.000
52.70000 94.000
52.71500 93.000
52.73000 87.000
52.74500 90.000
52.76000 84.000
52.77500 91.000
52.79000 87.000
52.80500 92.000
52.82000 80.000
52.83500 73.000
52.85000 74.000
52.86500 76.000
52.88000 76.000
52.89500 90.000
52.91000 91.000
52.92500 86.000
52.94000 99.000
52.95500 72.000
52.97000 80.000
52.98500 87.000
53.00000 92.000
53.01500 86.000
53.03000 81.000
53.04500 92.000
53.06000 110.000
53.07500 81.000
53.09000 90.000
53.10500 92.000
53.12000 99.000
53.13500 90.000
53.15000 74.000
53.16500 76.000
53.18000 94.000
53.19500 91.000
53.21000 87.000
53.22500 88.000
53.24000 83.000
53.25500 101.000
53.27000 90.000
53.28500 88.000
53.30000 88.000
53.31500 90.000
53.33000 92.000
53.34500 96.000
53.36000 83.000
53.37500 81.000
53.39000 72.000
53.40500 80.000
53.42000 82.000
53.43500 80.000
53.45000 71.000
53.46500 81.000
53.48000 87.000
53.49500 76.000
53.51000 92.000
53.52500 79.000
53.54000 81.000
53.55500 80.000
53.57000 82.000
53.58500 81.000
53.60000 87.000
53.61500 85.000
53.63000 100.000
53.64500 96.000
53.66000 89.000
53.67500 73.000
53.69000 88.000
53.70500 69.000
53.72000 81.000
53.73500 95.000
53.75000 89.000
53.76500 81.000
53.78000 82.000
53.79500 79.000
53.81000 84.000
53.82500 77.000
53.84000 80.000
53.85500 80.000
53.87000 82.000
53.88500 88.000
53.90000 93.000
53.91500 86.000
53.93000 88.000
53.94500 88.000
53.96000 91.000
53.97500 84.000
53.99000 75.000
54.00500 75.000
54.02000 75.000
54.03500 80.000
54.05000 83.000
54.06500 102.000
54.08000 89.000
54.09500 85.000
54.11000 102.000
54.12500 87.000
54.14000 88.000
54.15500 94.000
54.17000 88.000
54.18500 82.000
54.20000 83.000
54.21500 71.000
54.23000 84.000
54.24500 72.000
54.26000 92.000
54.27500 75.000
54.29000 84.000
54.30500 88.000
54.32000 97.000
54.33500 86.000
54.35000 89.000
54.36500 86.000
54.38000 87.000
54.39500 92.000
54.41000 91.000
54.42500 97.000
54.44000 90.000
54.45500 83.000
54.47000 96.000
54.48500 87.000
54.50000 74.000
54.51500 93.000
54.53000 95.000
54.54500 87.000
54.56000 83.000
54.57500 94.000
54.59000 92.000
54.60500 93.000
54.62000 95.000
54.63500 89.000
54.65000 80.000
54.66500 77.000
54.68000 83.000
54.69500 85.000
54.71000 87.000
54.72500 93.000
54.74000 80.000
54.75500 101.000
54.77000 96.000
54.78500 81.000
54.80000 86.000
54.81500 83.000
54.83000 93.000
54.84500 81.000
54.86000 82.000
54.87500 86.000
54.89000 93.000
54.90500 78.000
54.92000 85.000
54.93500 93.000
54.95000 92.000
54.96500 82.000
54.98000 93.000
54.99500 87.000
55.01000 84.000
55.02500 84.000
55.04000 82.000
55.05500 76.000
55.07000 75.000
55.08500 82.000
55.10000 76.000
55.11500 94.000
55.13000 68.000
55.14500 69.000
55.16000 96.000
55.17500 87.000
55.19000 81.000
55.20500 84.000
55.22000 100.000
55.23500 95.000
55.25000 94.000
55.26500 98.000
55.28000 87.000
55.29500 88.000
55.31000 77.000
55.32500 79.000
55.34000 87.000
55.35500 91.000
55.37000 99.000
55.38500 84.000
55.40000 86.000
55.41500 93.000
55.43000 84.000
55.44500 82.000
55.46000 85.000
55.47500 82.000
55.49000 86.000
55.50500 77.000
55.52000 84.000
55.53500 83.000
55.55000 81.000
55.56500 86.000
55.58000 85.000
55.59500 88.000
55.61000 81.000
55.62500 84.000
55.64000 91.000
55.65500 77.000
55.67000 78.000
55.68500 70.000
55.70000 59.000
55.71500 82.000
55.73000 73.000
55.74500 68.000
55.76000 84.000
55.77500 84.000
55.79000 76.000
55.80500 94.000
55.82000 87.000
55.83500 84.000
55.85000 84.000
55.86500 83.000
55.88000 73.000
55.89500 77.000
55.91000 75.000
55.92500 75.000
55.94000 88.000
55.95500 73.000
55.97000 82.000
55.98500 86.000
56.00000 83.000
56.01500 75.000
56.03000 88.000
56.04500 91.000
56.06000 75.000
56.07500 70.000
56.09000 65.000
56.10500 67.000
56.12000 86.000
56.13500 81.000
56.15000 72.000
56.16500 86.000
56.18000 76.000
56.19500 77.000
56.21000 66.000
56.22500 79.000
56.24000 85.000
56.25500 90.000
56.27000 85.000
56.28500 78.000
56.30000 79.000
56.31500 85.000
56.33000 85.000
56.34500 83.000
56.36000 87.000
56.37500 81.000
56.39000 76.000
56.40500 85.000
56.42000 80.000
56.43500 81.000
56.45000 81.000
56.46500 79.000
56.48000 85.000
56.49500 87.000
56.51000 71.000
56.52500 85.000
56.54000 82.000
56.55500 99.000
56.57000 89.000
56.58500 100.000
56.60000 92.000
56.61500 72.000
56.63000 74.000
56.64500 81.000
56.66000 76.000
56.67500 72.000
56.69000 83.000
56.70500 82.000
56.72000 77.000
56.73500 87.000
56.75000 79.000
56.76500 73.000
56.78000 77.000
56.79500 87.000
56.81000 99.000
56.82500 87.000
56.84000 82.000
56.85500 76.000
56.87000 77.000
56.88500 79.000
56.90000 85.000
56.91500 90.000
56.93000 87.000
56.94500 64.000
56.96000 77.000
56.97500 84.000
56.99000 75.000
57.00500 76.000
57.02000 76.000
57.03500 76.000
57.05000 70.000
57.06500 73.000
57.08000 67.000
57.09500 76.000
57.11000 86.000
57.12500 82.000
57.14000 78.000
57.15500 72.000
57.17000 66.000
57.18500 79.000
57.20000 80.000
57.21500 76.000
57.23000 85.000
57.24500 79.000
57.26000 79.000
57.27500 77.000
57.29000 82.000
57.30500 79.000
57.32000 77.000
57.33500 75.000
57.35000 71.000
57.36500 69.000
57.38000 84.000
57.39500 78.000
57.41000 76.000
57.42500 80.000
57.44000 73.000
57.45500 65.000
57.47000 78.000
57.48500 72.000
57.50000 77.000
57.51500 70.000
57.53000 72.000
57.54500 62.000
57.56000 74.000
57.57500 76.000
57.59000 77.000
57.60500 74.000
57.62000 69.000
57.63500 63.000
57.65000 72.000
57.66500 81.000
57.68000 80.000
57.69500 84.000
57.71000 74.000
57.72500 75.000
57.74000 70.000
57.75500 74.000
57.77000 70.000
57.78500 68.000
57.80000 64.000
57.81500 78.000
57.83000 80.000
57.84500 85.000
57.86000 93.000
57.87500 72.000
57.89000 72.000
57.90500 74.000
57.92000 79.000
57.93500 68.000
57.95000 79.000
57.96500 75.000
57.98000 81.000
57.99500 68.000
58.01000 77.000
58.02500 84.000
58.04000 78.000
58.05500 87.000
58.07000 80.000
58.08500 75.000
58.10000 69.000
58.11500 67.000
58.13000 75.000
58.14500 83.000
58.16000 80.000
58.17500 86.000
58.19000 71.000
58.20500 66.000
58.22000 74.000
58.23500 75.000
58.25000 79.000
58.26500 67.000
58.28000 76.000
58.29500 80.000
58.31000 66.000
58.32500 78.000
58.34000 80.000
58.35500 75.000
58.37000 75.000
58.38500 73.000
58.40000 73.000
58.41500 59.000
58.43000 72.000
58.44500 83.000
58.46000 82.000
58.47500 82.000
58.49000 76.000
58.50500 79.000
58.52000 91.000
58.53500 80.000
58.55000 78.000
58.56500 79.000
58.58000 70.000
58.59500 69.000
58.61000 66.000
58.62500 71.000
58.64000 69.000
58.65500 67.000
58.67000 78.000
58.68500 68.000
58.70000 83.000
58.71500 82.000
58.73000 64.000
58.74500 62.000
58.76000 89.000
58.77500 80.000
58.79000 75.000
58.80500 82.000
58.82000 77.000
58.83500 82.000
58.85000 79.000
58.86500 68.000
58.88000 90.000
58.89500 75.000
58.91000 75.000
58.92500 69.000
58.94000 67.000
58.95500 88.000
58.97000 82.000
58.98500 83.000
59.00000 79.000
59.01500 73.000
59.03000 82.000
59.04500 84.000
59.06000 81.000
59.07500 71.000
59.09000 82.000
59.10500 75.000
59.12000 71.000
59.13500 72.000
59.15000 70.000
59.16500 68.000
59.18000 85.000
59.19500 79.000
59.21000 79.000
59.22500 88.000
59.24000 79.000
59.25500 86.000
59.27000 80.000
59.28500 78.000
59.30000 83.000
59.31500 77.000
59.33000 80.000
59.34500 76.000
59.36000 74.000
59.37500 76.000
59.39000 69.000
59.40500 72.000
59.42000 67.000
59.43500 63.000
59.45000 78.000
59.46500 82.000
59.48000 80.000
59.49500 73.000
59.51000 81.000
59.52500 75.000
59.54000 74.000
59.55500 78.000
59.57000 80.000
59.58500 72.000
59.60000 84.000
59.61500 77.000
59.63000 75.000
59.64500 84.000
59.66000 70.000
59.67500 86.000
59.69000 70.000
59.70500 74.000
59.72000 82.000
59.73500 73.000
59.75000 70.000
59.76500 64.000
59.78000 74.000
59.79500 69.000
59.81000 76.000
59.82500 79.000
59.84000 75.000
59.85500 87.000
59.87000 76.000
59.88500 74.000
59.90000 78.000
59.91500 71.000
59.93000 75.000
59.94500 76.000
59.96000 76.000
59.97500 65.000
59.99000 85.000
60.00500 83.000
60.02000 80.000
60.03500 69.000
60.05000 76.000
60.06500 86.000
60.08000 74.000
60.09500 74.000
60.11000 72.000
60.12500 84.000
60.14000 82.000
60.15500 85.000
60.17000 71.000
60.18500 70.000
60.20000 71.000
60.21500 68.000
60.23000 80.000
60.24500 74.000
60.26000 67.000
60.27500 92.000
60.29000 75.000
60.30500 76.000
60.32000 64.000
60.33500 69.000
60.35000 80.000
60.36500 76.000
60.38000 73.000
60.39500 67.000
60.41000 68.000
60.42500 65.000
60.44000 65.000
60.45500 71.000
60.47000 65.000
60.48500 81.000
60.50000 80.000
60.51500 74.000
60.53000 67.000
60.54500 77.000
60.56000 78.000
60.57500 73.000
60.59000 71.000
60.60500 77.000
60.62000 68.000
60.63500 79.000
60.65000 74.000
60.66500 76.000
60.68000 69.000
60.69500 65.000
60.71000 69.000
60.72500 73.000
60.74000 65.000
60.75500 72.000
60.77000 71.000
60.78500 65.000
60.80000 73.000
60.81500 88.000
60.83000 80.000
60.84500 73.000
60.86000 69.000
60.87500 64.000
60.89000 64.000
60.90500 65.000
60.92000 70.000
60.93500 72.000
60.95000 78.000
60.96500 61.000
60.98000 69.000
60.99500 72.000
61.01000 72.000
61.02500 67.000
61.04000 79.000
61.05500 68.000
61.07000 79.000
61.08500 78.000
61.10000 80.000
61.11500 91.000
61.13000 81.000
61.14500 63.000
61.16000 66.000
61.17500 69.000
61.19000 67.000
61.20500 75.000
61.22000 87.000
61.23500 75.000
61.25000 71.000
61.26500 67.000
61.28000 84.000
61.29500 72.000
61.31000 67.000
61.32500 65.000
61.34000 72.000
61.35500 93.000
61.37000 83.000
61.38500 82.000
61.40000 78.000
61.41500 74.000
61.43000 75.000
61.44500 67.000
61.46000 71.000
61.47500 70.000
61.49000 65.000
61.50500 73.000
61.52000 64.000
61.53500 66.000
61.55000 66.000
61.56500 77.000
61.58000 75.000
61.59500 78.000
61.61000 71.000
61.62500 67.000
61.64000 80.000
61.65500 65.000
61.67000 72.000
61.68500 80.000
61.70000 72.000
61.71500 65.000
61.73000 70.000
61.74500 72.000
61.76000 73.000
61.77500 77.000
61.79000 79.000
61.80500 78.000
61.82000 74.000
61.83500 70.000
61.85000 64.000
61.86500 74.000
61.88000 62.000
61.89500 76.000
61.91000 69.000
61.92500 66.000
61.94000 66.000
61.95500 73.000
61.97000 74.000
61.98500 63.000
