2.00000 2.000
2.01500 2.000
2.03000 3.000
2.04500 1.000
2.06000 2.000
2.07500 1.000
2.09000 1.000
2.10500 3.000
2.12000 2.000
2.13500 2.000
2.15000 1.000
2.16500 2.000
2.18000 1.000
2.19500 1.000
2.21000 0.000
2.22500 0.000
2.24000 1.000
2.25500 1.000
2.27000 1.000
2.28500 1.000
2.30000 1.000
2.31500 1.000
2.33000 1.000
2.34500 2.000
2.36000 1.000
2.37500 1.000
2.39000 0.000
2.40500 0.000
2.42000 2.000
2.43500 0.000
2.45000 0.000
2.46500 2.000
2.48000 3.000
2.49500 5.000
2.51000 3.000
2.52500 3.000
2.54000 3.000
2.55500 4.000
2.57000 4.000
2.58500 4.000
2.60000 4.000
2.61500 2.000
2.63000 0.000
2.64500 2.000
2.66000 3.000
2.67500 1.000
2.69000 1.000
2.70500 1.000
2.72000 2.000
2.73500 1.000
2.75000 0.000
2.76500 0.000
2.78000 1.000
2.79500 3.000
2.81000 0.000
2.82500 0.000
2.84000 0.000
2.85500 1.000
2.87000 1.000
2.88500 0.000
2.90000 1.000
2.91500 0.000
2.93000 0.000
2.94500 2.000
2.96000 3.000
2.97500 2.000
2.99000 2.000
3.00500 3.000
3.02000 2.000
3.03500 4.000
3.05000 2.000
3.06500 1.000
3.08000 0.000
3.09500 2.000
3.11000 0.000
3.12500 3.000
3.14000 5.000
3.15500 7.000
3.17000 21.000
3.18500 20.000
3.20000 18.000
3.21500 25.000
3.23000 26.000
3.24500 25.000
3.26000 28.000
3.27500 34.000
3.29000 29.000
3.30500 38.000
3.32000 42.000
3.33500 43.000
3.35000 38.000
3.36500 40.000
3.38000 44.000
3.39500 39.000
3.41000 44.000
3.42500 45.000
3.44000 41.000
3.45500 46.000
3.47000 50.000
3.48500 52.000
3.50000 46.000
3.51500 41.000
3.53000 48.000
3.54500 46.000
3.56000 41.000
3.57500 46.000
3.59000 49.000
3.60500 52.000
3.62000 54.000
3.63500 59.000
3.65000 50.000
3.66500 41.000
3.68000 46.000
3.69500 40.000
3.71000 40.000
3.72500 38.000
3.74000 46.000
3.75500 46.000
3.77000 39.000
3.78500 42.000
3.80000 57.000
3.81500 54.000
3.83000 43.000
3.84500 49.000
3.86000 51.000
3.87500 58.000
3.89000 48.000
3.90500 54.000
3.92000 56.000
3.93500 56.000
3.95000 54.000
3.96500 47.000
3.98000 55.000
3.99500 53.000
4.01000 52.000
4.02500 54.000
4.04000 50.000
4.05500 53.000
4.07000 57.000
4.08500 49.000
4.10000 47.000
4.11500 47.000
4.13000 50.000
4.14500 61.000
4.16000 61.000
4.17500 53.000
4.19000 55.000
4.20500 47.000
4.22000 46.000
4.23500 59.000
4.25000 58.000
4.26500 69.000
4.28000 59.000
4.29500 67.000
4.31000 62.000
4.32500 56.000
4.34000 51.000
4.35500 59.000
4.37000 67.000
4.38500 46.000
4.40000 49.000
4.41500 50.000
4.43000 64.000
4.44500 54.000
4.46000 52.000
4.47500 53.000
4.49000 53.000
4.50500 64.000
4.52000 53.000
4.53500 68.000
4.55000 62.000
4.56500 69.000
4.58000 64.000
4.59500 62.000
4.61000 68.000
4.62500 56.000
4.64000 55.000
4.65500 64.000
4.67000 54.000
4.68500 52.000
4.70000 70.000
4.71500 67.000
4.73000 57.000
4.74500 57.000
4.76000 58.000
4.77500 68.000
4.79000 57.000
4.80500 64.000
4.82000 61.000
4.83500 53.000
4.85000 67.000
4.86500 52.000
4.88000 57.000
4.89500 62.000
4.91000 61.000
4.92500 58.000
4.94000 60.000
4.95500 72.000
4.97000 59.000
4.98500 61.000
5.00000 62.000
5.01500 54.000
5.03000 61.000
5.04500 72.000
5.06000 61.000
5.07500 60.000
5.09000 78.000
5.10500 77.000
5.12000 63.000
5.13500 60.000
5.15000 50.000
5.16500 62.000
5.18000 64.000
5.19500 64.000
5.21000 56.000
5.22500 56.000
5.24000 55.000
5.25500 61.000
5.27000 58.000
5.28500 52.000
5.30000 65.000
5.31500 72.000
5.33000 65.000
5.34500 70.000
5.36000 69.000
5.37500 63.000
5.39000 61.000
5.40500 67.000
5.42000 69.000
5.43500 65.000
5.45000 63.000
5.46500 64.000
5.48000 65.000
5.49500 67.000
5.51000 86.000
5.52500 69.000
5.54000 64.000
5.55500 61.000
5.57000 66.000
5.58500 71.000
5.60000 73.000
5.61500 64.000
5.63000 76.000
5.64500 59.000
5.66000 64.000
5.67500 73.000
5.69000 63.000
5.70500 71.000
5.72000 78.000
5.73500 72.000
5.75000 51.000
5.76500 64.000
5.78000 66.000
5.79500 68.000
5.81000 53.000
5.82500 62.000
5.84000 87.000
5.85500 94.000
5.87000 83.000
5.88500 76.000
5.90000 77.000
5.91500 84.000
5.93000 80.000
5.94500 86.000
5.96000 86.000
5.97500 86.000
5.99000 70.000
6.00500 68.000
6.02000 75.000
6.03500 86.000
6.05000 85.000
6.06500 85.000
6.08000 78.000
6.09500 85.000
6.11000 90.000
6.12500 93.000
6.14000 92.000
6.15500 125.000
6.17000 140.000
6.18500 145.000
6.20000 144.000
6.21500 164.000
6.23000 184.000
6.24500 146.000
6.26000 116.000
6.27500 95.000
6.29000 90.000
6.30500 81.000
6.32000 89.000
6.33500 83.000
6.35000 79.000
6.36500 71.000
6.38000 75.000
6.39500 78.000
6.41000 75.000
6.42500 79.000
6.44000 87.000
6.45500 82.000
6.47000 78.000
6.48500 72.000
6.50000 80.000
6.51500 71.000
6.53000 76.000
6.54500 85.000
6.56000 68.000
6.57500 71.000
6.59000 71.000
6.60500 72.000
6.62000 68.000
6.63500 66.000
6.65000 67.000
6.66500 73.000
6.68000 71.000
6.69500 72.000
6.71000 78.000
6.72500 77.000
6.74000 71.000
6.75500 80.000
6.77000 83.000
6.78500 67.000
6.80000 63.000
6.81500 62.000
6.83000 78.000
6.84500 93.000
6.86000 72.000
6.87500 72.000
6.89000 69.000
6.90500 72.000
6.92000 73.000
6.93500 69.000
6.95000 81.000
6.96500 75.000
6.98000 75.000
6.99500 80.000
7.01000 81.000
7.02500 85.000
7.04000 89.000
7.05500 79.000
7.07000 81.000
7.08500 85.000
7.10000 85.000
7.11500 83.000
7.13000 78.000
7.14500 84.000
7.16000 80.000
7.17500 72.000
7.19000 76.000
7.20500 70.000
7.22000 69.000
7.23500 79.000
7.25000 79.000
7.26500 78.000
7.28000 71.000
7.29500 62.000
7.31000 74.000
7.32500 71.000
7.34000 73.000
7.35500 67.000
7.37000 68.000
7.38500 67.000
7.40000 80.000
7.41500 83.000
7.43000 71.000
7.44500 72.000
7.46000 79.000
7.47500 70.000
7.49000 74.000
7.50500 73.000
7.52000 82.000
7.53500 86.000
7.55000 76.000
7.56500 85.000
7.58000 67.000
7.59500 82.000
7.61000 83.000
7.62500 71.000
7.64000 75.000
7.65500 68.000
7.67000 77.000
7.68500 81.000
7.70000 87.000
7.71500 88.000
7.73000 88.000
7.74500 77.000
7.76000 82.000
7.77500 79.000
7.79000 76.000
7.80500 81.000
7.82000 66.000
7.83500 72.000
7.85000 76.000
7.86500 63.000
7.88000 77.000
7.89500 74.000
7.91000 75.000
7.92500 80.000
7.94000 80.000
7.95500 89.000
7.97000 79.000
7.98500 82.000
8.00000 74.000
8.01500 78.000
8.03000 71.000
8.04500 76.000
8.06000 84.000
8.07500 73.000
8.09000 76.000
8.10500 75.000
8.12000 70.000
8.13500 72.000
8.15000 76.000
8.16500 76.000
8.18000 65.000
8.19500 92.000
8.21000 90.000
8.22500 94.000
8.24000 83.000
8.25500 90.000
8.27000 85.000
8.28500 86.000
8.30000 78.000
8.31500 82.000
8.33000 78.000
8.34500 76.000
8.36000 89.000
8.37500 83.000
8.39000 84.000
8.40500 89.000
8.42000 95.000
8.43500 85.000
8.45000 75.000
8.46500 73.000
8.48000 78.000
8.49500 69.000
8.51000 75.000
8.52500 86.000
8.54000 87.000
8.55500 87.000
8.57000 96.000
8.58500 101.000
8.60000 85.000
8.61500 85.000
8.63000 78.000
8.64500 84.000
8.66000 73.000
8.67500 80.000
8.69000 69.000
8.70500 69.000
8.72000 77.000
8.73500 87.000
8.75000 99.000
8.76500 86.000
8.78000 82.000
8.79500 73.000
8.81000 81.000
8.82500 99.000
8.84000 95.000
8.85500 97.000
8.87000 94.000
8.88500 90.000
8.90000 91.000
8.91500 103.000
8.93000 107.000
8.94500 114.000
8.96000 97.000
8.97500 84.000
8.99000 94.000
9.00500 91.000
9.02000 90.000
9.03500 81.000
9.05000 85.000
9.06500 88.000
9.08000 85.000
9.09500 75.000
9.11000 84.000
9.12500 81.000
9.14000 86.000
9.15500 84.000
9.17000 77.000
9.18500 63.000
9.20000 71.000
9.21500 82.000
9.23000 73.000
9.24500 82.000
9.26000 75.000
9.27500 91.000
9.29000 95.000
9.30500 108.000
9.32000 85.000
9.33500 89.000
9.35000 88.000
9.36500 94.000
9.38000 83.000
9.39500 73.000
9.41000 92.000
9.42500 100.000
9.44000 87.000
9.45500 88.000
9.47000 105.000
9.48500 97.000
9.50000 108.000
9.51500 115.000
9.53000 102.000
9.54500 104.000
9.56000 93.000
9.57500 102.000
9.59000 91.000
9.60500 94.000
9.62000 94.000
9.63500 90.000
9.65000 92.000
9.66500 99.000
9.68000 115.000
9.69500 105.000
9.71000 81.000
9.72500 102.000
9.74000 90.000
9.75500 112.000
9.77000 95.000
9.78500 104.000
9.80000 105.000
9.81500 96.000
9.83000 106.000
9.84500 99.000
9.86000 104.000
9.87500 103.000
9.89000 96.000
9.90500 98.000
9.92000 103.000
9.93500 104.000
9.95000 88.000
9.96500 84.000
9.98000 88.000
9.99500 77.000
10.01000 74.000
10.02500 87.000
10.04000 92.000
10.05500 89.000
10.07000 70.000
10.08500 88.000
10.10000 90.000
10.11500 87.000
10.13000 93.000
10.14500 84.000
10.16000 95.000
10.17500 100.000
10.19000 112.000
10.20500 113.000
10.22000 101.000
10.23500 104.000
10.25000 108.000
10.26500 117.000
10.28000 108.000
10.29500 120.000
10.31000 124.000
10.32500 125.000
10.34000 135.000
10.35500 124.000
10.37000 145.000
10.38500 158.000
10.40000 194.000
10.41500 202.000
10.43000 285.000
10.44500 341.000
10.46000 321.000
10.47500 206.000
10.49000 120.000
10.50500 114.000
10.52000 93.000
10.53500 96.000
10.55000 90.000
10.56500 98.000
10.58000 91.000
10.59500 90.000
10.61000 90.000
10.62500 99.000
10.64000 87.000
10.65500 95.000
10.67000 79.000
10.68500 88.000
10.70000 95.000
10.71500 83.000
10.73000 89.000
10.74500 75.000
10.76000 83.000
10.77500 92.000
10.79000 91.000
10.80500 90.000
10.82000 98.000
10.83500 92.000
10.85000 86.000
10.86500 92.000
10.88000 82.000
10.89500 94.000
10.91000 89.000
10.92500 86.000
10.94000 85.000
10.95500 96.000
10.97000 91.000
10.98500 92.000
11.00000 103.000
11.01500 102.000
11.03000 98.000
11.04500 88.000
11.06000 96.000
11.07500 86.000
11.09000 84.000
11.10500 86.000
11.12000 89.000
11.13500 96.000
11.15000 98.000
11.16500 115.000
11.18000 108.000
11.19500 91.000
11.21000 85.000
11.22500 88.000
11.24000 94.000
11.25500 113.000
11.27000 106.000
11.28500 104.000
11.30000 118.000
11.31500 126.000
11.33000 132.000
11.34500 158.000
11.36000 178.000
11.37500 180.000
11.39000 187.000
11.40500 226.000
11.42000 290.000
11.43500 337.000
11.45000 391.000
11.46500 470.000
11.48000 432.000
11.49500 308.000
11.51000 179.000
11.52500 140.000
11.54000 123.000
11.55500 107.000
11.57000 87.000
11.58500 98.000
11.60000 96.000
11.61500 90.000
11.63000 74.000
11.64500 91.000
11.66000 92.000
11.67500 84.000
11.69000 77.000
11.70500 83.000
11.72000 96.000
11.73500 99.000
11.75000 93.000
11.76500 91.000
11.78000 96.000
11.79500 86.000
11.81000 88.000
11.82500 82.000
11.84000 97.000
11.85500 89.000
11.87000 83.000
11.88500 91.000
11.90000 97.000
11.91500 87.000
11.93000 84.000
11.94500 93.000
11.96000 102.000
11.97500 94.000
11.99000 91.000
12.00500 89.000
12.02000 82.000
12.03500 92.000
12.05000 99.000
12.06500 90.000
12.08000 86.000
12.09500 87.000
12.11000 84.000
12.12500 91.000
12.14000 73.000
12.15500 71.000
12.17000 77.000
12.18500 85.000
12.20000 93.000
12.21500 92.000
12.23000 81.000
12.24500 92.000
12.26000 96.000
12.27500 100.000
12.29000 92.000
12.30500 86.000
12.32000 86.000
12.33500 84.000
12.35000 97.000
12.36500 84.000
12.38000 106.000
12.39500 110.000
12.41000 98.000
12.42500 95.000
12.44000 102.000
12.45500 98.000
12.47000 120.000
12.48500 115.000
12.50000 94.000
12.51500 102.000
12.53000 127.000
12.54500 147.000
12.56000 145.000
12.57500 145.000
12.59000 124.000
12.60500 113.000
12.62000 111.000
12.63500 99.000
12.65000 82.000
12.66500 77.000
12.68000 99.000
12.69500 90.000
12.71000 98.000
12.72500 93.000
12.74000 90.000
12.75500 99.000
12.77000 96.000
12.78500 88.000
12.80000 92.000
12.81500 97.000
12.83000 93.000
12.84500 103.000
12.86000 98.000
12.87500 99.000
12.89000 82.000
12.90500 91.000
12.92000 94.000
12.93500 97.000
12.95000 78.000
12.96500 81.000
12.98000 82.000
12.99500 101.000
13.01000 89.000
13.02500 80.000
13.04000 99.000
13.05500 82.000
13.07000 78.000
13.08500 96.000
13.10000 98.000
13.11500 93.000
13.13000 96.000
13.14500 96.000
13.16000 91.000
13.17500 92.000
13.19000 99.000
13.20500 98.000
13.22000 94.000
13.23500 80.000
13.25000 75.000
13.26500 99.000
13.28000 84.000
13.29500 79.000
13.31000 96.000
13.32500 85.000
13.34000 98.000
13.35500 96.000
13.37000 81.000
13.38500 81.000
13.40000 100.000
13.41500 103.000
13.43000 95.000
13.44500 75.000
13.46000 88.000
13.47500 93.000
13.49000 93.000
13.50500 96.000
13.52000 86.000
13.53500 94.000
13.55000 87.000
13.56500 98.000
13.58000 105.000
13.59500 90.000
13.61000 112.000
13.62500 102.000
13.64000 88.000
13.65500 95.000
13.67000 99.000
13.68500 86.000
13.70000 78.000
13.71500 94.000
13.73000 101.000
13.74500 95.000
13.76000 86.000
13.77500 88.000
13.79000 92.000
13.80500 104.000
13.82000 87.000
13.83500 83.000
13.85000 85.000
13.86500 74.000
13.88000 91.000
13.89500 85.000
13.91000 91.000
13.92500 92.000
13.94000 98.000
13.95500 84.000
13.97000 83.000
13.98500 90.000
14.00000 89.000
14.01500 90.000
14.03000 87.000
14.04500 88.000
14.06000 96.000
14.07500 82.000
14.09000 85.000
14.10500 87.000
14.12000 98.000
14.13500 70.000
14.15000 94.000
14.16500 96.000
14.18000 93.000
14.19500 92.000
14.21000 83.000
14.22500 89.000
14.24000 87.000
14.25500 92.000
14.27000 88.000
14.28500 98.000
14.30000 95.000
14.31500 90.000
14.33000 94.000
14.34500 100.000
14.36000 93.000
14.37500 95.000
14.39000 95.000
14.40500 94.000
14.42000 102.000
14.43500 94.000
14.45000 90.000
14.46500 103.000
14.48000 101.000
14.49500 97.000
14.51000 95.000
14.52500 99.000
14.54000 79.000
14.55500 96.000
14.57000 79.000
14.58500 86.000
14.60000 93.000
14.61500 98.000
14.63000 83.000
14.64500 89.000
14.66000 78.000
14.67500 97.000
14.69000 99.000
14.70500 100.000
14.72000 101.000
14.73500 80.000
14.75000 89.000
14.76500 91.000
14.78000 97.000
14.79500 98.000
14.81000 106.000
14.82500 86.000
14.84000 93.000
14.85500 98.000
14.87000 88.000
14.88500 106.000
14.90000 111.000
14.91500 102.000
14.93000 109.000
14.94500 117.000
14.96000 115.000
14.97500 119.000
14.99000 137.000
15.00500 139.000
15.02000 152.000
15.03500 167.000
15.05000 164.000
15.06500 131.000
15.08000 104.000
15.09500 108.000
15.11000 108.000
15.12500 118.000
15.14000 116.000
15.15500 107.000
15.17000 131.000
15.18500 142.000
15.20000 136.000
15.21500 135.000
15.23000 154.000
15.24500 173.000
15.26000 206.000
15.27500 268.000
15.29000 320.000
15.30500 385.000
15.32000 461.000
15.33500 623.000
15.35000 784.000
15.36500 946.000
15.38000 1044.000
15.39500 887.000
15.41000 602.000
15.42500 378.000
15.44000 259.000
15.45500 213.000
15.47000 200.000
15.48500 255.000
15.50000 324.000
15.51500 413.000
15.53000 462.000
15.54500 462.000
15.56000 362.000
15.57500 227.000
15.59000 168.000
15.60500 137.000
15.62000 107.000
15.63500 97.000
15.65000 94.000
15.66500 92.000
15.68000 101.000
15.69500 95.000
15.71000 97.000
15.72500 104.000
15.74000 103.000
15.75500 96.000
15.77000 89.000
15.78500 86.000
15.80000 81.000
15.81500 84.000
15.83000 95.000
15.84500 81.000
15.86000 89.000
15.87500 97.000
15.89000 99.000
15.90500 94.000
15.92000 100.000
15.93500 98.000
15.95000 93.000
15.96500 100.000
15.98000 97.000
15.99500 94.000
16.01000 101.000
16.02500 103.000
16.04000 96.000
16.05500 94.000
16.07000 105.000
16.08500 103.000
16.10000 97.000
16.11500 97.000
16.13000 98.000
16.14500 90.000
16.16000 101.000
16.17500 92.000
16.19000 96.000
16.20500 97.000
16.22000 98.000
16.23500 117.000
16.25000 103.000
16.26500 99.000
16.28000 117.000
16.29500 129.000
16.31000 93.000
16.32500 99.000
16.34000 97.000
16.35500 117.000
16.37000 98.000
16.38500 100.000
16.40000 103.000
16.41500 109.000
16.43000 109.000
16.44500 107.000
16.46000 84.000
16.47500 109.000
16.49000 89.000
16.50500 93.000
16.52000 91.000
16.53500 93.000
16.55000 86.000
16.56500 100.000
16.58000 99.000
16.59500 94.000
16.61000 97.000
16.62500 93.000
16.64000 104.000
16.65500 105.000
16.67000 106.000
16.68500 106.000
16.70000 110.000
16.71500 129.000
16.73000 103.000
16.74500 96.000
16.76000 106.000
16.77500 127.000
16.79000 124.000
16.80500 131.000
16.82000 125.000
16.83500 149.000
16.85000 150.000
16.86500 147.000
16.88000 133.000
16.89500 135.000
16.91000 141.000
16.92500 154.000
16.94000 125.000
16.95500 109.000
16.97000 119.000
16.98500 121.000
17.00000 117.000
17.01500 100.000
17.03000 97.000
17.04500 114.000
17.06000 106.000
17.07500 114.000
17.09000 106.000
17.10500 93.000
17.12000 102.000
17.13500 108.000
17.15000 117.000
17.16500 112.000
17.18000 109.000
17.19500 100.000
17.21000 94.000
17.22500 117.000
17.24000 111.000
17.25500 100.000
17.27000 100.000
17.28500 93.000
17.30000 98.000
17.31500 96.000
17.33000 109.000
17.34500 104.000
17.36000 91.000
17.37500 117.000
17.39000 111.000
17.40500 116.000
17.42000 130.000
17.43500 130.000
17.45000 126.000
17.46500 143.000
17.48000 139.000
17.49500 126.000
17.51000 127.000
17.52500 119.000
17.54000 102.000
17.55500 121.000
17.57000 105.000
17.58500 99.000
17.60000 100.000
17.61500 93.000
17.63000 104.000
17.64500 108.000
17.66000 91.000
17.67500 94.000
17.69000 106.000
17.70500 113.000
17.72000 97.000
17.73500 102.000
17.75000 100.000
17.76500 108.000
17.78000 103.000
17.79500 105.000
17.81000 117.000
17.82500 107.000
17.84000 90.000
17.85500 92.000
17.87000 102.000
17.88500 123.000
17.90000 113.000
17.91500 121.000
17.93000 124.000
17.94500 131.000
17.96000 119.000
17.97500 117.000
17.99000 111.000
18.00500 104.000
18.02000 101.000
18.03500 107.000
18.05000 78.000
18.06500 95.000
18.08000 104.000
18.09500 106.000
18.11000 128.000
18.12500 105.000
18.14000 95.000
18.15500 99.000
18.17000 104.000
18.18500 106.000
18.20000 112.000
18.21500 87.000
18.23000 87.000
18.24500 102.000
18.26000 101.000
18.27500 118.000
18.29000 104.000
18.30500 116.000
18.32000 114.000
18.33500 110.000
18.35000 135.000
18.36500 147.000
18.38000 169.000
18.39500 203.000
18.41000 219.000
18.42500 220.000
18.44000 204.000
18.45500 159.000
18.47000 133.000
18.48500 104.000
18.50000 105.000
18.51500 110.000
18.53000 97.000
18.54500 110.000
18.56000 99.000
18.57500 105.000
18.59000 108.000
18.60500 100.000
18.62000 132.000
18.63500 127.000
18.65000 124.000
18.66500 117.000
18.68000 138.000
18.69500 136.000
18.71000 154.000
18.72500 180.000
18.74000 193.000
18.75500 209.000
18.77000 188.000
18.78500 148.000
18.80000 127.000
18.81500 119.000
18.83000 99.000
18.84500 113.000
18.86000 111.000
18.87500 115.000
18.89000 124.000
18.90500 107.000
18.92000 93.000
18.93500 110.000
18.95000 108.000
18.96500 103.000
18.98000 101.000
18.99500 106.000
19.01000 105.000
19.02500 110.000
19.04000 107.000
19.05500 125.000
19.07000 134.000
19.08500 128.000
19.10000 118.000
19.11500 131.000
19.13000 123.000
19.14500 127.000
19.16000 149.000
19.17500 156.000
19.19000 166.000
19.20500 182.000
19.22000 204.000
19.23500 211.000
19.25000 252.000
19.26500 293.000
19.28000 276.000
19.29500 209.000
19.31000 176.000
19.32500 153.000
19.34000 140.000
19.35500 114.000
19.37000 123.000
19.38500 118.000
19.40000 116.000
19.41500 110.000
19.43000 90.000
19.44500 99.000
19.46000 117.000
19.47500 112.000
19.49000 108.000
19.50500 113.000
19.52000 108.000
19.53500 100.000
19.55000 111.000
19.56500 106.000
19.58000 109.000
19.59500 119.000
19.61000 114.000
19.62500 117.000
19.64000 101.000
19.65500 112.000
19.67000 126.000
19.68500 121.000
19.70000 99.000
19.71500 110.000
19.73000 128.000
19.74500 120.000
19.76000 122.000
19.77500 126.000
19.79000 115.000
19.80500 105.000
19.82000 120.000
19.83500 119.000
19.85000 106.000
19.86500 111.000
19.88000 104.000
19.89500 106.000
19.91000 99.000
19.92500 109.000
19.94000 107.000
19.95500 108.000
19.97000 106.000
19.98500 115.000
20.00000 118.000
20.01500 112.000
20.03000 118.000
20.04500 121.000
20.06000 135.000
20.07500 119.000
20.09000 115.000
20.10500 122.000
20.12000 104.000
20.13500 114.000
20.15000 115.000
20.16500 121.000
20.18000 108.000
20.19500 111.000
20.21000 96.000
20.22500 112.000
20.24000 112.000
20.25500 123.000
20.27000 115.000
20.28500 106.000
20.30000 124.000
20.31500 115.000
20.33000 113.000
20.34500 100.000
20.36000 124.000
20.37500 126.000
20.39000 108.000
20.40500 133.000
20.42000 115.000
20.43500 107.000
20.45000 105.000
20.46500 112.000
20.48000 105.000
20.49500 117.000
20.51000 107.000
20.52500 104.000
20.54000 99.000
20.55500 103.000
20.57000 108.000
20.58500 116.000
20.60000 100.000
20.61500 108.000
20.63000 134.000
20.64500 123.000
20.66000 129.000
20.67500 117.000
20.69000 103.000
20.70500 105.000
20.72000 125.000
20.73500 137.000
20.75000 114.000
20.76500 129.000
20.78000 113.000
20.79500 108.000
20.81000 120.000
20.82500 95.000
20.84000 111.000
20.85500 120.000
20.87000 111.000
20.88500 119.000
20.90000 139.000
20.91500 142.000
20.93000 126.000
20.94500 123.000
20.96000 120.000
20.97500 133.000
20.99000 137.000
21.00500 136.000
21.02000 128.000
21.03500 139.000
21.05000 126.000
21.06500 138.000
21.08000 151.000
21.09500 144.000
21.11000 167.000
21.12500 194.000
21.14000 219.000
21.15500 261.000
21.17000 266.000
21.18500 252.000
21.20000 219.000
21.21500 176.000
21.23000 136.000
21.24500 134.000
21.26000 134.000
21.27500 133.000
21.29000 125.000
21.30500 140.000
21.32000 132.000
21.33500 137.000
21.35000 128.000
21.36500 155.000
21.38000 149.000
21.39500 145.000
21.41000 138.000
21.42500 142.000
21.44000 151.000
21.45500 161.000
21.47000 157.000
21.48500 153.000
21.50000 139.000
21.51500 145.000
21.53000 146.000
21.54500 158.000
21.56000 145.000
21.57500 167.000
21.59000 162.000
21.60500 139.000
21.62000 136.000
21.63500 149.000
21.65000 144.000
21.66500 155.000
21.68000 145.000
21.69500 144.000
21.71000 148.000
21.72500 177.000
21.74000 201.000
21.75500 236.000
21.77000 254.000
21.78500 343.000
21.80000 395.000
21.81500 504.000
21.83000 646.000
21.84500 790.000
21.86000 890.000
21.87500 819.000
21.89000 681.000
21.90500 458.000
21.92000 327.000
21.93500 233.000
21.95000 179.000
21.96500 151.000
21.98000 138.000
21.99500 142.000
22.01000 136.000
22.02500 140.000
22.04000 129.000
22.05500 137.000
22.07000 128.000
22.08500 136.000
22.10000 139.000
22.11500 135.000
22.13000 135.000
22.14500 142.000
22.16000 157.000
22.17500 128.000
22.19000 127.000
22.20500 114.000
22.22000 125.000
22.23500 139.000
22.25000 137.000
22.26500 128.000
22.28000 139.000
22.29500 134.000
22.31000 142.000
22.32500 148.000
22.34000 140.000
22.35500 132.000
22.37000 131.000
22.38500 136.000
22.40000 135.000
22.41500 130.000
22.43000 143.000
22.44500 146.000
22.46000 134.000
22.47500 144.000
22.49000 151.000
22.50500 171.000
22.52000 192.000
22.53500 191.000
22.55000 233.000
22.56500 273.000
22.58000 321.000
22.59500 433.000
22.61000 517.000
22.62500 620.000
22.64000 733.000
22.65500 892.000
22.67000 910.000
22.68500 731.000
22.70000 540.000
22.71500 367.000
22.73000 288.000
22.74500 232.000
22.76000 191.000
22.77500 169.000
22.79000 161.000
22.80500 166.000
22.82000 193.000
22.83500 199.000
22.85000 196.000
22.86500 251.000
22.88000 314.000
22.89500 366.000
22.91000 474.000
22.92500 663.000
22.94000 837.000
22.95500 1134.000
22.97000 1582.000
22.98500 2139.000
23.00000 2954.000
23.01500 3969.000
23.03000 5151.000
23.04500 6108.000
23.06000 6054.000
23.07500 4872.000
23.09000 3475.000
23.10500 2151.000
23.12000 1215.000
23.13500 726.000
23.15000 472.000
23.16500 377.000
23.18000 274.000
23.19500 233.000
23.21000 209.000
23.22500 207.000
23.24000 187.000
23.25500 164.000
23.27000 183.000
23.28500 168.000
23.30000 156.000
23.31500 149.000
23.33000 159.000
23.34500 139.000
23.36000 128.000
23.37500 138.000
23.39000 127.000
23.40500 142.000
23.42000 121.000
23.43500 132.000
23.45000 135.000
23.46500 139.000
23.48000 143.000
23.49500 138.000
23.51000 148.000
23.52500 132.000
23.54000 140.000
23.55500 141.000
23.57000 132.000
23.58500 121.000
23.60000 123.000
23.61500 127.000
23.63000 143.000
23.64500 137.000
23.66000 123.000
23.67500 134.000
23.69000 134.000
23.70500 122.000
23.72000 121.000
23.73500 128.000
23.75000 116.000
23.76500 116.000
23.78000 123.000
23.79500 130.000
23.81000 128.000
23.82500 115.000
23.84000 142.000
23.85500 133.000
23.87000 112.000
23.88500 129.000
23.90000 133.000
23.91500 124.000
23.93000 127.000
23.94500 121.000
23.96000 133.000
23.97500 148.000
23.99000 135.000
24.00500 138.000
24.02000 109.000
24.03500 125.000
24.05000 122.000
24.06500 118.000
24.08000 113.000
24.09500 123.000
24.11000 134.000
24.12500 117.000
24.14000 116.000
24.15500 146.000
24.17000 152.000
24.18500 136.000
24.20000 120.000
24.21500 125.000
24.23000 147.000
24.24500 136.000
24.26000 141.000
24.27500 150.000
24.29000 140.000
24.30500 122.000
24.32000 130.000
24.33500 122.000
24.35000 153.000
24.36500 163.000
24.38000 179.000
24.39500 180.000
24.41000 180.000
24.42500 153.000
24.44000 157.000
24.45500 172.000
24.47000 174.000
24.48500 187.000
24.50000 184.000
24.51500 217.000
24.53000 229.000
24.54500 228.000
24.56000 214.000
24.57500 186.000
24.59000 183.000
24.60500 154.000
24.62000 155.000
24.63500 162.000
24.65000 146.000
24.66500 150.000
24.68000 145.000
24.69500 132.000
24.71000 140.000
24.72500 152.000
24.74000 161.000
24.75500 152.000
24.77000 157.000
24.78500 168.000
24.80000 181.000
24.81500 192.000
24.83000 234.000
24.84500 341.000
24.86000 344.000
24.87500 441.000
24.89000 539.000
24.90500 586.000
24.92000 574.000
24.93500 496.000
24.95000 382.000
24.96500 321.000
24.98000 218.000
24.99500 178.000
25.01000 165.000
25.02500 170.000
25.04000 155.000
25.05500 151.000
25.07000 158.000
25.08500 176.000
25.10000 182.000
25.11500 173.000
25.13000 171.000
25.14500 158.000
25.16000 154.000
25.17500 139.000
25.19000 142.000
25.20500 135.000
25.22000 141.000
25.23500 138.000
25.25000 147.000
25.26500 152.000
25.28000 160.000
25.29500 148.000
25.31000 151.000
25.32500 153.000
25.34000 132.000
25.35500 144.000
25.37000 147.000
25.38500 130.000
25.40000 150.000
25.41500 132.000
25.43000 143.000
25.44500 157.000
25.46000 162.000
25.47500 164.000
25.49000 182.000
25.50500 180.000
25.52000 197.000
25.53500 210.000
25.55000 188.000
25.56500 151.000
25.58000 173.000
25.59500 196.000
25.61000 198.000
25.62500 187.000
25.64000 208.000
25.65500 238.000
25.67000 275.000
25.68500 302.000
25.70000 366.000
25.71500 431.000
25.73000 505.000
25.74500 647.000
25.76000 877.000
25.77500 1134.000
25.79000 1638.000
25.80500 2286.000
25.82000 2801.000
25.83500 3067.000
25.85000 2619.000
25.86500 1864.000
25.88000 1080.000
25.89500 676.000
25.91000 444.000
25.92500 335.000
25.94000 296.000
25.95500 283.000
25.97000 229.000
25.98500 215.000
26.00000 220.000
26.01500 222.000
26.03000 212.000
26.04500 216.000
26.06000 227.000
26.07500 210.000
26.09000 220.000
26.10500 241.000
26.12000 236.000
26.13500 233.000
26.15000 208.000
26.16500 195.000
26.18000 181.000
26.19500 183.000
26.21000 193.000
26.22500 188.000
26.24000 202.000
26.25500 229.000
26.27000 260.000
26.28500 285.000
26.30000 319.000
26.31500 322.000
26.33000 313.000
26.34500 262.000
26.36000 209.000
26.37500 188.000
26.39000 188.000
26.40500 170.000
26.42000 183.000
26.43500 178.000
26.45000 188.000
26.46500 215.000
26.48000 213.000
26.49500 238.000
26.51000 251.000
26.52500 253.000
26.54000 279.000
26.55500 322.000
26.57000 402.000
26.58500 475.000
26.60000 529.000
26.61500 643.000
26.63000 764.000
26.64500 937.000
26.66000 1205.000
26.67500 1421.000
26.69000 1537.000
26.70500 1387.000
26.72000 1154.000
26.73500 840.000
26.75000 574.000
26.76500 378.000
26.78000 294.000
26.79500 243.000
26.81000 196.000
26.82500 186.000
26.84000 190.000
26.85500 179.000
26.87000 177.000
26.88500 180.000
26.90000 161.000
26.91500 162.000
26.93000 181.000
26.94500 162.000
26.96000 166.000
26.97500 168.000
26.99000 172.000
27.00500 172.000
27.02000 171.000
27.03500 193.000
27.05000 166.000
27.06500 186.000
27.08000 186.000
27.09500 178.000
27.11000 201.000
27.12500 202.000
27.14000 190.000
27.15500 197.000
27.17000 209.000
27.18500 213.000
27.20000 204.000
27.21500 208.000
27.23000 235.000
27.24500 229.000
27.26000 234.000
27.27500 222.000
27.29000 258.000
27.30500 249.000
27.32000 251.000
27.33500 272.000
27.35000 284.000
27.36500 288.000
27.38000 271.000
27.39500 257.000
27.41000 280.000
27.42500 271.000
27.44000 260.000
27.45500 264.000
27.47000 267.000
27.48500 284.000
27.50000 302.000
27.51500 307.000
27.53000 371.000
27.54500 437.000
27.56000 474.000
27.57500 546.000
27.59000 684.000
27.60500 884.000
27.62000 1085.000
27.63500 1389.000
27.65000 1724.000
27.66500 2030.000
27.68000 2386.000
27.69500 2584.000
27.71000 2620.000
27.72500 2419.000
27.74000 2100.000
27.75500 1681.000
27.77000 1297.000
27.78500 956.000
27.80000 655.000
27.81500 459.000
27.83000 360.000
27.84500 303.000
27.86000 258.000
27.87500 246.000
27.89000 239.000
27.90500 206.000
27.92000 176.000
27.93500 189.000
27.95000 170.000
27.96500 194.000
27.98000 186.000
27.99500 186.000
28.01000 178.000
28.02500 165.000
28.04000 168.000
28.05500 164.000
28.07000 163.000
28.08500 164.000
28.10000 162.000
28.11500 155.000
28.13000 144.000
28.14500 147.000
28.16000 159.000
28.17500 164.000
28.19000 154.000
28.20500 169.000
28.22000 160.000
28.23500 140.000
28.25000 172.000
28.26500 160.000
28.28000 165.000
28.29500 164.000
28.31000 173.000
28.32500 160.000
28.34000 163.000
28.35500 171.000
28.37000 158.000
28.38500 189.000
28.40000 167.000
28.41500 193.000
28.43000 182.000
28.44500 170.000
28.46000 169.000
28.47500 188.000
28.49000 212.000
28.50500 207.000
28.52000 251.000
28.53500 286.000
28.55000 357.000
28.56500 457.000
28.58000 586.000
28.59500 778.000
28.61000 985.000
28.62500 1238.000
28.64000 1375.000
28.65500 1368.000
28.67000 1211.000
28.68500 909.000
28.70000 632.000
28.71500 470.000
28.73000 344.000
28.74500 272.000
28.76000 223.000
28.77500 213.000
28.79000 215.000
28.80500 232.000
28.82000 236.000
28.83500 318.000
28.85000 400.000
28.86500 503.000
28.88000 605.000
28.89500 843.000
28.91000 1039.000
28.92500 1052.000
28.94000 964.000
28.95500 806.000
28.97000 594.000
28.98500 388.000
29.00000 288.000
29.01500 222.000
29.03000 200.000
29.04500 184.000
29.06000 177.000
29.07500 158.000
29.09000 187.000
29.10500 163.000
29.12000 161.000
29.13500 178.000
29.15000 178.000
29.16500 176.000
29.18000 172.000
29.19500 178.000
29.21000 148.000
29.22500 147.000
29.24000 155.000
29.25500 128.000
29.27000 121.000
29.28500 135.000
29.30000 135.000
29.31500 124.000
29.33000 119.000
29.34500 124.000
29.36000 120.000
29.37500 134.000
29.39000 108.000
29.40500 116.000
29.42000 115.000
29.43500 109.000
29.45000 136.000
29.46500 139.000
29.48000 129.000
29.49500 131.000
29.51000 142.000
29.52500 134.000
29.54000 129.000
29.55500 151.000
29.57000 145.000
29.58500 150.000
29.60000 138.000
29.61500 147.000
29.63000 154.000
29.64500 147.000
29.66000 149.000
29.67500 145.000
29.69000 153.000
29.70500 124.000
29.72000 137.000
29.73500 125.000
29.75000 134.000
29.76500 138.000
29.78000 134.000
29.79500 132.000
29.81000 126.000
29.82500 140.000
29.84000 135.000
29.85500 136.000
29.87000 130.000
29.88500 140.000
29.90000 142.000
29.91500 138.000
29.93000 133.000
29.94500 124.000
29.96000 140.000
29.97500 129.000
29.99000 147.000
30.00500 131.000
30.02000 119.000
30.03500 123.000
30.05000 119.000
30.06500 113.000
30.08000 134.000
30.09500 129.000
30.11000 129.000
30.12500 131.000
30.14000 128.000
30.15500 131.000
30.17000 131.000
30.18500 131.000
30.20000 132.000
30.21500 138.000
30.23000 124.000
30.24500 116.000
30.26000 119.000
30.27500 142.000
30.29000 139.000
30.30500 133.000
30.32000 152.000
30.33500 138.000
30.35000 145.000
30.36500 165.000
30.38000 180.000
30.39500 190.000
30.41000 208.000
30.42500 210.000
30.44000 245.000
30.45500 247.000
30.47000 259.000
30.48500 255.000
30.50000 221.000
30.51500 224.000
30.53000 203.000
30.54500 189.000
30.56000 171.000
30.57500 144.000
30.59000 145.000
30.60500 127.000
30.62000 140.000
30.63500 136.000
30.65000 140.000
30.66500 135.000
30.68000 125.000
30.69500 126.000
30.71000 117.000
30.72500 108.000
30.74000 118.000
30.75500 125.000
30.77000 128.000
30.78500 121.000
30.80000 135.000
30.81500 134.000
30.83000 103.000
30.84500 113.000
30.86000 120.000
30.87500 109.000
30.89000 110.000
30.90500 126.000
30.92000 131.000
30.93500 106.000
30.95000 109.000
30.96500 110.000
30.98000 125.000
30.99500 143.000
31.01000 145.000
31.02500 143.000
31.04000 114.000
31.05500 116.000
31.07000 115.000
31.08500 116.000
31.10000 126.000
31.11500 134.000
31.13000 118.000
31.14500 126.000
31.16000 127.000
31.17500 125.000
31.19000 146.000
31.20500 140.000
31.22000 159.000
31.23500 182.000
31.25000 221.000
31.26500 256.000
31.28000 294.000
31.29500 432.000
31.31000 584.000
31.32500 747.000
31.34000 949.000
31.35500 1097.000
31.37000 1133.000
31.38500 1092.000
31.40000 909.000
31.41500 708.000
31.43000 517.000
31.44500 346.000
31.46000 271.000
31.47500 215.000
31.49000 180.000
31.50500 172.000
31.52000 176.000
31.53500 149.000
31.55000 138.000
31.56500 125.000
31.58000 135.000
31.59500 141.000
31.61000 140.000
31.62500 136.000
31.64000 137.000
31.65500 134.000
31.67000 135.000
31.68500 137.000
31.70000 131.000
31.71500 128.000
31.73000 128.000
31.74500 110.000
31.76000 108.000
31.77500 127.000
31.79000 103.000
31.80500 122.000
31.82000 115.000
31.83500 98.000
31.85000 110.000
31.86500 111.000
31.88000 127.000
31.89500 106.000
31.91000 99.000
31.92500 118.000
31.94000 116.000
31.95500 119.000
31.97000 125.000
31.98500 122.000
32.00000 115.000
32.01500 132.000
32.03000 130.000
32.04500 132.000
32.06000 130.000
32.07500 126.000
32.09000 129.000
32.10500 132.000
32.12000 123.000
32.13500 118.000
32.15000 127.000
32.16500 129.000
32.18000 135.000
32.19500 100.000
32.21000 105.000
32.22500 123.000
32.24000 127.000
32.25500 123.000
32.27000 122.000
32.28500 109.000
32.30000 122.000
32.31500 123.000
32.33000 123.000
32.34500 120.000
32.36000 120.000
32.37500 103.000
32.39000 97.000
32.40500 106.000
32.42000 102.000
32.43500 121.000
32.45000 123.000
32.46500 107.000
32.48000 111.000
32.49500 123.000
32.51000 130.000
32.52500 125.000
32.54000 104.000
32.55500 113.000
32.57000 99.000
32.58500 95.000
32.60000 102.000
32.61500 117.000
32.63000 127.000
32.64500 129.000
32.66000 120.000
32.67500 128.000
32.69000 123.000
32.70500 113.000
32.72000 124.000
32.73500 114.000
32.75000 93.000
32.76500 95.000
32.78000 109.000
32.79500 104.000
32.81000 99.000
32.82500 112.000
32.84000 119.000
32.85500 122.000
32.87000 113.000
32.88500 89.000
32.90000 90.000
32.91500 99.000
32.93000 100.000
32.94500 111.000
32.96000 92.000
32.97500 90.000
32.99000 109.000
33.00500 100.000
33.02000 117.000
33.03500 115.000
33.05000 110.000
33.06500 108.000
33.08000 102.000
33.09500 128.000
33.11000 132.000
33.12500 140.000
33.14000 118.000
33.15500 110.000
33.17000 131.000
33.18500 139.000
33.20000 168.000
33.21500 187.000
33.23000 191.000
33.24500 211.000
33.26000 215.000
33.27500 213.000
33.29000 202.000
33.30500 182.000
33.32000 158.000
33.33500 138.000
33.35000 135.000
33.36500 131.000
33.38000 121.000
33.39500 137.000
33.41000 135.000
33.42500 148.000
33.44000 159.000
33.45500 162.000
33.47000 129.000
33.48500 137.000
33.50000 139.000
33.51500 139.000
33.53000 121.000
33.54500 112.000
33.56000 108.000
33.57500 118.000
33.59000 109.000
33.60500 118.000
33.62000 120.000
33.63500 118.000
33.65000 119.000
33.66500 120.000
33.68000 129.000
33.69500 142.000
33.71000 142.000
33.72500 148.000
33.74000 143.000
33.75500 153.000
33.77000 136.000
33.78500 126.000
33.80000 110.000
33.81500 110.000
33.83000 104.000
33.84500 98.000
33.86000 91.000
33.87500 107.000
33.89000 112.000
33.90500 106.000
33.92000 129.000
33.93500 126.000
33.95000 126.000
33.96500 148.000
33.98000 155.000
33.99500 166.000
34.01000 173.000
34.02500 207.000
34.04000 252.000
34.05500 291.000
34.07000 366.000
34.08500 501.000
34.10000 634.000
34.11500 819.000
34.13000 872.000
34.14500 863.000
34.16000 776.000
34.17500 677.000
34.19000 456.000
34.20500 366.000
34.22000 361.000
34.23500 297.000
34.25000 296.000
34.26500 262.000
34.28000 201.000
34.29500 188.000
34.31000 156.000
34.32500 136.000
34.34000 125.000
34.35500 133.000
34.37000 123.000
34.38500 120.000
34.40000 102.000
34.41500 116.000
34.43000 126.000
34.44500 107.000
34.46000 117.000
34.47500 110.000
34.49000 96.000
34.50500 109.000
34.52000 105.000
34.53500 103.000
34.55000 115.000
34.56500 116.000
34.58000 113.000
34.59500 108.000
34.61000 111.000
34.62500 103.000
34.64000 119.000
34.65500 108.000
34.67000 126.000
34.68500 127.000
34.70000 117.000
34.71500 116.000
34.73000 136.000
34.74500 133.000
34.76000 152.000
34.77500 155.000
34.79000 177.000
34.80500 173.000
34.82000 221.000
34.83500 242.000
34.85000 256.000
34.86500 274.000
34.88000 317.000
34.89500 295.000
34.91000 278.000
34.92500 239.000
34.94000 205.000
34.95500 165.000
34.97000 151.000
34.98500 131.000
35.00000 116.000
35.01500 100.000
35.03000 110.000
35.04500 108.000
35.06000 95.000
35.07500 125.000
35.09000 133.000
35.10500 112.000
35.12000 105.000
35.13500 95.000
35.15000 110.000
35.16500 107.000
35.18000 105.000
35.19500 101.000
35.21000 95.000
35.22500 119.000
35.24000 112.000
35.25500 106.000
35.27000 110.000
35.28500 119.000
35.30000 128.000
35.31500 125.000
35.33000 100.000
35.34500 105.000
35.36000 105.000
35.37500 114.000
35.39000 119.000
35.40500 113.000
35.42000 112.000
35.43500 114.000
35.45000 120.000
35.46500 98.000
35.48000 113.000
35.49500 117.000
35.51000 98.000
35.52500 116.000
35.54000 112.000
35.55500 107.000
35.57000 98.000
35.58500 100.000
35.60000 123.000
35.61500 112.000
35.63000 121.000
35.64500 117.000
35.66000 117.000
35.67500 122.000
35.69000 108.000
35.70500 115.000
35.72000 137.000
35.73500 159.000
35.75000 188.000
35.76500 231.000
35.78000 272.000
35.79500 365.000
35.81000 465.000
35.82500 507.000
35.84000 546.000
35.85500 573.000
35.87000 559.000
35.88500 490.000
35.90000 399.000
35.91500 304.000
35.93000 270.000
35.94500 226.000
35.96000 222.000
35.97500 191.000
35.99000 187.000
36.00500 204.000
36.02000 210.000
36.03500 256.000
36.05000 262.000
36.06500 281.000
36.08000 267.000
36.09500 268.000
36.11000 250.000
36.12500 212.000
36.14000 164.000
36.15500 164.000
36.17000 160.000
36.18500 126.000
36.20000 119.000
36.21500 119.000
36.23000 106.000
36.24500 108.000
36.26000 100.000
36.27500 88.000
36.29000 98.000
36.30500 77.000
36.32000 90.000
36.33500 101.000
36.35000 106.000
36.36500 101.000
36.38000 98.000
36.39500 108.000
36.41000 98.000
36.42500 113.000
36.44000 93.000
36.45500 102.000
36.47000 97.000
36.48500 98.000
36.50000 97.000
36.51500 101.000
36.53000 94.000
36.54500 99.000
36.56000 97.000
36.57500 92.000
36.59000 97.000
36.60500 90.000
36.62000 96.000
36.63500 95.000
36.65000 99.000
36.66500 96.000
36.68000 96.000
36.69500 102.000
36.71000 87.000
36.72500 85.000
36.74000 97.000
36.75500 110.000
36.77000 95.000
36.78500 87.000
36.80000 95.000
36.81500 105.000
36.83000 115.000
36.84500 109.000
36.86000 131.000
36.87500 133.000
36.89000 151.000
36.90500 178.000
36.92000 214.000
36.93500 266.000
36.95000 342.000
36.96500 430.000
36.98000 578.000
36.99500 685.000
37.01000 787.000
37.02500 845.000
37.04000 825.000
37.05500 721.000
37.07000 558.000
37.08500 436.000
37.10000 337.000
37.11500 271.000
37.13000 223.000
37.14500 163.000
37.16000 154.000
37.17500 153.000
37.19000 126.000
37.20500 125.000
37.22000 130.000
37.23500 130.000
37.25000 135.000
37.26500 158.000
37.28000 158.000
37.29500 180.000
37.31000 181.000
37.32500 193.000
37.34000 195.000
37.35500 204.000
37.37000 198.000
37.38500 187.000
37.40000 159.000
37.41500 130.000
37.43000 114.000
37.44500 112.000
37.46000 126.000
37.47500 110.000
37.49000 105.000
37.50500 120.000
37.52000 103.000
37.53500 109.000
37.55000 112.000
37.56500 118.000
37.58000 108.000
37.59500 116.000
37.61000 123.000
37.62500 108.000
37.64000 106.000
37.65500 123.000
37.67000 122.000
37.68500 132.000
37.70000 154.000
37.71500 172.000
37.73000 203.000
37.74500 238.000
37.76000 234.000
37.77500 294.000
37.79000 324.000
37.80500 349.000
37.82000 320.000
37.83500 279.000
37.85000 277.000
37.86500 254.000
37.88000 268.000
37.89500 293.000
37.91000 311.000
37.92500 353.000
37.94000 354.000
37.95500 321.000
37.97000 308.000
37.98500 257.000
38.00000 218.000
38.01500 183.000
38.03000 145.000
38.04500 133.000
38.06000 128.000
38.07500 108.000
38.09000 119.000
38.10500 97.000
38.12000 97.000
38.13500 85.000
38.15000 105.000
38.16500 103.000
38.18000 109.000
38.19500 97.000
38.21000 97.000
38.22500 92.000
38.24000 98.000
38.25500 100.000
38.27000 88.000
38.28500 93.000
38.30000 105.000
38.31500 100.000
38.33000 107.000
38.34500 102.000
38.36000 89.000
38.37500 78.000
38.39000 80.000
38.40500 93.000
38.42000 98.000
38.43500 107.000
38.45000 96.000
38.46500 94.000
38.48000 88.000
38.49500 82.000
38.51000 95.000
38.52500 97.000
38.54000 87.000
38.55500 85.000
38.57000 101.000
38.58500 106.000
38.60000 109.000
38.61500 108.000
38.63000 102.000
38.64500 93.000
38.66000 88.000
38.67500 81.000
38.69000 90.000
38.70500 106.000
38.72000 112.000
38.73500 109.000
38.75000 118.000
38.76500 103.000
38.78000 121.000
38.79500 116.000
38.81000 112.000
38.82500 131.000
38.84000 132.000
38.85500 112.000
38.87000 111.000
38.88500 110.000
38.90000 104.000
38.91500 122.000
38.93000 109.000
38.94500 105.000
38.96000 106.000
38.97500 107.000
38.99000 94.000
39.00500 110.000
39.02000 111.000
39.03500 88.000
39.05000 113.000
39.06500 99.000
39.08000 89.000
39.09500 114.000
39.11000 105.000
39.12500 119.000
39.14000 99.000
39.15500 100.000
39.17000 99.000
39.18500 131.000
39.20000 114.000
39.21500 127.000
39.23000 147.000
39.24500 156.000
39.26000 175.000
39.27500 217.000
39.29000 264.000
39.30500 364.000
39.32000 422.000
39.33500 494.000
39.35000 471.000
39.36500 421.000
39.38000 381.000
39.39500 293.000
39.41000 252.000
39.42500 195.000
39.44000 151.000
39.45500 139.000
39.47000 124.000
39.48500 115.000
39.50000 112.000
39.51500 106.000
39.53000 110.000
39.54500 94.000
39.56000 104.000
39.57500 104.000
39.59000 99.000
39.60500 95.000
39.62000 82.000
39.63500 92.000
39.65000 93.000
39.66500 96.000
39.68000 99.000
39.69500 81.000
39.71000 85.000
39.72500 79.000
39.74000 91.000
39.75500 80.000
39.77000 73.000
39.78500 95.000
39.80000 86.000
39.81500 83.000
39.83000 94.000
39.84500 106.000
39.86000 96.000
39.87500 99.000
39.89000 92.000
39.90500 92.000
39.92000 87.000
39.93500 98.000
39.95000 96.000
39.96500 98.000
39.98000 88.000
39.99500 99.000
40.01000 95.000
40.02500 83.000
40.04000 89.000
40.05500 93.000
40.07000 90.000
40.08500 96.000
40.10000 86.000
40.11500 95.000
40.13000 82.000
40.14500 94.000
40.16000 89.000
40.17500 88.000
40.19000 99.000
40.20500 104.000
40.22000 93.000
40.23500 82.000
40.25000 79.000
40.26500 80.000
40.28000 87.000
40.29500 81.000
40.31000 86.000
40.32500 105.000
40.34000 103.000
40.35500 101.000
40.37000 92.000
40.38500 103.000
40.40000 117.000
40.41500 115.000
40.43000 114.000
40.44500 118.000
40.46000 124.000
40.47500 129.000
40.49000 129.000
40.50500 115.000
40.52000 107.000
40.53500 119.000
40.55000 105.000
40.56500 115.000
40.58000 124.000
40.59500 126.000
40.61000 158.000
40.62500 161.000
40.64000 184.000
40.65500 199.000
40.67000 173.000
40.68500 171.000
40.70000 152.000
40.71500 132.000
40.73000 125.000
40.74500 124.000
40.76000 105.000
40.77500 109.000
40.79000 121.000
40.80500 126.000
40.82000 135.000
40.83500 113.000
40.85000 92.000
40.86500 100.000
40.88000 100.000
40.89500 77.000
40.91000 70.000
40.92500 84.000
40.94000 86.000
40.95500 101.000
40.97000 94.000
40.98500 74.000
41.00000 92.000
41.01500 94.000
41.03000 84.000
41.04500 80.000
41.06000 80.000
41.07500 86.000
41.09000 86.000
41.10500 89.000
41.12000 94.000
41.13500 95.000
41.15000 88.000
41.16500 98.000
41.18000 88.000
41.19500 80.000
41.21000 83.000
41.22500 101.000
41.24000 91.000
41.25500 84.000
41.27000 90.000
41.28500 96.000
41.30000 89.000
41.31500 83.000
41.33000 109.000
41.34500 97.000
41.36000 89.000
41.37500 86.000
41.39000 92.000
41.40500 85.000
41.42000 76.000
41.43500 83.000
41.45000 80.000
41.46500 78.000
41.48000 77.000
41.49500 102.000
41.51000 96.000
41.52500 81.000
41.54000 84.000
41.55500 101.000
41.57000 92.000
41.58500 79.000
41.60000 77.000
41.61500 91.000
41.63000 83.000
41.64500 83.000
41.66000 82.000
41.67500 82.000
41.69000 95.000
41.70500 102.000
41.72000 90.000
41.73500 95.000
41.75000 84.000
41.76500 82.000
41.78000 84.000
41.79500 84.000
41.81000 98.000
41.82500 83.000
41.84000 88.000
41.85500 80.000
41.87000 101.000
41.88500 110.000
41.90000 101.000
41.91500 105.000
41.93000 97.000
41.94500 107.000
41.96000 132.000
41.97500 150.000
41.99000 171.000
42.00500 187.000
42.02000 192.000
42.03500 212.000
42.05000 242.000
42.06500 249.000
42.08000 252.000
42.09500 237.000
42.11000 228.000
42.12500 186.000
42.14000 170.000
42.15500 192.000
42.17000 152.000
42.18500 142.000
42.20000 135.000
42.21500 131.000
42.23000 119.000
42.24500 100.000
42.26000 104.000
42.27500 107.000
42.29000 92.000
42.30500 90.000
42.32000 102.000
42.33500 101.000
42.35000 102.000
42.36500 90.000
42.38000 100.000
42.39500 105.000
42.41000 123.000
42.42500 101.000
42.44000 99.000
42.45500 96.000
42.47000 107.000
42.48500 103.000
42.50000 109.000
42.51500 112.000
42.53000 110.000
42.54500 152.000
42.56000 155.000
42.57500 178.000
42.59000 185.000
42.60500 225.000
42.62000 299.000
42.63500 382.000
42.65000 468.000
42.66500 505.000
42.68000 595.000
42.69500 670.000
42.71000 717.000
42.72500 699.000
42.74000 697.000
42.75500 603.000
42.77000 533.000
42.78500 446.000
42.80000 363.000
42.81500 277.000
42.83000 257.000
42.84500 218.000
42.86000 176.000
42.87500 159.000
42.89000 145.000
42.90500 120.000
42.92000 109.000
42.93500 125.000
42.95000 120.000
42.96500 110.000
42.98000 111.000
42.99500 119.000
43.01000 117.000
43.02500 136.000
43.04000 134.000
43.05500 143.000
43.07000 148.000
43.08500 153.000
43.10000 200.000
43.11500 211.000
43.13000 192.000
43.14500 173.000
43.16000 142.000
43.17500 139.000
43.19000 134.000
43.20500 134.000
43.22000 109.000
43.23500 103.000
43.25000 88.000
43.26500 96.000
43.28000 112.000
43.29500 95.000
43.31000 104.000
43.32500 106.000
43.34000 105.000
43.35500 101.000
43.37000 112.000
43.38500 120.000
43.40000 99.000
43.41500 111.000
43.43000 98.000
43.44500 89.000
43.46000 84.000
43.47500 87.000
43.49000 92.000
43.50500 100.000
43.52000 103.000
43.53500 97.000
43.55000 93.000
43.56500 89.000
43.58000 98.000
43.59500 96.000
43.61000 98.000
43.62500 84.000
43.64000 86.000
43.65500 86.000
43.67000 102.000
43.68500 102.000
43.70000 86.000
43.71500 92.000
43.73000 95.000
43.74500 96.000
43.76000 92.000
43.77500 87.000
43.79000 84.000
43.80500 101.000
43.82000 119.000
43.83500 121.000
43.85000 113.000
43.86500 122.000
43.88000 148.000
43.89500 165.000
43.91000 181.000
43.92500 165.000
43.94000 163.000
43.95500 158.000
43.97000 156.000
43.98500 147.000
44.00000 116.000
44.01500 114.000
44.03000 129.000
44.04500 107.000
44.06000 96.000
44.07500 95.000
44.09000 102.000
44.10500 106.000
44.12000 112.000
44.13500 102.000
44.15000 108.000
44.16500 111.000
44.18000 93.000
44.19500 88.000
44.21000 103.000
44.22500 125.000
44.24000 124.000
44.25500 123.000
44.27000 125.000
44.28500 135.000
44.30000 157.000
44.31500 159.000
44.33000 173.000
44.34500 156.000
44.36000 142.000
44.37500 122.000
44.39000 121.000
44.40500 128.000
44.42000 113.000
44.43500 103.000
44.45000 106.000
44.46500 119.000
44.48000 112.000
44.49500 108.000
44.51000 114.000
44.52500 114.000
44.54000 98.000
44.55500 110.000
44.57000 113.000
44.58500 105.000
44.60000 107.000
44.61500 90.000
44.63000 91.000
44.64500 101.000
44.66000 101.000
44.67500 105.000
44.69000 99.000
44.70500 103.000
44.72000 105.000
44.73500 97.000
44.75000 88.000
44.76500 89.000
44.78000 97.000
44.79500 88.000
44.81000 104.000
44.82500 93.000
44.84000 92.000
44.85500 89.000
44.87000 95.000
44.88500 109.000
44.90000 99.000
44.91500 86.000
44.93000 93.000
44.94500 101.000
44.96000 105.000
44.97500 105.000
44.99000 112.000
45.00500 119.000
45.02000 126.000
45.03500 130.000
45.05000 137.000
45.06500 148.000
45.08000 146.000
45.09500 155.000
45.11000 178.000
45.12500 171.000
45.14000 175.000
45.15500 168.000
45.17000 158.000
45.18500 164.000
45.20000 155.000
45.21500 144.000
45.23000 137.000
45.24500 133.000
45.26000 125.000
45.27500 135.000
45.29000 130.000
45.30500 100.000
45.32000 111.000
45.33500 100.000
45.35000 99.000
45.36500 92.000
45.38000 97.000
45.39500 98.000
45.41000 110.000
45.42500 122.000
45.44000 127.000
45.45500 136.000
45.47000 149.000
45.48500 165.000
45.50000 196.000
45.51500 201.000
45.53000 254.000
45.54500 249.000
45.56000 277.000
45.57500 276.000
45.59000 268.000
45.60500 228.000
45.62000 225.000
45.63500 201.000
45.65000 193.000
45.66500 162.000
45.68000 138.000
45.69500 134.000
45.71000 128.000
45.72500 119.000
45.74000 114.000
45.75500 103.000
45.77000 101.000
45.78500 98.000
45.80000 98.000
45.81500 99.000
45.83000 105.000
45.84500 94.000
45.86000 107.000
45.87500 118.000
45.89000 95.000
45.90500 109.000
45.92000 113.000
45.93500 105.000
45.95000 104.000
45.96500 109.000
45.98000 97.000
45.99500 101.000
46.01000 107.000
46.02500 106.000
46.04000 114.000
46.05500 112.000
46.07000 102.000
46.08500 93.000
46.10000 116.000
46.11500 105.000
46.13000 115.000
46.14500 132.000
46.16000 134.000
46.17500 136.000
46.19000 154.000
46.20500 171.000
46.22000 163.000
46.23500 184.000
46.25000 227.000
46.26500 223.000
46.28000 228.000
46.29500 257.000
46.31000 216.000
46.32500 177.000
46.34000 188.000
46.35500 174.000
46.37000 146.000
46.38500 121.000
46.40000 108.000
46.41500 120.000
46.43000 106.000
46.44500 111.000
46.46000 110.000
46.47500 92.000
46.49000 87.000
46.50500 86.000
46.52000 106.000
46.53500 80.000
46.55000 86.000
46.56500 102.000
46.58000 100.000
46.59500 99.000
46.61000 98.000
46.62500 102.000
46.64000 89.000
46.65500 77.000
46.67000 74.000
46.68500 98.000
46.70000 90.000
46.71500 92.000
46.73000 89.000
46.74500 83.000
46.76000 91.000
46.77500 100.000
46.79000 94.000
46.80500 94.000
46.82000 90.000
46.83500 101.000
46.85000 91.000
46.86500 89.000
46.88000 89.000
46.89500 99.000
46.91000 102.000
46.92500 110.000
46.94000 108.000
46.95500 108.000
46.97000 104.000
46.98500 102.000
47.00000 115.000
47.01500 123.000
47.03000 134.000
47.04500 127.000
47.06000 150.000
47.07500 149.000
47.09000 149.000
47.10500 160.000
47.12000 147.000
47.13500 157.000
47.15000 148.000
47.16500 148.000
47.18000 141.000
47.19500 116.000
47.21000 119.000
47.22500 115.000
47.24000 104.000
47.25500 95.000
47.27000 86.000
47.28500 99.000
47.30000 107.000
47.31500 98.000
47.33000 97.000
47.34500 101.000
47.36000 92.000
47.37500 86.000
47.39000 88.000
47.40500 103.000
47.42000 97.000
47.43500 98.000
47.45000 108.000
47.46500 117.000
47.48000 119.000
47.49500 107.000
47.51000 122.000
47.52500 131.000
47.54000 149.000
47.55500 150.000
47.57000 179.000
47.58500 181.000
47.60000 207.000
47.61500 249.000
47.63000 264.000
47.64500 250.000
47.66000 295.000
47.67500 375.000
47.69000 373.000
47.70500 413.000
47.72000 423.000
47.73500 485.000
47.75000 459.000
47.76500 436.000
47.78000 437.000
47.79500 382.000
47.81000 373.000
47.82500 349.000
47.84000 339.000
47.85500 333.000
47.87000 283.000
47.88500 253.000
47.90000 213.000
47.91500 175.000
47.93000 187.000
47.94500 151.000
47.96000 133.000
47.97500 128.000
47.99000 153.000
48.00500 134.000
48.02000 115.000
48.03500 129.000
48.05000 124.000
48.06500 108.000
48.08000 110.000
48.09500 107.000
48.11000 99.000
48.12500 107.000
48.14000 110.000
48.15500 101.000
48.17000 114.000
48.18500 108.000
48.20000 111.000
48.21500 119.000
48.23000 106.000
48.24500 105.000
48.26000 87.000
48.27500 87.000
48.29000 96.000
48.30500 100.000
48.32000 134.000
48.33500 105.000
48.35000 95.000
48.36500 95.000
48.38000 108.000
48.39500 103.000
48.41000 109.000
48.42500 111.000
48.44000 114.000
48.45500 99.000
48.47000 102.000
48.48500 107.000
48.50000 98.000
48.51500 104.000
48.53000 110.000
48.54500 115.000
48.56000 117.000
48.57500 103.000
48.59000 89.000
48.60500 102.000
48.62000 100.000
48.63500 79.000
48.65000 97.000
48.66500 90.000
48.68000 94.000
48.69500 112.000
48.71000 99.000
48.72500 96.000
48.74000 103.000
48.75500 101.000
48.77000 101.000
48.78500 96.000
48.80000 87.000
48.81500 88.000
48.83000 97.000
48.84500 95.000
48.86000 97.000
48.87500 112.000
48.89000 104.000
48.90500 96.000
48.92000 108.000
48.93500 89.000
48.95000 125.000
48.96500 123.000
48.98000 126.000
48.99500 145.000
49.01000 119.000
49.02500 123.000
49.04000 139.000
49.05500 135.000
49.07000 124.000
49.08500 130.000
49.10000 114.000
49.11500 126.000
49.13000 116.000
49.14500 116.000
49.16000 120.000
49.17500 117.000
49.19000 109.000
49.20500 97.000
49.22000 106.000
49.23500 85.000
49.25000 95.000
49.26500 98.000
49.28000 96.000
49.29500 95.000
49.31000 98.000
49.32500 100.000
49.34000 108.000
49.35500 110.000
49.37000 113.000
49.38500 135.000
49.40000 131.000
49.41500 135.000
49.43000 147.000
49.44500 145.000
49.46000 156.000
49.47500 167.000
49.49000 183.000
49.50500 143.000
49.52000 141.000
49.53500 139.000
49.55000 118.000
49.56500 138.000
49.58000 150.000
49.59500 119.000
49.61000 141.000
49.62500 171.000
49.64000 152.000
49.65500 163.000
49.67000 162.000
49.68500 154.000
49.70000 171.000
49.71500 152.000
49.73000 153.000
49.74500 135.000
49.76000 128.000
49.77500 149.000
49.79000 131.000
49.80500 141.000
49.82000 160.000
49.83500 184.000
49.85000 191.000
49.86500 228.000
49.88000 237.000
49.89500 265.000
49.91000 293.000
49.92500 279.000
49.94000 301.000
49.95500 314.000
49.97000 327.000
49.98500 341.000
50.00000 334.000
50.01500 315.000
50.03000 265.000
50.04500 236.000
50.06000 228.000
50.07500 191.000
50.09000 179.000
50.10500 144.000
50.12000 141.000
50.13500 144.000
50.15000 116.000
50.16500 108.000
50.18000 105.000
50.19500 110.000
50.21000 103.000
50.22500 104.000
50.24000 101.000
50.25500 94.000
50.27000 116.000
50.28500 108.000
50.30000 117.000
50.31500 110.000
50.33000 102.000
50.34500 116.000
50.36000 105.000
50.37500 117.000
50.39000 120.000
50.40500 125.000
50.42000 130.000
50.43500 121.000
50.45000 122.000
50.46500 113.000
50.48000 103.000
50.49500 103.000
50.51000 121.000
50.52500 128.000
50.54000 121.000
50.55500 109.000
50.57000 112.000
50.58500 121.000
50.60000 102.000
50.61500 101.000
50.63000 109.000
50.64500 103.000
50.66000 92.000
50.67500 95.000
50.69000 109.000
50.70500 107.000
50.72000 105.000
50.73500 118.000
50.75000 102.000
50.76500 120.000
50.78000 119.000
50.79500 116.000
50.81000 109.000
50.82500 118.000
50.84000 125.000
50.85500 112.000
50.87000 93.000
50.88500 101.000
50.90000 107.000
50.91500 109.000
50.93000 110.000
50.94500 110.000
50.96000 107.000
50.97500 124.000
50.99000 125.000
51.00500 124.000
51.02000 118.000
51.03500 141.000
51.05000 181.000
51.06500 198.000
51.08000 232.000
51.09500 238.000
51.11000 306.000
51.12500 348.000
51.14000 418.000
51.15500 517.000
51.17000 553.000
51.18500 607.000
51.20000 689.000
51.21500 700.000
51.23000 644.000
51.24500 548.000
51.26000 470.000
51.27500 400.000
51.29000 321.000
51.30500 272.000
51.32000 237.000
51.33500 193.000
51.35000 161.000
51.36500 150.000
51.38000 154.000
51.39500 143.000
51.41000 136.000
51.42500 117.000
51.44000 117.000
51.45500 114.000
51.47000 130.000
51.48500 120.000
51.50000 103.000
51.51500 108.000
51.53000 117.000
51.54500 112.000
51.56000 131.000
51.57500 111.000
51.59000 108.000
51.60500 111.000
51.62000 127.000
51.63500 122.000
51.65000 112.000
51.66500 136.000
51.68000 136.000
51.69500 126.000
51.71000 123.000
51.72500 130.000
51.74000 105.000
51.75500 108.000
51.77000 120.000
51.78500 126.000
51.80000 113.000
51.81500 110.000
51.83000 123.000
51.84500 129.000
51.86000 150.000
51.87500 145.000
51.89000 144.000
51.90500 177.000
51.92000 183.000
51.93500 239.000
51.95000 253.000
51.96500 285.000
51.98000 308.000
51.99500 362.000
52.01000 383.000
52.02500 387.000
52.04000 368.000
52.05500 344.000
52.07000 341.000
52.08500 255.000
52.10000 235.000
52.11500 220.000
52.13000 180.000
52.14500 155.000
52.16000 159.000
52.17500 137.000
52.19000 145.000
52.20500 119.000
52.22000 110.000
52.23500 137.000
52.25000 131.000
52.26500 111.000
52.28000 111.000
52.29500 113.000
52.31000 118.000
52.32500 115.000
52.34000 112.000
52.35500 100.000
52.37000 112.000
52.38500 110.000
52.40000 115.000
52.41500 102.000
52.43000 106.000
52.44500 118.000
52.46000 100.000
52.47500 104.000
52.49000 96.000
52.50500 91.000
52.52000 117.000
52.53500 119.000
52.55000 105.000
52.56500 101.000
52.58000 112.000
52.59500 121.000
52.61000 123.000
52.62500 129.000
52.64000 117.000
52.65500 103.000
52.67000 104.000
52.68500 102.000
52.70000 113.000
52.71500 113.000
52.73000 121.000
52.74500 134.000
52.76000 120.000
52.77500 132.000
52.79000 119.000
52.80500 141.000
52.82000 149.000
52.83500 161.000
52.85000 176.000
52.86500 188.000
52.88000 200.000
52.89500 232.000
52.91000 279.000
52.92500 300.000
52.94000 319.000
52.95500 352.000
52.97000 410.000
52.98500 390.000
53.00000 389.000
53.01500 390.000
53.03000 371.000
53.04500 357.000
53.06000 375.000
53.07500 403.000
53.09000 430.000
53.10500 473.000
53.12000 461.000
53.13500 454.000
53.15000 430.000
53.16500 372.000
53.18000 298.000
53.19500 274.000
53.21000 238.000
53.22500 229.000
53.24000 224.000
53.25500 196.000
53.27000 174.000
53.28500 187.000
53.30000 164.000
53.31500 161.000
53.33000 148.000
53.34500 142.000
53.36000 125.000
53.37500 131.000
53.39000 137.000
53.40500 118.000
53.42000 118.000
53.43500 115.000
53.45000 125.000
53.46500 121.000
53.48000 112.000
53.49500 108.000
53.51000 115.000
53.52500 138.000
53.54000 122.000
53.55500 119.000
53.57000 125.000
53.58500 122.000
53.60000 120.000
53.61500 123.000
53.63000 131.000
53.64500 113.000
53.66000 114.000
53.67500 98.000
53.69000 118.000
53.70500 128.000
53.72000 136.000
53.73500 139.000
53.75000 143.000
53.76500 157.000
53.78000 177.000
53.79500 191.000
53.81000 213.000
53.82500 229.000
53.84000 257.000
53.85500 317.000
53.87000 363.000
53.88500 371.000
53.90000 422.000
53.91500 437.000
53.93000 423.000
53.94500 436.000
53.96000 382.000
53.97500 352.000
53.99000 303.000
54.00500 270.000
54.02000 231.000
54.03500 210.000
54.05000 184.000
54.06500 173.000
54.08000 146.000
54.09500 146.000
54.11000 155.000
54.12500 133.000
54.14000 129.000
54.15500 144.000
54.17000 155.000
54.18500 132.000
54.20000 123.000
54.21500 109.000
54.23000 111.000
54.24500 114.000
54.26000 106.000
54.27500 118.000
54.29000 99.000
54.30500 116.000
54.32000 109.000
54.33500 114.000
54.35000 126.000
54.36500 116.000
54.38000 104.000
54.39500 111.000
54.41000 110.000
54.42500 98.000
54.44000 105.000
54.45500 107.000
54.47000 113.000
54.48500 109.000
54.50000 97.000
54.51500 107.000
54.53000 94.000
54.54500 104.000
54.56000 103.000
54.57500 113.000
54.59000 119.000
54.60500 119.000
54.62000 121.000
54.63500 124.000
54.65000 111.000
54.66500 100.000
54.68000 109.000
54.69500 107.000
54.71000 117.000
54.72500 108.000
54.74000 108.000
54.75500 103.000
54.77000 109.000
54.78500 124.000
54.80000 117.000
54.81500 124.000
54.83000 114.000
54.84500 115.000
54.86000 117.000
54.87500 104.000
54.89000 117.000
54.90500 116.000
54.92000 129.000
54.93500 118.000
54.95000 124.000
54.96500 135.000
54.98000 130.000
54.99500 125.000
55.01000 155.000
55.02500 173.000
55.04000 182.000
55.05500 185.000
55.07000 174.000
55.08500 195.000
55.10000 207.000
55.11500 199.000
55.13000 217.000
55.14500 211.000
55.16000 188.000
55.17500 181.000
55.19000 177.000
55.20500 180.000
55.22000 189.000
55.23500 171.000
55.25000 164.000
55.26500 150.000
55.28000 158.000
55.29500 132.000
55.31000 169.000
55.32500 190.000
55.34000 185.000
55.35500 173.000
55.37000 171.000
55.38500 193.000
55.40000 177.000
55.41500 178.000
55.43000 167.000
55.44500 140.000
55.46000 153.000
55.47500 163.000
55.49000 163.000
55.50500 163.000
55.52000 145.000
55.53500 139.000
55.55000 142.000
55.56500 137.000
55.58000 144.000
55.59500 169.000
55.61000 165.000
55.62500 187.000
55.64000 201.000
55.65500 243.000
55.67000 267.000
55.68500 266.000
55.70000 291.000
55.71500 309.000
55.73000 350.000
55.74500 336.000
55.76000 330.000
55.77500 291.000
55.79000 249.000
55.80500 227.000
55.82000 265.000
55.83500 261.000
55.85000 227.000
55.86500 193.000
55.88000 181.000
55.89500 192.000
55.91000 172.000
55.92500 168.000
55.94000 160.000
55.95500 159.000
55.97000 151.000
55.98500 140.000
56.00000 137.000
56.01500 124.000
56.03000 119.000
56.04500 124.000
56.06000 119.000
56.07500 117.000
56.09000 124.000
56.10500 104.000
56.12000 125.000
56.13500 103.000
56.15000 125.000
56.16500 137.000
56.18000 131.000
56.19500 135.000
56.21000 121.000
56.22500 120.000
56.24000 130.000
56.25500 117.000
56.27000 127.000
56.28500 110.000
56.30000 112.000
56.31500 117.000
56.33000 111.000
56.34500 132.000
56.36000 124.000
56.37500 112.000
56.39000 120.000
56.40500 122.000
56.42000 130.000
56.43500 137.000
56.45000 135.000
56.46500 136.000
56.48000 162.000
56.49500 186.000
56.51000 183.000
56.52500 187.000
56.54000 221.000
56.55500 261.000
56.57000 270.000
56.58500 295.000
56.60000 334.000
56.61500 353.000
56.63000 364.000
56.64500 425.000
56.66000 394.000
56.67500 378.000
56.69000 367.000
56.70500 343.000
56.72000 320.000
56.73500 311.000
56.75000 265.000
56.76500 258.000
56.78000 219.000
56.79500 213.000
56.81000 197.000
56.82500 187.000
56.84000 158.000
56.85500 153.000
56.87000 167.000
56.88500 160.000
56.90000 148.000
56.91500 135.000
56.93000 139.000
56.94500 135.000
56.96000 131.000
56.97500 151.000
56.99000 135.000
57.00500 132.000
57.02000 152.000
57.03500 145.000
57.05000 141.000
57.06500 156.000
57.08000 140.000
57.09500 142.000
57.11000 152.000
57.12500 155.000
57.14000 137.000
57.15500 156.000
57.17000 173.000
57.18500 185.000
57.20000 204.000
57.21500 222.000
57.23000 234.000
57.24500 248.000
57.26000 281.000
57.27500 282.000
57.29000 307.000
57.30500 319.000
57.32000 327.000
57.33500 351.000
57.35000 341.000
57.36500 306.000
57.38000 285.000
57.39500 252.000
57.41000 235.000
57.42500 203.000
57.44000 204.000
57.45500 204.000
57.47000 183.000
57.48500 192.000
57.50000 208.000
57.51500 208.000
57.53000 222.000
57.54500 245.000
57.56000 219.000
57.57500 217.000
57.59000 218.000
57.60500 224.000
57.62000 202.000
57.63500 189.000
57.65000 197.000
57.66500 197.000
57.68000 186.000
57.69500 193.000
57.71000 194.000
57.72500 183.000
57.74000 179.000
57.75500 176.000
57.77000 179.000
57.78500 179.000
57.80000 179.000
57.81500 158.000
57.83000 150.000
57.84500 173.000
57.86000 160.000
57.87500 128.000
57.89000 150.000
57.90500 137.000
57.92000 127.000
57.93500 112.000
57.95000 119.000
57.96500 117.000
57.98000 122.000
57.99500 126.000
58.01000 119.000
58.02500 120.000
58.04000 100.000
58.05500 97.000
58.07000 121.000
58.08500 113.000
58.10000 120.000
58.11500 108.000
58.13000 107.000
58.14500 99.000
58.16000 110.000
58.17500 105.000
58.19000 109.000
58.20500 107.000
58.22000 94.000
58.23500 113.000
58.25000 114.000
58.26500 101.000
58.28000 115.000
58.29500 105.000
58.31000 103.000
58.32500 111.000
58.34000 113.000
58.35500 104.000
58.37000 107.000
58.38500 100.000
58.40000 115.000
58.41500 114.000
58.43000 108.000
58.44500 112.000
58.46000 115.000
58.47500 116.000
58.49000 101.000
58.50500 104.000
58.52000 121.000
58.53500 112.000
58.55000 93.000
58.56500 113.000
58.58000 120.000
58.59500 113.000
58.61000 120.000
58.62500 104.000
58.64000 123.000
58.65500 112.000
58.67000 121.000
58.68500 108.000
58.70000 109.000
58.71500 99.000
58.73000 105.000
58.74500 124.000
58.76000 110.000
58.77500 104.000
58.79000 100.000
58.80500 109.000
58.82000 114.000
58.83500 113.000
58.85000 118.000
58.86500 105.000
58.88000 118.000
58.89500 107.000
58.91000 123.000
58.92500 122.000
58.94000 123.000
58.95500 134.000
58.97000 139.000
58.98500 162.000
59.00000 156.000
59.01500 166.000
59.03000 164.000
59.04500 167.000
59.06000 181.000
59.07500 183.000
59.09000 193.000
59.10500 157.000
59.12000 160.000
59.13500 157.000
59.15000 142.000
59.16500 145.000
59.18000 151.000
59.19500 138.000
59.21000 143.000
59.22500 144.000
59.24000 128.000
59.25500 123.000
59.27000 129.000
59.28500 123.000
59.30000 126.000
59.31500 115.000
59.33000 111.000
59.34500 114.000
59.36000 110.000
59.37500 105.000
59.39000 115.000
59.40500 113.000
59.42000 96.000
59.43500 110.000
59.45000 108.000
59.46500 95.000
59.48000 113.000
59.49500 107.000
59.51000 103.000
59.52500 127.000
59.54000 126.000
59.55500 113.000
59.57000 96.000
59.58500 107.000
59.60000 103.000
59.61500 114.000
59.63000 121.000
59.64500 115.000
59.66000 113.000
59.67500 114.000
59.69000 117.000
59.70500 114.000
59.72000 125.000
59.73500 152.000
59.75000 146.000
59.76500 142.000
59.78000 117.000
59.79500 124.000
59.81000 141.000
59.82500 128.000
59.84000 156.000
59.85500 167.000
59.87000 164.000
59.88500 152.000
59.90000 145.000
59.91500 162.000
59.93000 189.000
59.94500 190.000
59.96000 184.000
59.97500 185.000
59.99000 189.000
60.00500 152.000
60.02000 153.000
60.03500 150.000
60.05000 134.000
60.06500 140.000
60.08000 136.000
60.09500 135.000
60.11000 148.000
60.12500 155.000
60.14000 163.000
60.15500 168.000
60.17000 161.000
60.18500 157.000
60.20000 145.000
60.21500 131.000
60.23000 123.000
60.24500 137.000
60.26000 115.000
60.27500 122.000
60.29000 123.000
60.30500 111.000
60.32000 123.000
60.33500 142.000
60.35000 127.000
60.36500 126.000
60.38000 142.000
60.39500 148.000
60.41000 148.000
60.42500 176.000
60.44000 169.000
60.45500 177.000
60.47000 178.000
60.48500 181.000
60.50000 182.000
60.51500 157.000
60.53000 145.000
60.54500 137.000
60.56000 160.000
60.57500 142.000
60.59000 151.000
60.60500 124.000
60.62000 113.000
60.63500 113.000
60.65000 110.000
60.66500 100.000
60.68000 107.000
60.69500 114.000
60.71000 110.000
60.72500 116.000
60.74000 107.000
60.75500 117.000
60.77000 112.000
60.78500 114.000
60.80000 101.000
60.81500 103.000
60.83000 101.000
60.84500 89.000
60.86000 101.000
60.87500 98.000
60.89000 98.000
60.90500 99.000
60.92000 95.000
60.93500 110.000
60.95000 103.000
60.96500 99.000
60.98000 99.000
60.99500 113.000
61.01000 110.000
61.02500 108.000
61.04000 118.000
61.05500 120.000
61.07000 132.000
61.08500 139.000
61.10000 124.000
61.11500 135.000
61.13000 116.000
61.14500 133.000
61.16000 124.000
61.17500 119.000
61.19000 126.000
61.20500 123.000
61.22000 116.000
61.23500 104.000
61.25000 101.000
61.26500 123.000
61.28000 116.000
61.29500 117.000
61.31000 113.000
61.32500 93.000
61.34000 85.000
61.35500 92.000
61.37000 102.000
61.38500 90.000
61.40000 98.000
61.41500 107.000
61.43000 101.000
61.44500 108.000
61.46000 114.000
61.47500 125.000
61.49000 126.000
61.50500 103.000
61.52000 151.000
61.53500 146.000
61.55000 152.000
61.56500 159.000
61.58000 196.000
61.59500 205.000
61.61000 223.000
61.62500 225.000
61.64000 203.000
61.65500 196.000
61.67000 175.000
61.68500 157.000
61.70000 144.000
61.71500 135.000
61.73000 116.000
61.74500 112.000
61.76000 111.000
61.77500 112.000
61.79000 119.000
61.80500 124.000
61.82000 112.000
61.83500 98.000
61.85000 106.000
61.86500 103.000
61.88000 107.000
61.89500 118.000
61.91000 129.000
61.92500 113.000
61.94000 116.000
61.95500 114.000
61.97000 124.000
61.98500 103.000
