2.00000 467.000
2.01500 439.000
2.03000 450.000
2.04500 467.000
2.06000 404.000
2.07500 380.000
2.09000 416.000
2.10500 404.000
2.12000 370.000
2.13500 402.000
2.15000 392.000
2.16500 369.000
2.18000 341.000
2.19500 349.000
2.21000 332.000
2.22500 341.000
2.24000 327.000
2.25500 330.000
2.27000 309.000
2.28500 322.000
2.30000 329.000
2.31500 323.000
2.33000 291.000
2.34500 302.000
2.36000 290.000
2.37500 309.000
2.39000 305.000
2.40500 310.000
2.42000 288.000
2.43500 276.000
2.45000 262.000
2.46500 282.000
2.48000 272.000
2.49500 267.000
2.51000 273.000
2.52500 269.000
2.54000 237.000
2.55500 240.000
2.57000 262.000
2.58500 260.000
2.60000 250.000
2.61500 241.000
2.63000 248.000
2.64500 245.000
2.66000 217.000
2.67500 236.000
2.69000 251.000
2.70500 239.000
2.72000 219.000
2.73500 201.000
2.75000 238.000
2.76500 238.000
2.78000 239.000
2.79500 242.000
2.81000 229.000
2.82500 218.000
2.84000 204.000
2.85500 233.000
2.87000 224.000
2.88500 194.000
2.90000 207.000
2.91500 198.000
2.93000 212.000
2.94500 232.000
2.96000 214.000
2.97500 213.000
2.99000 194.000
3.00500 209.000
3.02000 216.000
3.03500 202.000
3.05000 192.000
3.06500 196.000
3.08000 207.000
3.09500 199.000
3.11000 196.000
3.12500 192.000
3.14000 174.000
3.15500 183.000
3.17000 180.000
3.18500 165.000
3.20000 193.000
3.21500 197.000
3.23000 191.000
3.24500 183.000
3.26000 168.000
3.27500 173.000
3.29000 180.000
3.30500 178.000
3.32000 179.000
3.33500 185.000
3.35000 169.000
3.36500 165.000
3.38000 160.000
3.39500 184.000
3.41000 182.000
3.42500 159.000
3.44000 168.000
3.45500 177.000
3.47000 156.000
3.48500 175.000
3.50000 179.000
3.51500 178.000
3.53000 167.000
3.54500 169.000
3.56000 161.000
3.57500 159.000
3.59000 159.000
3.60500 160.000
3.62000 163.000
3.63500 165.000
3.65000 179.000
3.66500 163.000
3.68000 161.000
3.69500 169.000
3.71000 165.000
3.72500 164.000
3.74000 165.000
3.75500 157.000
3.77000 160.000
3.78500 147.000
3.80000 152.000
3.81500 159.000
3.83000 154.000
3.84500 150.000
3.86000 155.000
3.87500 150.000
3.89000 149.000
3.90500 144.000
3.92000 154.000
3.93500 155.000
3.95000 148.000
3.96500 167.000
3.98000 175.000
3.99500 163.000
4.01000 140.000
4.02500 176.000
4.04000 174.000
4.05500 165.000
4.07000 175.000
4.08500 156.000
4.10000 160.000
4.11500 141.000
4.13000 141.000
4.14500 160.000
4.16000 151.000
4.17500 161.000
4.19000 161.000
4.20500 147.000
4.22000 170.000
4.23500 172.000
4.25000 149.000
4.26500 148.000
4.28000 152.000
4.29500 173.000
4.31000 166.000
4.32500 160.000
4.34000 151.000
4.35500 160.000
4.37000 146.000
4.38500 147.000
4.40000 155.000
4.41500 136.000
4.43000 129.000
4.44500 145.000
4.46000 160.000
4.47500 159.000
4.49000 153.000
4.50500 127.000
4.52000 146.000
4.53500 154.000
4.55000 144.000
4.56500 157.000
4.58000 137.000
4.59500 148.000
4.61000 151.000
4.62500 151.000
4.64000 138.000
4.65500 159.000
4.67000 140.000
4.68500 148.000
4.70000 143.000
4.71500 147.000
4.73000 153.000
4.74500 148.000
4.76000 137.000
4.77500 146.000
4.79000 161.000
4.80500 156.000
4.82000 151.000
4.83500 152.000
4.85000 149.000
4.86500 148.000
4.88000 152.000
4.89500 148.000
4.91000 140.000
4.92500 161.000
4.94000 154.000
4.95500 143.000
4.97000 143.000
4.98500 138.000
5.00000 162.000
5.01500 159.000
5.03000 137.000
5.04500 150.000
5.06000 140.000
5.07500 157.000
5.09000 143.000
5.10500 138.000
5.12000 129.000
5.13500 144.000
5.15000 157.000
5.16500 162.000
5.18000 147.000
5.19500 137.000
5.21000 138.000
5.22500 140.000
5.24000 146.000
5.25500 146.000
5.27000 138.000
5.28500 150.000
5.30000 149.000
5.31500 142.000
5.33000 140.000
5.34500 146.000
5.36000 156.000
5.37500 151.000
5.39000 131.000
5.40500 137.000
5.42000 154.000
5.43500 138.000
5.45000 138.000
5.46500 123.000
5.48000 139.000
5.49500 154.000
5.51000 127.000
5.52500 145.000
5.54000 136.000
5.55500 139.000
5.57000 150.000
5.58500 143.000
5.60000 158.000
5.61500 166.000
5.63000 138.000
5.64500 125.000
5.66000 135.000
5.67500 140.000
5.69000 146.000
5.70500 141.000
5.72000 131.000
5.73500 147.000
5.75000 142.000
5.76500 135.000
5.78000 141.000
5.79500 143.000
5.81000 144.000
5.82500 137.000
5.84000 126.000
5.85500 133.000
5.87000 129.000
5.88500 146.000
5.90000 141.000
5.91500 153.000
5.93000 160.000
5.94500 143.000
5.96000 138.000
5.97500 150.000
5.99000 155.000
6.00500 166.000
6.02000 137.000
6.03500 147.000
6.05000 146.000
6.06500 143.000
6.08000 153.000
6.09500 134.000
6.11000 151.000
6.12500 164.000
6.14000 149.000
6.15500 177.000
6.17000 157.000
6.18500 134.000
6.20000 135.000
6.21500 127.000
6.23000 139.000
6.24500 133.000
6.26000 149.000
6.27500 133.000
6.29000 157.000
6.30500 148.000
6.32000 150.000
6.33500 154.000
6.35000 144.000
6.36500 142.000
6.38000 158.000
6.39500 147.000
6.41000 155.000
6.42500 155.000
6.44000 162.000
6.45500 136.000
6.47000 143.000
6.48500 147.000
6.50000 132.000
6.51500 143.000
6.53000 148.000
6.54500 149.000
6.56000 147.000
6.57500 146.000
6.59000 160.000
6.60500 145.000
6.62000 145.000
6.63500 140.000
6.65000 152.000
6.66500 146.000
6.68000 153.000
6.69500 149.000
6.71000 154.000
6.72500 161.000
6.74000 154.000
6.75500 160.000
6.77000 156.000
6.78500 163.000
6.80000 166.000
6.81500 161.000
6.83000 151.000
6.84500 145.000
6.86000 154.000
6.87500 138.000
6.89000 150.000
6.90500 146.000
6.92000 156.000
6.93500 163.000
6.95000 154.000
6.96500 149.000
6.98000 148.000
6.99500 132.000
7.01000 137.000
7.02500 144.000
7.04000 154.000
7.05500 169.000
7.07000 154.000
7.08500 140.000
7.10000 140.000
7.11500 138.000
7.13000 154.000
7.14500 149.000
7.16000 143.000
7.17500 156.000
7.19000 148.000
7.20500 145.000
7.22000 125.000
7.23500 138.000
7.25000 151.000
7.26500 160.000
7.28000 145.000
7.29500 145.000
7.31000 174.000
7.32500 161.000
7.34000 152.000
7.35500 138.000
7.37000 136.000
7.38500 151.000
7.40000 132.000
7.41500 145.000
7.43000 152.000
7.44500 149.000
7.46000 128.000
7.47500 139.000
7.49000 155.000
7.50500 155.000
7.52000 146.000
7.53500 147.000
7.55000 138.000
7.56500 139.000
7.58000 141.000
7.59500 144.000
7.61000 161.000
7.62500 163.000
7.64000 165.000
7.65500 141.000
7.67000 136.000
7.68500 149.000
7.70000 144.000
7.71500 148.000
7.73000 147.000
7.74500 160.000
7.76000 153.000
7.77500 133.000
7.79000 134.000
7.80500 170.000
7.82000 153.000
7.83500 151.000
7.85000 149.000
7.86500 143.000
7.88000 156.000
7.89500 153.000
7.91000 153.000
7.92500 150.000
7.94000 144.000
7.95500 149.000
7.97000 126.000
7.98500 148.000
8.00000 163.000
8.01500 145.000
8.03000 156.000
8.04500 166.000
8.06000 142.000
8.07500 154.000
8.09000 149.000
8.10500 162.000
8.12000 142.000
8.13500 167.000
8.15000 161.000
8.16500 152.000
8.18000 160.000
8.19500 154.000
8.21000 149.000
8.22500 166.000
8.24000 171.000
8.25500 155.000
8.27000 170.000
8.28500 203.000
8.30000 167.000
8.31500 188.000
8.33000 168.000
8.34500 168.000
8.36000 180.000
8.37500 175.000
8.39000 172.000
8.40500 178.000
8.42000 177.000
8.43500 185.000
8.45000 174.000
8.46500 204.000
8.48000 204.000
8.49500 210.000
8.51000 215.000
8.52500 196.000
8.54000 215.000
8.55500 204.000
8.57000 205.000
8.58500 223.000
8.60000 218.000
8.61500 205.000
8.63000 205.000
8.64500 205.000
8.66000 199.000
8.67500 206.000
8.69000 201.000
8.70500 184.000
8.72000 171.000
8.73500 188.000
8.75000 190.000
8.76500 194.000
8.78000 175.000
8.79500 160.000
8.81000 176.000
8.82500 177.000
8.84000 179.000
8.85500 164.000
8.87000 161.000
8.88500 180.000
8.90000 148.000
8.91500 154.000
8.93000 162.000
8.94500 164.000
8.96000 158.000
8.97500 161.000
8.99000 172.000
9.00500 178.000
9.02000 172.000
9.03500 157.000
9.05000 155.000
9.06500 168.000
9.08000 160.000
9.09500 144.000
9.11000 141.000
9.12500 166.000
9.14000 136.000
9.15500 154.000
9.17000 170.000
9.18500 159.000
9.20000 154.000
9.21500 145.000
9.23000 150.000
9.24500 149.000
9.26000 142.000
9.27500 154.000
9.29000 156.000
9.30500 153.000
9.32000 162.000
9.33500 147.000
9.35000 145.000
9.36500 153.000
9.38000 137.000
9.39500 143.000
9.41000 166.000
9.42500 153.000
9.44000 156.000
9.45500 156.000
9.47000 177.000
9.48500 167.000
9.50000 152.000
9.51500 158.000
9.53000 146.000
9.54500 150.000
9.56000 146.000
9.57500 143.000
9.59000 150.000
9.60500 154.000
9.62000 158.000
9.63500 168.000
9.65000 156.000
9.66500 176.000
9.68000 151.000
9.69500 151.000
9.71000 142.000
9.72500 142.000
9.74000 149.000
9.75500 147.000
9.77000 163.000
9.78500 167.000
9.80000 162.000
9.81500 146.000
9.83000 138.000
9.84500 155.000
9.86000 155.000
9.87500 166.000
9.89000 151.000
9.90500 163.000
9.92000 170.000
9.93500 156.000
9.95000 178.000
9.96500 172.000
9.98000 166.000
9.99500 158.000
10.01000 189.000
10.02500 179.000
10.04000 176.000
10.05500 153.000
10.07000 187.000
10.08500 183.000
10.10000 163.000
10.11500 179.000
10.13000 155.000
10.14500 153.000
10.16000 151.000
10.17500 152.000
10.19000 144.000
10.20500 146.000
10.22000 144.000
10.23500 147.000
10.25000 155.000
10.26500 154.000
10.28000 151.000
10.29500 152.000
10.31000 169.000
10.32500 161.000
10.34000 151.000
10.35500 138.000
10.37000 160.000
10.38500 161.000
10.40000 160.000
10.41500 149.000
10.43000 156.000
10.44500 151.000
10.46000 145.000
10.47500 151.000
10.49000 156.000
10.50500 168.000
10.52000 170.000
10.53500 157.000
10.55000 154.000
10.56500 166.000
10.58000 149.000
10.59500 141.000
10.61000 149.000
10.62500 163.000
10.64000 164.000
10.65500 164.000
10.67000 169.000
10.68500 161.000
10.70000 161.000
10.71500 162.000
10.73000 182.000
10.74500 148.000
10.76000 148.000
10.77500 179.000
10.79000 164.000
10.80500 160.000
10.82000 160.000
10.83500 165.000
10.85000 174.000
10.86500 155.000
10.88000 166.000
10.89500 167.000
10.91000 189.000
10.92500 186.000
10.94000 160.000
10.95500 154.000
10.97000 160.000
10.98500 166.000
11.00000 172.000
11.01500 170.000
11.03000 183.000
11.04500 180.000
11.06000 199.000
11.07500 201.000
11.09000 191.000
11.10500 188.000
11.12000 200.000
11.13500 206.000
11.15000 193.000
11.16500 208.000
11.18000 217.000
11.19500 213.000
11.21000 197.000
11.22500 214.000
11.24000 215.000
11.25500 219.000
11.27000 250.000
11.28500 259.000
11.30000 246.000
11.31500 262.000
11.33000 248.000
11.34500 278.000
11.36000 327.000
11.37500 331.000
11.39000 361.000
11.40500 361.000
11.42000 380.000
11.43500 394.000
11.45000 381.000
11.46500 394.000
11.48000 399.000
11.49500 445.000
11.51000 464.000
11.52500 440.000
11.54000 434.000
11.55500 457.000
11.57000 486.000
11.58500 462.000
11.60000 471.000
11.61500 406.000
11.63000 387.000
11.64500 422.000
11.66000 406.000
11.67500 382.000
11.69000 397.000
11.70500 369.000
11.72000 344.000
11.73500 319.000
11.75000 338.000
11.76500 309.000
11.78000 326.000
11.79500 317.000
11.81000 311.000
11.82500 317.000
11.84000 307.000
11.85500 316.000
11.87000 294.000
11.88500 283.000
11.90000 276.000
11.91500 276.000
11.93000 269.000
11.94500 273.000
11.96000 256.000
11.97500 239.000
11.99000 249.000
12.00500 207.000
12.02000 223.000
12.03500 225.000
12.05000 209.000
12.06500 193.000
12.08000 180.000
12.09500 189.000
12.11000 171.000
12.12500 170.000
12.14000 174.000
12.15500 163.000
12.17000 173.000
12.18500 171.000
12.20000 184.000
12.21500 169.000
12.23000 159.000
12.24500 155.000
12.26000 187.000
12.27500 177.000
12.29000 149.000
12.30500 155.000
12.32000 173.000
12.33500 146.000
12.35000 145.000
12.36500 159.000
12.38000 157.000
12.39500 157.000
12.41000 146.000
12.42500 140.000
12.44000 146.000
12.45500 151.000
12.47000 159.000
12.48500 158.000
12.50000 168.000
12.51500 177.000
12.53000 197.000
12.54500 153.000
12.56000 185.000
12.57500 155.000
12.59000 182.000
12.60500 168.000
12.62000 165.000
12.63500 148.000
12.65000 135.000
12.66500 180.000
12.68000 181.000
12.69500 197.000
12.71000 195.000
12.72500 186.000
12.74000 169.000
12.75500 164.000
12.77000 170.000
12.78500 191.000
12.80000 195.000
12.81500 192.000
12.83000 183.000
12.84500 197.000
12.86000 191.000
12.87500 211.000
12.89000 222.000
12.90500 192.000
12.92000 199.000
12.93500 193.000
12.95000 203.000
12.96500 188.000
12.98000 182.000
12.99500 195.000
13.01000 182.000
13.02500 200.000
13.04000 192.000
13.05500 171.000
13.07000 173.000
13.08500 191.000
13.10000 220.000
13.11500 188.000
13.13000 181.000
13.14500 185.000
13.16000 176.000
13.17500 183.000
13.19000 191.000
13.20500 179.000
13.22000 182.000
13.23500 180.000
13.25000 195.000
13.26500 197.000
13.28000 203.000
13.29500 193.000
13.31000 191.000
13.32500 177.000
13.34000 182.000
13.35500 172.000
13.37000 167.000
13.38500 169.000
13.40000 176.000
13.41500 179.000
13.43000 151.000
13.44500 175.000
13.46000 178.000
13.47500 151.000
13.49000 171.000
13.50500 162.000
13.52000 145.000
13.53500 153.000
13.55000 169.000
13.56500 157.000
13.58000 128.000
13.59500 153.000
13.61000 152.000
13.62500 137.000
13.64000 143.000
13.65500 140.000
13.67000 170.000
13.68500 158.000
13.70000 149.000
13.71500 159.000
13.73000 156.000
13.74500 158.000
13.76000 150.000
13.77500 141.000
13.79000 160.000
13.80500 163.000
13.82000 161.000
13.83500 143.000
13.85000 160.000
13.86500 153.000
13.88000 164.000
13.89500 155.000
13.91000 146.000
13.92500 142.000
13.94000 146.000
13.95500 142.000
13.97000 147.000
13.98500 163.000
14.00000 173.000
14.01500 159.000
14.03000 165.000
14.04500 161.000
14.06000 158.000
14.07500 160.000
14.09000 147.000
14.10500 150.000
14.12000 143.000
14.13500 141.000
14.15000 143.000
14.16500 155.000
14.18000 165.000
14.19500 152.000
14.21000 151.000
14.22500 148.000
14.24000 166.000
14.25500 175.000
14.27000 145.000
14.28500 167.000
14.30000 152.000
14.31500 148.000
14.33000 148.000
14.34500 147.000
14.36000 143.000
14.37500 142.000
14.39000 143.000
14.40500 146.000
14.42000 147.000
14.43500 141.000
14.45000 160.000
14.46500 139.000
14.48000 154.000
14.49500 147.000
14.51000 154.000
14.52500 147.000
14.54000 152.000
14.55500 178.000
14.57000 160.000
14.58500 156.000
14.60000 162.000
14.61500 141.000
14.63000 143.000
14.64500 173.000
14.66000 153.000
14.67500 152.000
14.69000 155.000
14.70500 151.000
14.72000 142.000
14.73500 141.000
14.75000 148.000
14.76500 167.000
14.78000 152.000
14.79500 161.000
14.81000 163.000
14.82500 169.000
14.84000 171.000
14.85500 175.000
14.87000 159.000
14.88500 163.000
14.90000 166.000
14.91500 142.000
14.93000 149.000
14.94500 142.000
14.96000 157.000
14.97500 159.000
14.99000 154.000
15.00500 169.000
15.02000 157.000
15.03500 149.000
15.05000 160.000
15.06500 169.000
15.08000 150.000
15.09500 141.000
15.11000 154.000
15.12500 152.000
15.14000 143.000
15.15500 140.000
15.17000 156.000
15.18500 143.000
15.20000 162.000
15.21500 160.000
15.23000 140.000
15.24500 156.000
15.26000 161.000
15.27500 153.000
15.29000 151.000
15.30500 135.000
15.32000 143.000
15.33500 135.000
15.35000 148.000
15.36500 152.000
15.38000 155.000
15.39500 152.000
15.41000 167.000
15.42500 150.000
15.44000 151.000
15.45500 167.000
15.47000 162.000
15.48500 168.000
15.50000 136.000
15.51500 135.000
15.53000 136.000
15.54500 157.000
15.56000 137.000
15.57500 148.000
15.59000 157.000
15.60500 149.000
15.62000 145.000
15.63500 172.000
15.65000 165.000
15.66500 149.000
15.68000 159.000
15.69500 159.000
15.71000 136.000
15.72500 154.000
15.74000 156.000
15.75500 150.000
15.77000 150.000
15.78500 147.000
15.80000 168.000
15.81500 164.000
15.83000 173.000
15.84500 150.000
15.86000 158.000
15.87500 175.000
15.89000 180.000
15.90500 175.000
15.92000 163.000
15.93500 159.000
15.95000 152.000
15.96500 170.000
15.98000 161.000
15.99500 156.000
16.01000 170.000
16.02500 168.000
16.04000 152.000
16.05500 159.000
16.07000 150.000
16.08500 171.000
16.10000 145.000
16.11500 141.000
16.13000 165.000
16.14500 147.000
16.16000 136.000
16.17500 159.000
16.19000 161.000
16.20500 185.000
16.22000 165.000
16.23500 183.000
16.25000 155.000
16.26500 174.000
16.28000 157.000
16.29500 150.000
16.31000 144.000
16.32500 146.000
16.34000 142.000
16.35500 161.000
16.37000 177.000
16.38500 140.000
16.40000 158.000
16.41500 149.000
16.43000 166.000
16.44500 161.000
16.46000 156.000
16.47500 155.000
16.49000 154.000
16.50500 163.000
16.52000 171.000
16.53500 150.000
16.55000 167.000
16.56500 173.000
16.58000 177.000
16.59500 163.000
16.61000 152.000
16.62500 168.000
16.64000 160.000
16.65500 161.000
16.67000 150.000
16.68500 160.000
16.70000 161.000
16.71500 153.000
16.73000 162.000
16.74500 158.000
16.76000 167.000
16.77500 174.000
16.79000 152.000
16.80500 165.000
16.82000 154.000
16.83500 159.000
16.85000 150.000
16.86500 155.000
16.88000 173.000
16.89500 169.000
16.91000 156.000
16.92500 160.000
16.94000 161.000
16.95500 154.000
16.97000 153.000
16.98500 151.000
17.00000 173.000
17.01500 159.000
17.03000 139.000
17.04500 167.000
17.06000 179.000
17.07500 175.000
17.09000 164.000
17.10500 159.000
17.12000 152.000
17.13500 168.000
17.15000 169.000
17.16500 143.000
17.18000 174.000
17.19500 170.000
17.21000 150.000
17.22500 160.000
17.24000 168.000
17.25500 176.000
17.27000 171.000
17.28500 159.000
17.30000 161.000
17.31500 162.000
17.33000 159.000
17.34500 161.000
17.36000 176.000
17.37500 173.000
17.39000 182.000
17.40500 168.000
17.42000 169.000
17.43500 171.000
17.45000 173.000
17.46500 184.000
17.48000 181.000
17.49500 171.000
17.51000 174.000
17.52500 168.000
17.54000 167.000
17.55500 184.000
17.57000 173.000
17.58500 194.000
17.60000 153.000
17.61500 164.000
17.63000 169.000
17.64500 172.000
17.66000 167.000
17.67500 162.000
17.69000 159.000
17.70500 143.000
17.72000 168.000
17.73500 194.000
17.75000 172.000
17.76500 170.000
17.78000 170.000
17.79500 177.000
17.81000 172.000
17.82500 175.000
17.84000 171.000
17.85500 136.000
17.87000 157.000
17.88500 198.000
17.90000 208.000
17.91500 154.000
17.93000 159.000
17.94500 159.000
17.96000 168.000
17.97500 170.000
17.99000 184.000
18.00500 204.000
18.02000 193.000
18.03500 184.000
18.05000 160.000
18.06500 150.000
18.08000 172.000
18.09500 186.000
18.11000 181.000
18.12500 182.000
18.14000 176.000
18.15500 210.000
18.17000 186.000
18.18500 158.000
18.20000 179.000
18.21500 192.000
18.23000 167.000
18.24500 185.000
18.26000 178.000
18.27500 179.000
18.29000 196.000
18.30500 185.000
18.32000 190.000
18.33500 177.000
18.35000 161.000
18.36500 185.000
18.38000 188.000
18.39500 174.000
18.41000 191.000
18.42500 190.000
18.44000 205.000
18.45500 204.000
18.47000 183.000
18.48500 174.000
18.50000 175.000
18.51500 187.000
18.53000 190.000
18.54500 208.000
18.56000 178.000
18.57500 192.000
18.59000 172.000
18.60500 177.000
18.62000 175.000
18.63500 196.000
18.65000 192.000
18.66500 165.000
18.68000 198.000
18.69500 198.000
18.71000 184.000
18.72500 175.000
18.74000 203.000
18.75500 189.000
18.77000 184.000
18.78500 180.000
18.80000 197.000
18.81500 189.000
18.83000 191.000
18.84500 201.000
18.86000 193.000
18.87500 199.000
18.89000 172.000
18.90500 172.000
18.92000 176.000
18.93500 211.000
18.95000 186.000
18.96500 178.000
18.98000 182.000
18.99500 184.000
19.01000 203.000
19.02500 191.000
19.04000 197.000
19.05500 184.000
19.07000 188.000
19.08500 188.000
19.10000 191.000
19.11500 197.000
19.13000 176.000
19.14500 197.000
19.16000 195.000
19.17500 177.000
19.19000 200.000
19.20500 191.000
19.22000 192.000
19.23500 185.000
19.25000 191.000
19.26500 199.000
19.28000 202.000
19.29500 201.000
19.31000 200.000
19.32500 206.000
19.34000 185.000
19.35500 204.000
19.37000 197.000
19.38500 178.000
19.40000 189.000
19.41500 173.000
19.43000 194.000
19.44500 199.000
19.46000 195.000
19.47500 195.000
19.49000 200.000
19.50500 201.000
19.52000 188.000
19.53500 198.000
19.55000 185.000
19.56500 174.000
19.58000 205.000
19.59500 191.000
19.61000 200.000
19.62500 224.000
19.64000 201.000
19.65500 185.000
19.67000 179.000
19.68500 201.000
19.70000 181.000
19.71500 199.000
19.73000 203.000
19.74500 210.000
19.76000 196.000
19.77500 198.000
19.79000 210.000
19.80500 208.000
19.82000 203.000
19.83500 184.000
19.85000 201.000
19.86500 200.000
19.88000 171.000
19.89500 194.000
19.91000 208.000
19.92500 178.000
19.94000 195.000
19.95500 192.000
19.97000 197.000
19.98500 216.000
20.00000 197.000
20.01500 197.000
20.03000 210.000
20.04500 194.000
20.06000 198.000
20.07500 212.000
20.09000 191.000
20.10500 203.000
20.12000 222.000
20.13500 189.000
20.15000 202.000
20.16500 200.000
20.18000 206.000
20.19500 220.000
20.21000 212.000
20.22500 216.000
20.24000 222.000
20.25500 184.000
20.27000 215.000
20.28500 204.000
20.30000 205.000
20.31500 242.000
20.33000 213.000
20.34500 185.000
20.36000 240.000
20.37500 201.000
20.39000 200.000
20.40500 188.000
20.42000 208.000
20.43500 204.000
20.45000 183.000
20.46500 195.000
20.48000 219.000
20.49500 199.000
20.51000 213.000
20.52500 208.000
20.54000 200.000
20.55500 192.000
20.57000 198.000
20.58500 205.000
20.60000 214.000
20.61500 201.000
20.63000 195.000
20.64500 202.000
20.66000 210.000
20.67500 191.000
20.69000 216.000
20.70500 215.000
20.72000 216.000
20.73500 232.000
20.75000 204.000
20.76500 194.000
20.78000 206.000
20.79500 206.000
20.81000 213.000
20.82500 226.000
20.84000 221.000
20.85500 198.000
20.87000 187.000
20.88500 203.000
20.90000 204.000
20.91500 199.000
20.93000 218.000
20.94500 214.000
20.96000 216.000
20.97500 215.000
20.99000 209.000
21.00500 216.000
21.02000 217.000
21.03500 215.000
21.05000 216.000
21.06500 192.000
21.08000 210.000
21.09500 206.000
21.11000 215.000
21.12500 213.000
21.14000 190.000
21.15500 201.000
21.17000 205.000
21.18500 210.000
21.20000 199.000
21.21500 194.000
21.23000 192.000
21.24500 201.000
21.26000 197.000
21.27500 207.000
21.29000 204.000
21.30500 206.000
21.32000 226.000
21.33500 213.000
21.35000 203.000
21.36500 216.000
21.38000 207.000
21.39500 196.000
21.41000 201.000
21.42500 214.000
21.44000 215.000
21.45500 220.000
21.47000 181.000
21.48500 227.000
21.50000 216.000
21.51500 210.000
21.53000 226.000
21.54500 211.000
21.56000 186.000
21.57500 211.000
21.59000 226.000
21.60500 215.000
21.62000 212.000
21.63500 223.000
21.65000 212.000
21.66500 207.000
21.68000 208.000
21.69500 201.000
21.71000 217.000
21.72500 232.000
21.74000 195.000
21.75500 217.000
21.77000 208.000
21.78500 223.000
21.80000 210.000
21.81500 208.000
21.83000 200.000
21.84500 197.000
21.86000 187.000
21.87500 204.000
21.89000 207.000
21.90500 224.000
21.92000 224.000
21.93500 184.000
21.95000 227.000
21.96500 216.000
21.98000 208.000
21.99500 207.000
22.01000 210.000
22.02500 210.000
22.04000 220.000
22.05500 219.000
22.07000 205.000
22.08500 224.000
22.10000 204.000
22.11500 230.000
22.13000 218.000
22.14500 222.000
22.16000 235.000
22.17500 225.000
22.19000 233.000
22.20500 229.000
22.22000 226.000
22.23500 220.000
22.25000 235.000
22.26500 207.000
22.28000 226.000
22.29500 229.000
22.31000 205.000
22.32500 194.000
22.34000 218.000
22.35500 217.000
22.37000 226.000
22.38500 218.000
22.40000 216.000
22.41500 213.000
22.43000 221.000
22.44500 221.000
22.46000 225.000
22.47500 221.000
22.49000 226.000
22.50500 196.000
22.52000 213.000
22.53500 230.000
22.55000 220.000
22.56500 231.000
22.58000 225.000
22.59500 201.000
22.61000 235.000
22.62500 256.000
22.64000 223.000
22.65500 220.000
22.67000 229.000
22.68500 236.000
22.70000 206.000
22.71500 234.000
22.73000 207.000
22.74500 197.000
22.76000 216.000
22.77500 200.000
22.79000 218.000
22.80500 223.000
22.82000 220.000
22.83500 218.000
22.85000 215.000
22.86500 231.000
22.88000 228.000
22.89500 248.000
22.91000 227.000
22.92500 236.000
22.94000 240.000
22.95500 229.000
22.97000 221.000
22.98500 220.000
23.00000 207.000
23.01500 244.000
23.03000 237.000
23.04500 203.000
23.06000 226.000
23.07500 226.000
23.09000 221.000
23.10500 235.000
23.12000 241.000
23.13500 229.000
23.15000 249.000
23.16500 256.000
23.18000 228.000
23.19500 238.000
23.21000 256.000
23.22500 259.000
23.24000 250.000
23.25500 239.000
23.27000 243.000
23.28500 229.000
23.30000 255.000
23.31500 237.000
23.33000 248.000
23.34500 237.000
23.36000 225.000
23.37500 230.000
23.39000 238.000
23.40500 236.000
23.42000 230.000
23.43500 224.000
23.45000 218.000
23.46500 228.000
23.48000 238.000
23.49500 226.000
23.51000 233.000
23.52500 240.000
23.54000 244.000
23.55500 226.000
23.57000 230.000
23.58500 242.000
23.60000 223.000
23.61500 237.000
23.63000 234.000
23.64500 253.000
23.66000 243.000
23.67500 218.000
23.69000 224.000
23.70500 234.000
23.72000 262.000
23.73500 236.000
23.75000 227.000
23.76500 207.000
23.78000 227.000
23.79500 229.000
23.81000 245.000
23.82500 260.000
23.84000 255.000
23.85500 226.000
23.87000 243.000
23.88500 229.000
23.90000 215.000
23.91500 222.000
23.93000 236.000
23.94500 244.000
23.96000 242.000
23.97500 240.000
23.99000 230.000
24.00500 241.000
24.02000 239.000
24.03500 246.000
24.05000 249.000
24.06500 241.000
24.08000 261.000
24.09500 276.000
24.11000 238.000
24.12500 226.000
24.14000 211.000
24.15500 237.000
24.17000 241.000
24.18500 257.000
24.20000 261.000
24.21500 252.000
24.23000 243.000
24.24500 253.000
24.26000 257.000
24.27500 250.000
24.29000 233.000
24.30500 234.000
24.32000 245.000
24.33500 240.000
24.35000 247.000
24.36500 227.000
24.38000 245.000
24.39500 260.000
24.41000 262.000
24.42500 242.000
24.44000 259.000
24.45500 256.000
24.47000 239.000
24.48500 252.000
24.50000 232.000
24.51500 241.000
24.53000 259.000
24.54500 257.000
24.56000 249.000
24.57500 263.000
24.59000 265.000
24.60500 244.000
24.62000 248.000
24.63500 245.000
24.65000 274.000
24.66500 245.000
24.68000 280.000
24.69500 237.000
24.71000 243.000
24.72500 267.000
24.74000 273.000
24.75500 280.000
24.77000 253.000
24.78500 274.000
24.80000 268.000
24.81500 269.000
24.83000 274.000
24.84500 267.000
24.86000 274.000
24.87500 273.000
24.89000 273.000
24.90500 259.000
24.92000 277.000
24.93500 273.000
24.95000 274.000
24.96500 278.000
24.98000 289.000
24.99500 280.000
25.01000 270.000
25.02500 284.000
25.04000 304.000
25.05500 316.000
25.07000 304.000
25.08500 286.000
25.10000 281.000
25.11500 289.000
25.13000 293.000
25.14500 306.000
25.16000 308.000
25.17500 312.000
25.19000 300.000
25.20500 311.000
25.22000 334.000
25.23500 318.000
25.25000 314.000
25.26500 360.000
25.28000 362.000
25.29500 357.000
25.31000 375.000
25.32500 368.000
25.34000 382.000
25.35500 376.000
25.37000 397.000
25.38500 395.000
25.40000 388.000
25.41500 411.000
25.43000 411.000
25.44500 440.000
25.46000 459.000
25.47500 471.000
25.49000 461.000
25.50500 446.000
25.52000 467.000
25.53500 482.000
25.55000 469.000
25.56500 480.000
25.58000 451.000
25.59500 412.000
25.61000 473.000
25.62500 452.000
25.64000 427.000
25.65500 439.000
25.67000 416.000
25.68500 388.000
25.70000 376.000
25.71500 364.000
25.73000 375.000
25.74500 380.000
25.76000 353.000
25.77500 399.000
25.79000 365.000
25.80500 339.000
25.82000 344.000
25.83500 337.000
25.85000 352.000
25.86500 319.000
25.88000 343.000
25.89500 314.000
25.91000 306.000
25.92500 309.000
25.94000 311.000
25.95500 307.000
25.97000 301.000
25.98500 295.000
26.00000 303.000
26.01500 310.000
26.03000 324.000
26.04500 306.000
26.06000 301.000
26.07500 294.000
26.09000 306.000
26.10500 279.000
26.12000 271.000
26.13500 271.000
26.15000 277.000
26.16500 282.000
26.18000 272.000
26.19500 280.000
26.21000 295.000
26.22500 284.000
26.24000 283.000
26.25500 286.000
26.27000 293.000
26.28500 292.000
26.30000 312.000
26.31500 286.000
26.33000 284.000
26.34500 292.000
26.36000 294.000
26.37500 304.000
26.39000 276.000
26.40500 288.000
26.42000 286.000
26.43500 290.000
26.45000 306.000
26.46500 290.000
26.48000 316.000
26.49500 293.000
26.51000 309.000
26.52500 299.000
26.54000 293.000
26.55500 305.000
26.57000 301.000
26.58500 288.000
26.60000 293.000
26.61500 291.000
26.63000 271.000
26.64500 297.000
26.66000 290.000
26.67500 319.000
26.69000 303.000
26.70500 297.000
26.72000 289.000
26.73500 318.000
26.75000 312.000
26.76500 295.000
26.78000 294.000
26.79500 315.000
26.81000 314.000
26.82500 327.000
26.84000 324.000
26.85500 297.000
26.87000 293.000
26.88500 313.000
26.90000 322.000
26.91500 321.000
26.93000 331.000
26.94500 321.000
26.96000 319.000
26.97500 336.000
26.99000 351.000
27.00500 355.000
27.02000 360.000
27.03500 389.000
27.05000 356.000
27.06500 400.000
27.08000 412.000
27.09500 377.000
27.11000 371.000
27.12500 390.000
27.14000 388.000
27.15500 412.000
27.17000 386.000
27.18500 391.000
27.20000 402.000
27.21500 415.000
27.23000 448.000
27.24500 429.000
27.26000 442.000
27.27500 453.000
27.29000 441.000
27.30500 433.000
27.32000 435.000
27.33500 442.000
27.35000 428.000
27.36500 419.000
27.38000 479.000
27.39500 464.000
27.41000 483.000
27.42500 477.000
27.44000 507.000
27.45500 518.000
27.47000 476.000
27.48500 534.000
27.50000 475.000
27.51500 484.000
27.53000 456.000
27.54500 456.000
27.56000 431.000
27.57500 436.000
27.59000 457.000
27.60500 402.000
27.62000 398.000
27.63500 411.000
27.65000 416.000
27.66500 390.000
27.68000 327.000
27.69500 341.000
27.71000 341.000
27.72500 337.000
27.74000 309.000
27.75500 311.000
27.77000 304.000
27.78500 295.000
27.80000 291.000
27.81500 272.000
27.83000 289.000
27.84500 296.000
27.86000 256.000
27.87500 281.000
27.89000 257.000
27.90500 244.000
27.92000 265.000
27.93500 273.000
27.95000 273.000
27.96500 263.000
27.98000 251.000
27.99500 245.000
28.01000 271.000
28.02500 258.000
28.04000 248.000
28.05500 242.000
28.07000 227.000
28.08500 246.000
28.10000 238.000
28.11500 213.000
28.13000 229.000
28.14500 236.000
28.16000 234.000
28.17500 222.000
28.19000 230.000
28.20500 238.000
28.22000 237.000
28.23500 249.000
28.25000 223.000
28.26500 217.000
28.28000 222.000
28.29500 233.000
28.31000 246.000
28.32500 209.000
28.34000 221.000
28.35500 217.000
28.37000 207.000
28.38500 207.000
28.40000 217.000
28.41500 229.000
28.43000 223.000
28.44500 237.000
28.46000 228.000
28.47500 208.000
28.49000 209.000
28.50500 208.000
28.52000 203.000
28.53500 218.000
28.55000 215.000
28.56500 205.000
28.58000 225.000
28.59500 198.000
28.61000 200.000
28.62500 204.000
28.64000 208.000
28.65500 207.000
28.67000 207.000
28.68500 198.000
28.70000 216.000
28.71500 222.000
28.73000 210.000
28.74500 210.000
28.76000 206.000
28.77500 208.000
28.79000 204.000
28.80500 212.000
28.82000 217.000
28.83500 218.000
28.85000 211.000
28.86500 203.000
28.88000 203.000
28.89500 193.000
28.91000 217.000
28.92500 215.000
28.94000 209.000
28.95500 205.000
28.97000 193.000
28.98500 183.000
29.00000 218.000
29.01500 222.000
29.03000 215.000
29.04500 206.000
29.06000 180.000
29.07500 223.000
29.09000 225.000
29.10500 203.000
29.12000 203.000
29.13500 193.000
29.15000 214.000
29.16500 210.000
29.18000 203.000
29.19500 198.000
29.21000 223.000
29.22500 230.000
29.24000 200.000
29.25500 188.000
29.27000 207.000
29.28500 220.000
29.30000 214.000
29.31500 228.000
29.33000 182.000
29.34500 201.000
29.36000 215.000
29.37500 208.000
29.39000 207.000
29.40500 198.000
29.42000 206.000
29.43500 213.000
29.45000 210.000
29.46500 200.000
29.48000 208.000
29.49500 190.000
29.51000 184.000
29.52500 194.000
29.54000 187.000
29.55500 205.000
29.57000 202.000
29.58500 205.000
29.60000 192.000
29.61500 206.000
29.63000 204.000
29.64500 187.000
29.66000 182.000
29.67500 206.000
29.69000 213.000
29.70500 199.000
29.72000 206.000
29.73500 193.000
29.75000 207.000
29.76500 201.000
29.78000 192.000
29.79500 198.000
29.81000 185.000
29.82500 214.000
29.84000 204.000
29.85500 200.000
29.87000 208.000
29.88500 209.000
29.90000 222.000
29.91500 213.000
29.93000 202.000
29.94500 210.000
29.96000 203.000
29.97500 206.000
29.99000 209.000
30.00500 231.000
30.02000 187.000
30.03500 200.000
30.05000 192.000
30.06500 214.000
30.08000 194.000
30.09500 199.000
30.11000 190.000
30.12500 206.000
30.14000 206.000
30.15500 205.000
30.17000 206.000
30.18500 222.000
30.20000 203.000
30.21500 222.000
30.23000 218.000
30.24500 205.000
30.26000 227.000
30.27500 250.000
30.29000 229.000
30.30500 203.000
30.32000 234.000
30.33500 214.000
30.35000 213.000
30.36500 202.000
30.38000 220.000
30.39500 247.000
30.41000 216.000
30.42500 224.000
30.44000 222.000
30.45500 229.000
30.47000 217.000
30.48500 240.000
30.50000 237.000
30.51500 209.000
30.53000 208.000
30.54500 217.000
30.56000 226.000
30.57500 222.000
30.59000 190.000
30.60500 175.000
30.62000 198.000
30.63500 219.000
30.65000 211.000
30.66500 189.000
30.68000 218.000
30.69500 203.000
30.71000 195.000
30.72500 176.000
30.74000 175.000
30.75500 192.000
30.77000 199.000
30.78500 189.000
30.80000 174.000
30.81500 188.000
30.83000 197.000
30.84500 176.000
30.86000 181.000
30.87500 184.000
30.89000 190.000
30.90500 170.000
30.92000 187.000
30.93500 192.000
30.95000 178.000
30.96500 193.000
30.98000 190.000
30.99500 180.000
31.01000 189.000
31.02500 186.000
31.04000 166.000
31.05500 172.000
31.07000 193.000
31.08500 157.000
31.10000 167.000
31.11500 165.000
31.13000 174.000
31.14500 174.000
31.16000 167.000
31.17500 158.000
31.19000 184.000
31.20500 176.000
31.22000 167.000
31.23500 164.000
31.25000 178.000
31.26500 197.000
31.28000 190.000
31.29500 190.000
31.31000 203.000
31.32500 195.000
31.34000 164.000
31.35500 160.000
31.37000 164.000
31.38500 176.000
31.40000 177.000
31.41500 165.000
31.43000 172.000
31.44500 163.000
31.46000 165.000
31.47500 175.000
31.49000 154.000
31.50500 161.000
31.52000 169.000
31.53500 158.000
31.55000 190.000
31.56500 177.000
31.58000 186.000
31.59500 176.000
31.61000 170.000
31.62500 161.000
31.64000 164.000
31.65500 190.000
31.67000 176.000
31.68500 190.000
31.70000 179.000
31.71500 162.000
31.73000 148.000
31.74500 169.000
31.76000 157.000
31.77500 161.000
31.79000 155.000
31.80500 147.000
31.82000 144.000
31.83500 159.000
31.85000 183.000
31.86500 171.000
31.88000 168.000
31.89500 179.000
31.91000 168.000
31.92500 164.000
31.94000 156.000
31.95500 150.000
31.97000 154.000
31.98500 162.000
32.00000 171.000
32.01500 168.000
32.03000 170.000
32.04500 170.000
32.06000 177.000
32.07500 153.000
32.09000 147.000
32.10500 145.000
32.12000 161.000
32.13500 165.000
32.15000 148.000
32.16500 165.000
32.18000 149.000
32.19500 164.000
32.21000 166.000
32.22500 168.000
32.24000 169.000
32.25500 155.000
32.27000 159.000
32.28500 172.000
32.30000 156.000
32.31500 158.000
32.33000 144.000
32.34500 156.000
32.36000 179.000
32.37500 174.000
32.39000 172.000
32.40500 182.000
32.42000 147.000
32.43500 157.000
32.45000 159.000
32.46500 151.000
32.48000 153.000
32.49500 142.000
32.51000 175.000
32.52500 146.000
32.54000 161.000
32.55500 149.000
32.57000 146.000
32.58500 173.000
32.60000 176.000
32.61500 162.000
32.63000 153.000
32.64500 149.000
32.66000 146.000
32.67500 143.000
32.69000 128.000
32.70500 132.000
32.72000 154.000
32.73500 150.000
32.75000 162.000
32.76500 149.000
32.78000 145.000
32.79500 150.000
32.81000 145.000
32.82500 167.000
32.84000 185.000
32.85500 136.000
32.87000 138.000
32.88500 142.000
32.90000 145.000
32.91500 163.000
32.93000 153.000
32.94500 145.000
32.96000 157.000
32.97500 155.000
32.99000 151.000
33.00500 136.000
33.02000 145.000
33.03500 151.000
33.05000 132.000
33.06500 145.000
33.08000 142.000
33.09500 151.000
33.11000 150.000
33.12500 137.000
33.14000 137.000
33.15500 153.000
33.17000 141.000
33.18500 136.000
33.20000 129.000
33.21500 123.000
33.23000 152.000
33.24500 146.000
33.26000 153.000
33.27500 139.000
33.29000 138.000
33.30500 152.000
33.32000 141.000
33.33500 163.000
33.35000 154.000
33.36500 140.000
33.38000 125.000
33.39500 131.000
33.41000 134.000
33.42500 141.000
33.44000 132.000
33.45500 133.000
33.47000 134.000
33.48500 146.000
33.50000 152.000
33.51500 140.000
33.53000 122.000
33.54500 136.000
33.56000 120.000
33.57500 147.000
33.59000 155.000
33.60500 139.000
33.62000 143.000
33.63500 133.000
33.65000 140.000
33.66500 148.000
33.68000 145.000
33.69500 155.000
33.71000 161.000
33.72500 166.000
33.74000 145.000
33.75500 148.000
33.77000 143.000
33.78500 134.000
33.80000 153.000
33.81500 133.000
33.83000 128.000
33.84500 142.000
33.86000 145.000
33.87500 130.000
33.89000 136.000
33.90500 143.000
33.92000 140.000
33.93500 138.000
33.95000 131.000
33.96500 139.000
33.98000 131.000
33.99500 138.000
34.01000 128.000
34.02500 128.000
34.04000 150.000
34.05500 138.000
34.07000 131.000
34.08500 153.000
34.10000 142.000
34.11500 130.000
34.13000 148.000
34.14500 150.000
34.16000 138.000
34.17500 140.000
34.19000 150.000
34.20500 136.000
34.22000 147.000
34.23500 129.000
34.25000 139.000
34.26500 138.000
34.28000 115.000
34.29500 135.000
34.31000 136.000
34.32500 134.000
34.34000 130.000
34.35500 138.000
34.37000 133.000
34.38500 135.000
34.40000 149.000
34.41500 124.000
34.43000 132.000
34.44500 139.000
34.46000 128.000
34.47500 120.000
34.49000 113.000
34.50500 135.000
34.52000 116.000
34.53500 111.000
34.55000 124.000
34.56500 131.000
34.58000 123.000
34.59500 136.000
34.61000 133.000
34.62500 143.000
34.64000 121.000
34.65500 111.000
34.67000 128.000
34.68500 125.000
34.70000 128.000
34.71500 140.000
34.73000 117.000
34.74500 129.000
34.76000 139.000
34.77500 118.000
34.79000 123.000
34.80500 143.000
34.82000 133.000
34.83500 140.000
34.85000 129.000
34.86500 133.000
34.88000 122.000
34.89500 129.000
34.91000 114.000
34.92500 137.000
34.94000 124.000
34.95500 117.000
34.97000 137.000
34.98500 140.000
35.00000 106.000
35.01500 119.000
35.03000 118.000
35.04500 131.000
35.06000 116.000
35.07500 125.000
35.09000 130.000
35.10500 122.000
35.12000 138.000
35.13500 139.000
35.15000 119.000
35.16500 134.000
35.18000 123.000
35.19500 126.000
35.21000 121.000
35.22500 123.000
35.24000 139.000
35.25500 123.000
35.27000 112.000
35.28500 127.000
35.30000 124.000
35.31500 134.000
35.33000 119.000
35.34500 113.000
35.36000 126.000
35.37500 132.000
35.39000 133.000
35.40500 124.000
35.42000 113.000
35.43500 121.000
35.45000 119.000
35.46500 114.000
35.48000 114.000
35.49500 113.000
35.51000 116.000
35.52500 119.000
35.54000 121.000
35.55500 129.000
35.57000 118.000
35.58500 113.000
35.60000 129.000
35.61500 131.000
35.63000 127.000
35.64500 129.000
35.66000 109.000
35.67500 124.000
35.69000 137.000
35.70500 134.000
35.72000 116.000
35.73500 124.000
35.75000 123.000
35.76500 118.000
35.78000 95.000
35.79500 117.000
35.81000 116.000
35.82500 113.000
35.84000 117.000
35.85500 111.000
35.87000 119.000
35.88500 115.000
35.90000 119.000
35.91500 117.000
35.93000 124.000
35.94500 112.000
35.96000 117.000
35.97500 115.000
35.99000 127.000
36.00500 123.000
36.02000 115.000
36.03500 126.000
36.05000 127.000
36.06500 122.000
36.08000 113.000
36.09500 118.000
36.11000 122.000
36.12500 116.000
36.14000 106.000
36.15500 85.000
36.17000 103.000
36.18500 102.000
36.20000 109.000
36.21500 106.000
36.23000 112.000
36.24500 105.000
36.26000 116.000
36.27500 109.000
36.29000 103.000
36.30500 120.000
36.32000 113.000
36.33500 117.000
36.35000 116.000
36.36500 105.000
36.38000 117.000
36.39500 104.000
36.41000 103.000
36.42500 113.000
36.44000 100.000
36.45500 93.000
36.47000 102.000
36.48500 112.000
36.50000 102.000
36.51500 116.000
36.53000 119.000
36.54500 99.000
36.56000 109.000
36.57500 101.000
36.59000 111.000
36.60500 97.000
36.62000 103.000
36.63500 89.000
36.65000 102.000
36.66500 105.000
36.68000 110.000
36.69500 121.000
36.71000 105.000
36.72500 114.000
36.74000 100.000
36.75500 102.000
36.77000 111.000
36.78500 102.000
36.80000 109.000
36.81500 109.000
36.83000 105.000
36.84500 101.000
36.86000 118.000
36.87500 113.000
36.89000 105.000
36.90500 89.000
36.92000 98.000
36.93500 117.000
36.95000 102.000
36.96500 99.000
36.98000 110.000
36.99500 117.000
37.01000 100.000
37.02500 109.000
37.04000 103.000
37.05500 98.000
37.07000 104.000
37.08500 96.000
37.10000 98.000
37.11500 104.000
37.13000 113.000
37.14500 114.000
37.16000 108.000
37.17500 118.000
37.19000 95.000
37.20500 101.000
37.22000 107.000
37.23500 97.000
37.25000 103.000
37.26500 104.000
37.28000 103.000
37.29500 106.000
37.31000 116.000
37.32500 105.000
37.34000 101.000
37.35500 90.000
37.37000 110.000
37.38500 112.000
37.40000 109.000
37.41500 110.000
37.43000 101.000
37.44500 103.000
37.46000 100.000
37.47500 97.000
37.49000 103.000
37.50500 106.000
37.52000 94.000
37.53500 103.000
37.55000 85.000
37.56500 113.000
37.58000 96.000
37.59500 101.000
37.61000 111.000
37.62500 101.000
37.64000 104.000
37.65500 90.000
37.67000 92.000
37.68500 97.000
37.70000 97.000
37.71500 101.000
37.73000 111.000
37.74500 96.000
37.76000 90.000
37.77500 95.000
37.79000 97.000
37.80500 87.000
37.82000 92.000
37.83500 89.000
37.85000 96.000
37.86500 98.000
37.88000 96.000
37.89500 103.000
37.91000 104.000
37.92500 94.000
37.94000 94.000
37.95500 105.000
37.97000 102.000
37.98500 106.000
38.00000 95.000
38.01500 95.000
38.03000 99.000
38.04500 116.000
38.06000 105.000
38.07500 101.000
38.09000 99.000
38.10500 107.000
38.12000 105.000
38.13500 116.000
38.15000 111.000
38.16500 100.000
38.18000 101.000
38.19500 95.000
38.21000 103.000
38.22500 96.000
38.24000 106.000
38.25500 114.000
38.27000 111.000
38.28500 106.000
38.30000 101.000
38.31500 104.000
38.33000 98.000
38.34500 109.000
38.36000 94.000
38.37500 105.000
38.39000 99.000
38.40500 100.000
38.42000 109.000
38.43500 94.000
38.45000 97.000
38.46500 103.000
38.48000 98.000
38.49500 91.000
38.51000 90.000
38.52500 86.000
38.54000 81.000
38.55500 102.000
38.57000 96.000
38.58500 93.000
38.60000 104.000
38.61500 106.000
38.63000 104.000
38.64500 87.000
38.66000 89.000
38.67500 98.000
38.69000 92.000
38.70500 101.000
38.72000 102.000
38.73500 91.000
38.75000 95.000
38.76500 99.000
38.78000 103.000
38.79500 94.000
38.81000 106.000
38.82500 114.000
38.84000 102.000
38.85500 99.000
38.87000 101.000
38.88500 90.000
38.90000 88.000
38.91500 100.000
38.93000 100.000
38.94500 95.000
38.96000 93.000
38.97500 101.000
38.99000 91.000
39.00500 98.000
39.02000 99.000
39.03500 101.000
39.05000 94.000
39.06500 105.000
39.08000 94.000
39.09500 101.000
39.11000 94.000
39.12500 97.000
39.14000 104.000
39.15500 108.000
39.17000 114.000
39.18500 108.000
39.20000 85.000
39.21500 99.000
39.23000 107.000
39.24500 94.000
39.26000 103.000
39.27500 98.000
39.29000 94.000
39.30500 95.000
39.32000 107.000
39.33500 98.000
39.35000 105.000
39.36500 116.000
39.38000 101.000
39.39500 88.000
39.41000 99.000
39.42500 107.000
39.44000 97.000
39.45500 94.000
39.47000 88.000
39.48500 93.000
39.50000 120.000
39.51500 96.000
39.53000 104.000
39.54500 99.000
39.56000 94.000
39.57500 100.000
39.59000 95.000
39.60500 109.000
39.62000 94.000
39.63500 98.000
39.65000 99.000
39.66500 99.000
39.68000 112.000
39.69500 98.000
39.71000 103.000
39.72500 121.000
39.74000 103.000
39.75500 101.000
39.77000 109.000
39.78500 108.000
39.80000 104.000
39.81500 94.000
39.83000 102.000
39.84500 98.000
39.86000 99.000
39.87500 100.000
39.89000 99.000
39.90500 101.000
39.92000 106.000
39.93500 105.000
39.95000 102.000
39.96500 107.000
39.98000 96.000
39.99500 112.000
40.01000 99.000
40.02500 96.000
40.04000 109.000
40.05500 109.000
40.07000 100.000
40.08500 106.000
40.10000 112.000
40.11500 107.000
40.13000 98.000
40.14500 98.000
40.16000 98.000
40.17500 101.000
40.19000 105.000
40.20500 98.000
40.22000 98.000
40.23500 108.000
40.25000 108.000
40.26500 108.000
40.28000 95.000
40.29500 107.000
40.31000 102.000
40.32500 109.000
40.34000 99.000
40.35500 105.000
40.37000 108.000
40.38500 98.000
40.40000 95.000
40.41500 100.000
40.43000 106.000
40.44500 113.000
40.46000 97.000
40.47500 105.000
40.49000 114.000
40.50500 122.000
40.52000 107.000
40.53500 120.000
40.55000 117.000
40.56500 107.000
40.58000 106.000
40.59500 108.000
40.61000 106.000
40.62500 105.000
40.64000 93.000
40.65500 102.000
40.67000 120.000
40.68500 106.000
40.70000 114.000
40.71500 110.000
40.73000 100.000
40.74500 101.000
40.76000 108.000
40.77500 109.000
40.79000 107.000
40.80500 92.000
40.82000 84.000
40.83500 105.000
40.85000 113.000
40.86500 99.000
40.88000 100.000
40.89500 100.000
40.91000 129.000
40.92500 98.000
40.94000 96.000
40.95500 96.000
40.97000 107.000
40.98500 99.000
41.00000 102.000
41.01500 110.000
41.03000 93.000
41.04500 108.000
41.06000 100.000
41.07500 98.000
41.09000 93.000
41.10500 109.000
41.12000 120.000
41.13500 102.000
41.15000 113.000
41.16500 114.000
41.18000 118.000
41.19500 100.000
41.21000 112.000
41.22500 102.000
41.24000 106.000
41.25500 115.000
41.27000 97.000
41.28500 109.000
41.30000 104.000
41.31500 109.000
41.33000 114.000
41.34500 93.000
41.36000 91.000
41.37500 100.000
41.39000 108.000
41.40500 100.000
41.42000 102.000
41.43500 89.000
41.45000 105.000
41.46500 116.000
41.48000 96.000
41.49500 93.000
41.51000 93.000
41.52500 108.000
41.54000 100.000
41.55500 118.000
41.57000 116.000
41.58500 103.000
41.60000 95.000
41.61500 95.000
41.63000 92.000
41.64500 92.000
41.66000 109.000
41.67500 94.000
41.69000 103.000
41.70500 114.000
41.72000 103.000
41.73500 112.000
41.75000 101.000
41.76500 111.000
41.78000 108.000
41.79500 98.000
41.81000 100.000
41.82500 89.000
41.84000 108.000
41.85500 104.000
41.87000 86.000
41.88500 94.000
41.90000 102.000
41.91500 99.000
41.93000 106.000
41.94500 104.000
41.96000 92.000
41.97500 76.000
41.99000 94.000
42.00500 99.000
42.02000 98.000
42.03500 97.000
42.05000 94.000
42.06500 88.000
42.08000 88.000
42.09500 80.000
42.11000 102.000
42.12500 93.000
42.14000 105.000
42.15500 107.000
42.17000 86.000
42.18500 88.000
42.20000 97.000
42.21500 92.000
42.23000 85.000
42.24500 93.000
42.26000 88.000
42.27500 93.000
42.29000 92.000
42.30500 93.000
42.32000 100.000
42.33500 102.000
42.35000 91.000
42.36500 91.000
42.38000 105.000
42.39500 107.000
42.41000 105.000
42.42500 100.000
42.44000 95.000
42.45500 93.000
42.47000 101.000
42.48500 99.000
42.50000 91.000
42.51500 94.000
42.53000 101.000
42.54500 104.000
42.56000 106.000
42.57500 85.000
42.59000 91.000
42.60500 97.000
42.62000 102.000
42.63500 110.000
42.65000 85.000
42.66500 93.000
42.68000 94.000
42.69500 106.000
42.71000 100.000
42.72500 105.000
42.74000 97.000
42.75500 102.000
42.77000 98.000
42.78500 81.000
42.80000 104.000
42.81500 105.000
42.83000 102.000
42.84500 95.000
42.86000 98.000
42.87500 98.000
42.89000 98.000
42.90500 85.000
42.92000 96.000
42.93500 99.000
42.95000 105.000
42.96500 104.000
42.98000 108.000
42.99500 102.000
43.01000 100.000
43.02500 109.000
43.04000 89.000
43.05500 96.000
43.07000 90.000
43.08500 104.000
43.10000 87.000
43.11500 88.000
43.13000 90.000
43.14500 85.000
43.16000 92.000
43.17500 89.000
43.19000 102.000
43.20500 92.000
43.22000 100.000
43.23500 92.000
43.25000 85.000
43.26500 99.000
43.28000 94.000
43.29500 88.000
43.31000 81.000
43.32500 81.000
43.34000 93.000
43.35500 110.000
43.37000 97.000
43.38500 88.000
43.40000 87.000
43.41500 83.000
43.43000 80.000
43.44500 92.000
43.46000 94.000
43.47500 107.000
43.49000 96.000
43.50500 96.000
43.52000 88.000
43.53500 86.000
43.55000 81.000
43.56500 89.000
43.58000 96.000
43.59500 96.000
43.61000 93.000
43.62500 85.000
43.64000 90.000
43.65500 91.000
43.67000 95.000
43.68500 82.000
43.70000 96.000
43.71500 106.000
43.73000 101.000
43.74500 88.000
43.76000 90.000
43.77500 87.000
43.79000 96.000
43.80500 101.000
43.82000 88.000
43.83500 91.000
43.85000 92.000
43.86500 79.000
43.88000 86.000
43.89500 93.000
43.91000 93.000
43.92500 103.000
43.94000 113.000
43.95500 90.000
43.97000 87.000
43.98500 78.000
44.00000 79.000
44.01500 106.000
44.03000 104.000
44.04500 98.000
44.06000 92.000
44.07500 104.000
44.09000 96.000
44.10500 88.000
44.12000 79.000
44.13500 93.000
44.15000 85.000
44.16500 97.000
44.18000 100.000
44.19500 88.000
44.21000 95.000
44.22500 107.000
44.24000 106.000
44.25500 97.000
44.27000 94.000
44.28500 99.000
44.30000 99.000
44.31500 103.000
44.33000 83.000
44.34500 90.000
44.36000 96.000
44.37500 97.000
44.39000 98.000
44.40500 91.000
44.42000 93.000
44.43500 96.000
44.45000 83.000
44.46500 84.000
44.48000 92.000
44.49500 80.000
44.51000 81.000
44.52500 85.000
44.54000 102.000
44.55500 92.000
44.57000 80.000
44.58500 75.000
44.60000 82.000
44.61500 91.000
44.63000 77.000
44.64500 86.000
44.66000 91.000
44.67500 93.000
44.69000 86.000
44.70500 94.000
44.72000 97.000
44.73500 99.000
44.75000 92.000
44.76500 87.000
44.78000 77.000
44.79500 86.000
44.81000 86.000
44.82500 88.000
44.84000 92.000
44.85500 83.000
44.87000 84.000
44.88500 86.000
44.90000 92.000
44.91500 101.000
44.93000 102.000
44.94500 91.000
44.96000 104.000
44.97500 97.000
44.99000 104.000
45.00500 90.000
45.02000 91.000
45.03500 91.000
45.05000 102.000
45.06500 105.000
45.08000 97.000
45.09500 88.000
45.11000 92.000
45.12500 108.000
45.14000 99.000
45.15500 98.000
45.17000 91.000
45.18500 85.000
45.20000 78.000
45.21500 83.000
45.23000 96.000
45.24500 95.000
45.26000 97.000
45.27500 102.000
45.29000 98.000
45.30500 81.000
45.32000 88.000
45.33500 85.000
45.35000 92.000
45.36500 73.000
45.38000 83.000
45.39500 77.000
45.41000 89.000
45.42500 94.000
45.44000 96.000
45.45500 93.000
45.47000 94.000
45.48500 87.000
45.50000 79.000
45.51500 101.000
45.53000 91.000
45.54500 92.000
45.56000 95.000
45.57500 95.000
45.59000 89.000
45.60500 91.000
45.62000 82.000
45.63500 90.000
45.65000 98.000
45.66500 94.000
45.68000 89.000
45.69500 97.000
45.71000 114.000
45.72500 93.000
45.74000 92.000
45.75500 99.000
45.77000 95.000
45.78500 112.000
45.80000 100.000
45.81500 93.000
45.83000 88.000
45.84500 90.000
45.86000 88.000
45.87500 86.000
45.89000 95.000
45.90500 80.000
45.92000 91.000
45.93500 97.000
45.95000 90.000
45.96500 76.000
45.98000 94.000
45.99500 95.000
46.01000 98.000
46.02500 100.000
46.04000 94.000
46.05500 95.000
46.07000 94.000
46.08500 111.000
46.10000 86.000
46.11500 83.000
46.13000 82.000
46.14500 92.000
46.16000 83.000
46.17500 86.000
46.19000 72.000
46.20500 84.000
46.22000 73.000
46.23500 81.000
46.25000 88.000
46.26500 88.000
46.28000 88.000
46.29500 94.000
46.31000 85.000
46.32500 98.000
46.34000 84.000
46.35500 96.000
46.37000 98.000
46.38500 94.000
46.40000 90.000
46.41500 93.000
46.43000 84.000
46.44500 84.000
46.46000 92.000
46.47500 97.000
46.49000 102.000
46.50500 86.000
46.52000 71.000
46.53500 81.000
46.55000 97.000
46.56500 87.000
46.58000 70.000
46.59500 83.000
46.61000 97.000
46.62500 101.000
46.64000 97.000
46.65500 93.000
46.67000 102.000
46.68500 88.000
46.70000 85.000
46.71500 91.000
46.73000 88.000
46.74500 81.000
46.76000 78.000
46.77500 89.000
46.79000 101.000
46.80500 88.000
46.82000 85.000
46.83500 77.000
46.85000 88.000
46.86500 84.000
46.88000 78.000
46.89500 85.000
46.91000 73.000
46.92500 81.000
46.94000 83.000
46.95500 75.000
46.97000 85.000
46.98500 89.000
47.00000 87.000
47.01500 86.000
47.03000 88.000
47.04500 95.000
47.06000 80.000
47.07500 85.000
47.09000 84.000
47.10500 87.000
47.12000 93.000
47.13500 92.000
47.15000 80.000
47.16500 93.000
47.18000 85.000
47.19500 81.000
47.21000 99.000
47.22500 87.000
47.24000 71.000
47.25500 73.000
47.27000 88.000
47.28500 71.000
47.30000 75.000
47.31500 89.000
47.33000 97.000
47.34500 88.000
47.36000 79.000
47.37500 72.000
47.39000 76.000
47.40500 85.000
47.42000 94.000
47.43500 88.000
47.45000 84.000
47.46500 76.000
47.48000 90.000
47.49500 91.000
47.51000 87.000
47.52500 102.000
47.54000 87.000
47.55500 77.000
47.57000 83.000
47.58500 83.000
47.60000 91.000
47.61500 96.000
47.63000 89.000
47.64500 82.000
47.66000 86.000
47.67500 82.000
47.69000 87.000
47.70500 77.000
47.72000 88.000
47.73500 75.000
47.75000 88.000
47.76500 91.000
47.78000 75.000
47.79500 78.000
47.81000 86.000
47.82500 90.000
47.84000 93.000
47.85500 98.000
47.87000 97.000
47.88500 78.000
47.90000 87.000
47.91500 81.000
47.93000 88.000
47.94500 100.000
47.96000 73.000
47.97500 82.000
47.99000 77.000
48.00500 78.000
48.02000 82.000
48.03500 76.000
48.05000 69.000
48.06500 81.000
48.08000 104.000
48.09500 90.000
48.11000 93.000
48.12500 107.000
48.14000 98.000
48.15500 96.000
48.17000 93.000
48.18500 89.000
48.20000 83.000
48.21500 69.000
48.23000 74.000
48.24500 92.000
48.26000 86.000
48.27500 74.000
48.29000 71.000
48.30500 75.000
48.32000 85.000
48.33500 83.000
48.35000 81.000
48.36500 78.000
48.38000 77.000
48.39500 75.000
48.41000 88.000
48.42500 81.000
48.44000 79.000
48.45500 87.000
48.47000 97.000
48.48500 77.000
48.50000 77.000
48.51500 83.000
48.53000 77.000
48.54500 72.000
48.56000 83.000
48.57500 72.000
48.59000 67.000
48.60500 80.000
48.62000 88.000
48.63500 85.000
48.65000 92.000
48.66500 80.000
48.68000 92.000
48.69500 96.000
48.71000 93.000
48.72500 81.000
48.74000 92.000
48.75500 82.000
48.77000 89.000
48.78500 82.000
48.80000 84.000
48.81500 85.000
48.83000 76.000
48.84500 93.000
48.86000 82.000
48.87500 82.000
48.89000 88.000
48.90500 79.000
48.92000 82.000
48.93500 86.000
48.95000 72.000
48.96500 76.000
48.98000 88.000
48.99500 80.000
49.01000 64.000
49.02500 69.000
49.04000 70.000
49.05500 68.000
49.07000 71.000
49.08500 74.000
49.10000 71.000
49.11500 70.000
49.13000 87.000
49.14500 89.000
49.16000 76.000
49.17500 83.000
49.19000 71.000
49.20500 61.000
49.22000 74.000
49.23500 73.000
49.25000 84.000
49.26500 79.000
49.28000 61.000
49.29500 76.000
49.31000 81.000
49.32500 69.000
49.34000 76.000
49.35500 75.000
49.37000 84.000
49.38500 78.000
49.40000 73.000
49.41500 80.000
49.43000 86.000
49.44500 86.000
49.46000 80.000
49.47500 87.000
49.49000 81.000
49.50500 69.000
49.52000 89.000
49.53500 81.000
49.55000 79.000
49.56500 80.000
49.58000 74.000
49.59500 80.000
49.61000 89.000
49.62500 90.000
49.64000 81.000
49.65500 85.000
49.67000 67.000
49.68500 69.000
49.70000 69.000
49.71500 76.000
49.73000 73.000
49.74500 87.000
49.76000 85.000
49.77500 76.000
49.79000 72.000
49.80500 81.000
49.82000 89.000
49.83500 78.000
49.85000 81.000
49.86500 73.000
49.88000 80.000
49.89500 80.000
49.91000 72.000
49.92500 75.000
49.94000 81.000
49.95500 97.000
49.97000 75.000
49.98500 74.000
50.00000 76.000
50.01500 77.000
50.03000 75.000
50.04500 94.000
50.06000 79.000
50.07500 81.000
50.09000 73.000
50.10500 66.000
50.12000 70.000
50.13500 79.000
50.15000 94.000
50.16500 84.000
50.18000 75.000
50.19500 65.000
50.21000 82.000
50.22500 82.000
50.24000 80.000
50.25500 85.000
50.27000 74.000
50.28500 83.000
50.30000 77.000
50.31500 74.000
50.33000 75.000
50.34500 78.000
50.36000 63.000
50.37500 73.000
50.39000 72.000
50.40500 72.000
50.42000 80.000
50.43500 82.000
50.45000 83.000
50.46500 87.000
50.48000 87.000
50.49500 100.000
50.51000 75.000
50.52500 66.000
50.54000 67.000
50.55500 75.000
50.57000 79.000
50.58500 79.000
50.60000 72.000
50.61500 76.000
50.63000 85.000
50.64500 71.000
50.66000 83.000
50.67500 69.000
50.69000 73.000
50.70500 80.000
50.72000 81.000
50.73500 76.000
50.75000 69.000
50.76500 90.000
50.78000 76.000
50.79500 77.000
50.81000 65.000
50.82500 68.000
50.84000 71.000
50.85500 84.000
50.87000 76.000
50.88500 80.000
50.90000 84.000
50.91500 59.000
50.93000 77.000
50.94500 77.000
50.96000 74.000
50.97500 85.000
50.99000 89.000
51.00500 86.000
51.02000 79.000
51.03500 75.000
51.05000 80.000
51.06500 72.000
51.08000 70.000
51.09500 68.000
51.11000 86.000
51.12500 79.000
51.14000 79.000
51.15500 85.000
51.17000 82.000
51.18500 82.000
51.20000 77.000
51.21500 89.000
51.23000 76.000
51.24500 81.000
51.26000 79.000
51.27500 70.000
51.29000 86.000
51.30500 82.000
51.32000 76.000
51.33500 80.000
51.35000 75.000
51.36500 73.000
51.38000 77.000
51.39500 71.000
51.41000 88.000
51.42500 84.000
51.44000 88.000
51.45500 80.000
51.47000 71.000
51.48500 80.000
51.50000 81.000
51.51500 76.000
51.53000 73.000
51.54500 78.000
51.56000 77.000
51.57500 72.000
51.59000 72.000
51.60500 80.000
51.62000 80.000
51.63500 80.000
51.65000 70.000
51.66500 76.000
51.68000 76.000
51.69500 72.000
51.71000 78.000
51.72500 86.000
51.74000 75.000
51.75500 78.000
51.77000 80.000
51.78500 77.000
51.80000 82.000
51.81500 77.000
51.83000 95.000
51.84500 83.000
51.86000 75.000
51.87500 77.000
51.89000 83.000
51.90500 75.000
51.92000 70.000
51.93500 82.000
51.95000 83.000
51.96500 80.000
51.98000 80.000
51.99500 77.000
52.01000 64.000
52.02500 69.000
52.04000 89.000
52.05500 77.000
52.07000 89.000
52.08500 89.000
52.10000 75.000
52.11500 85.000
52.13000 84.000
52.14500 78.000
52.16000 79.000
52.17500 85.000
52.19000 73.000
52.20500 89.000
52.22000 78.000
52.23500 77.000
52.25000 86.000
52.26500 76.000
52.28000 82.000
52.29500 79.000
52.31000 78.000
52.32500 75.000
52.34000 80.000
52.35500 75.000
52.37000 84.000
52.38500 67.000
52.40000 70.000
52.41500 93.000
52.43000 81.000
52.44500 77.000
52.46000 79.000
52.47500 73.000
52.49000 78.000
52.50500 79.000
52.52000 81.000
52.53500 71.000
52.55000 73.000
52.56500 71.000
52.58000 75.000
52.59500 90.000
52.61000 79.000
52.62500 76.000
52.64000 82.000
52.65500 84.000
52.67000 66.000
52.68500 82.000
52.70000 79.000
52.71500 79.000
52.73000 77.000
52.74500 87.000
52.76000 81.000
52.77500 74.000
52.79000 89.000
52.80500 88.000
52.82000 87.000
52.83500 85.000
52.85000 82.000
52.86500 75.000
52.88000 72.000
52.89500 72.000
52.91000 75.000
52.92500 83.000
52.94000 70.000
52.95500 71.000
52.97000 79.000
52.98500 87.000
53.00000 88.000
53.01500 92.000
53.03000 84.000
53.04500 63.000
53.06000 67.000
53.07500 72.000
53.09000 76.000
53.10500 85.000
53.12000 82.000
53.13500 89.000
53.15000 88.000
53.16500 81.000
53.18000 86.000
53.19500 75.000
53.21000 68.000
53.22500 66.000
53.24000 74.000
53.25500 87.000
53.27000 89.000
53.28500 71.000
53.30000 81.000
53.31500 77.000
53.33000 74.000
53.34500 84.000
53.36000 85.000
53.37500 90.000
53.39000 80.000
53.40500 79.000
53.42000 67.000
53.43500 74.000
53.45000 73.000
53.46500 75.000
53.48000 76.000
53.49500 75.000
53.51000 85.000
53.52500 88.000
53.54000 76.000
53.55500 81.000
53.57000 81.000
53.58500 81.000
53.60000 75.000
53.61500 72.000
53.63000 90.000
53.64500 74.000
53.66000 62.000
53.67500 85.000
53.69000 69.000
53.70500 80.000
53.72000 68.000
53.73500 81.000
53.75000 76.000
53.76500 74.000
53.78000 68.000
53.79500 88.000
53.81000 86.000
53.82500 76.000
53.84000 77.000
53.85500 76.000
53.87000 63.000
53.88500 75.000
53.90000 75.000
53.91500 76.000
53.93000 79.000
53.94500 74.000
53.96000 87.000
53.97500 87.000
53.99000 83.000
54.00500 76.000
54.02000 69.000
54.03500 84.000
54.05000 92.000
54.06500 101.000
54.08000 87.000
54.09500 82.000
54.11000 86.000
54.12500 66.000
54.14000 82.000
54.15500 77.000
54.17000 78.000
54.18500 79.000
54.20000 78.000
54.21500 67.000
54.23000 80.000
54.24500 84.000
54.26000 89.000
54.27500 91.000
54.29000 69.000
54.30500 85.000
54.32000 90.000
54.33500 89.000
54.35000 74.000
54.36500 85.000
54.38000 75.000
54.39500 74.000
54.41000 67.000
54.42500 72.000
54.44000 93.000
54.45500 80.000
54.47000 81.000
54.48500 72.000
54.50000 61.000
54.51500 69.000
54.53000 87.000
54.54500 84.000
54.56000 74.000
54.57500 82.000
54.59000 95.000
54.60500 73.000
54.62000 74.000
54.63500 73.000
54.65000 78.000
54.66500 90.000
54.68000 83.000
54.69500 72.000
54.71000 72.000
54.72500 77.000
54.74000 73.000
54.75500 82.000
54.77000 83.000
54.78500 89.000
54.80000 73.000
54.81500 71.000
54.83000 72.000
54.84500 77.000
54.86000 70.000
54.87500 85.000
54.89000 80.000
54.90500 81.000
54.92000 75.000
54.93500 71.000
54.95000 82.000
54.96500 84.000
54.98000 91.000
54.99500 71.000
55.01000 83.000
55.02500 77.000
55.04000 77.000
55.05500 88.000
55.07000 86.000
55.08500 79.000
55.10000 74.000
55.11500 77.000
55.13000 89.000
55.14500 81.000
55.16000 69.000
55.17500 68.000
55.19000 64.000
55.20500 69.000
55.22000 83.000
55.23500 93.000
55.25000 85.000
55.26500 74.000
55.28000 66.000
55.29500 71.000
55.31000 73.000
55.32500 70.000
55.34000 86.000
55.35500 79.000
55.37000 70.000
55.38500 80.000
55.40000 83.000
55.41500 79.000
55.43000 81.000
55.44500 84.000
55.46000 86.000
55.47500 67.000
55.49000 69.000
55.50500 75.000
55.52000 60.000
55.53500 73.000
55.55000 62.000
55.56500 67.000
55.58000 79.000
55.59500 81.000
55.61000 78.000
55.62500 77.000
55.64000 72.000
55.65500 76.000
55.67000 78.000
55.68500 71.000
55.70000 74.000
55.71500 74.000
55.73000 71.000
55.74500 73.000
55.76000 77.000
55.77500 84.000
55.79000 78.000
55.80500 79.000
55.82000 73.000
55.83500 69.000
55.85000 83.000
55.86500 77.000
55.88000 81.000
55.89500 75.000
55.91000 65.000
55.92500 66.000
55.94000 63.000
55.95500 84.000
55.97000 84.000
55.98500 62.000
56.00000 68.000
56.01500 78.000
56.03000 86.000
56.04500 81.000
56.06000 66.000
56.07500 78.000
56.09000 86.000
56.10500 84.000
56.12000 79.000
56.13500 77.000
56.15000 70.000
56.16500 82.000
56.18000 81.000
56.19500 80.000
56.21000 71.000
56.22500 65.000
56.24000 79.000
56.25500 71.000
56.27000 71.000
56.28500 79.000
56.30000 77.000
56.31500 83.000
56.33000 68.000
56.34500 77.000
56.36000 71.000
56.37500 64.000
56.39000 73.000
56.40500 72.000
56.42000 71.000
56.43500 72.000
56.45000 65.000
56.46500 74.000
56.48000 87.000
56.49500 75.000
56.51000 78.000
56.52500 72.000
56.54000 79.000
56.55500 68.000
56.57000 86.000
56.58500 81.000
56.60000 80.000
56.61500 79.000
56.63000 72.000
56.64500 79.000
56.66000 76.000
56.67500 64.000
56.69000 76.000
56.70500 75.000
56.72000 64.000
56.73500 79.000
56.75000 77.000
56.76500 78.000
56.78000 71.000
56.79500 83.000
56.81000 75.000
56.82500 84.000
56.84000 80.000
56.85500 66.000
56.87000 70.000
56.88500 75.000
56.90000 64.000
56.91500 75.000
56.93000 73.000
56.94500 79.000
56.96000 73.000
56.97500 76.000
56.99000 64.000
57.00500 68.000
57.02000 82.000
57.03500 76.000
57.05000 66.000
57.06500 65.000
57.08000 68.000
57.09500 88.000
57.11000 75.000
57.12500 68.000
57.14000 73.000
57.15500 80.000
57.17000 79.000
57.18500 79.000
57.20000 79.000
57.21500 89.000
57.23000 68.000
57.24500 67.000
57.26000 77.000
57.27500 72.000
57.29000 62.000
57.30500 78.000
57.32000 73.000
57.33500 75.000
57.35000 72.000
57.36500 62.000
57.38000 66.000
57.39500 76.000
57.41000 81.000
57.42500 84.000
57.44000 87.000
57.45500 80.000
57.47000 68.000
57.48500 76.000
57.50000 64.000
57.51500 71.000
57.53000 77.000
57.54500 85.000
57.56000 76.000
57.57500 76.000
57.59000 75.000
57.60500 76.000
57.62000 57.000
57.63500 58.000
57.65000 64.000
57.66500 71.000
57.68000 64.000
57.69500 72.000
57.71000 65.000
57.72500 66.000
57.74000 78.000
57.75500 75.000
57.77000 64.000
57.78500 68.000
57.80000 76.000
57.81500 86.000
57.83000 87.000
57.84500 73.000
57.86000 81.000
57.87500 81.000
57.89000 76.000
57.90500 77.000
57.92000 67.000
57.93500 68.000
57.95000 63.000
57.96500 80.000
57.98000 81.000
57.99500 67.000
58.01000 74.000
58.02500 63.000
58.04000 73.000
58.05500 78.000
58.07000 66.000
58.08500 79.000
58.10000 80.000
58.11500 77.000
58.13000 74.000
58.14500 78.000
58.16000 69.000
58.17500 75.000
58.19000 66.000
58.20500 78.000
58.22000 75.000
58.23500 62.000
58.25000 64.000
58.26500 72.000
58.28000 65.000
58.29500 67.000
58.31000 66.000
58.32500 77.000
58.34000 81.000
58.35500 71.000
58.37000 54.000
58.38500 61.000
58.40000 71.000
58.41500 73.000
58.43000 79.000
58.44500 84.000
58.46000 77.000
58.47500 74.000
58.49000 58.000
58.50500 66.000
58.52000 77.000
58.53500 74.000
58.55000 71.000
58.56500 74.000
58.58000 66.000
58.59500 75.000
58.61000 73.000
58.62500 79.000
58.64000 78.000
58.65500 78.000
58.67000 76.000
58.68500 65.000
58.70000 71.000
58.71500 68.000
58.73000 76.000
58.74500 61.000
58.76000 65.000
58.77500 78.000
58.79000 78.000
58.80500 59.000
58.82000 83.000
58.83500 80.000
58.85000 75.000
58.86500 75.000
58.88000 74.000
58.89500 77.000
58.91000 65.000
58.92500 71.000
58.94000 74.000
58.95500 65.000
58.97000 68.000
58.98500 70.000
59.00000 69.000
59.01500 75.000
59.03000 74.000
59.04500 64.000
59.06000 80.000
59.07500 73.000
59.09000 70.000
59.10500 70.000
59.12000 82.000
59.13500 75.000
59.15000 74.000
59.16500 61.000
59.18000 76.000
59.19500 76.000
59.21000 76.000
59.22500 76.000
59.24000 78.000
59.25500 72.000
59.27000 74.000
59.28500 73.000
59.30000 65.000
59.31500 79.000
59.33000 83.000
59.34500 71.000
59.36000 79.000
59.37500 90.000
59.39000 68.000
59.40500 72.000
59.42000 75.000
59.43500 69.000
59.45000 91.000
59.46500 70.000
59.48000 82.000
59.49500 79.000
59.51000 69.000
59.52500 80.000
59.54000 70.000
59.55500 66.000
59.57000 67.000
59.58500 70.000
59.60000 84.000
59.61500 82.000
59.63000 61.000
59.64500 83.000
59.66000 75.000
59.67500 82.000
59.69000 74.000
59.70500 66.000
59.72000 90.000
59.73500 79.000
59.75000 56.000
59.76500 75.000
59.78000 79.000
59.79500 71.000
59.81000 67.000
59.82500 77.000
59.84000 68.000
59.85500 67.000
59.87000 72.000
59.88500 62.000
59.90000 75.000
59.91500 82.000
59.93000 68.000
59.94500 65.000
59.96000 65.000
59.97500 69.000
59.99000 77.000
60.00500 71.000
60.02000 66.000
60.03500 70.000
60.05000 79.000
60.06500 73.000
60.08000 73.000
60.09500 66.000
60.11000 70.000
60.12500 67.000
60.14000 79.000
60.15500 74.000
60.17000 79.000
60.18500 72.000
60.20000 74.000
60.21500 69.000
60.23000 71.000
60.24500 62.000
60.26000 67.000
60.27500 74.000
60.29000 73.000
60.30500 71.000
60.32000 78.000
60.33500 72.000
60.35000 86.000
60.36500 69.000
60.38000 77.000
60.39500 69.000
60.41000 66.000
60.42500 63.000
60.44000 73.000
60.45500 59.000
60.47000 56.000
60.48500 74.000
60.50000 68.000
60.51500 76.000
60.53000 77.000
60.54500 70.000
60.56000 75.000
60.57500 68.000
60.59000 82.000
60.60500 88.000
60.62000 84.000
60.63500 67.000
60.65000 82.000
60.66500 79.000
60.68000 69.000
60.69500 70.000
60.71000 72.000
60.72500 62.000
60.74000 60.000
60.75500 58.000
60.77000 76.000
60.78500 69.000
60.80000 61.000
60.81500 63.000
60.83000 76.000
60.84500 79.000
60.86000 77.000
60.87500 62.000
60.89000 69.000
60.90500 85.000
60.92000 72.000
60.93500 63.000
60.95000 74.000
60.96500 73.000
60.98000 60.000
60.99500 55.000
61.01000 67.000
61.02500 73.000
61.04000 64.000
61.05500 73.000
61.07000 72.000
61.08500 65.000
61.10000 84.000
61.11500 77.000
61.13000 85.000
61.14500 75.000
61.16000 65.000
61.17500 68.000
61.19000 70.000
61.20500 73.000
61.22000 68.000
61.23500 59.000
61.25000 59.000
61.26500 66.000
61.28000 61.000
61.29500 78.000
61.31000 71.000
61.32500 68.000
61.34000 75.000
61.35500 70.000
61.37000 74.000
61.38500 75.000
61.40000 58.000
61.41500 61.000
61.43000 78.000
61.44500 81.000
61.46000 65.000
61.47500 69.000
61.49000 72.000
61.50500 71.000
61.52000 91.000
61.53500 93.000
61.55000 63.000
61.56500 73.000
61.58000 66.000
61.59500 72.000
61.61000 74.000
61.62500 75.000
61.64000 70.000
61.65500 67.000
61.67000 87.000
61.68500 81.000
61.70000 77.000
61.71500 73.000
61.73000 67.000
61.74500 75.000
61.76000 67.000
61.77500 74.000
61.79000 65.000
61.80500 57.000
61.82000 70.000
61.83500 68.000
61.85000 61.000
61.86500 66.000
61.88000 77.000
61.89500 77.000
61.91000 76.000
61.92500 65.000
61.94000 58.000
61.95500 71.000
61.97000 87.000
61.98500 69.000
