2.00000 514.000
2.01500 532.000
2.03000 545.000
2.04500 532.000
2.06000 506.000
2.07500 492.000
2.09000 467.000
2.10500 481.000
2.12000 484.000
2.13500 521.000
2.15000 485.000
2.16500 434.000
2.18000 453.000
2.19500 454.000
2.21000 425.000
2.22500 448.000
2.24000 436.000
2.25500 417.000
2.27000 406.000
2.28500 391.000
2.30000 418.000
2.31500 404.000
2.33000 379.000
2.34500 381.000
2.36000 392.000
2.37500 398.000
2.39000 387.000
2.40500 403.000
2.42000 354.000
2.43500 350.000
2.45000 365.000
2.46500 362.000
2.48000 352.000
2.49500 323.000
2.51000 336.000
2.52500 342.000
2.54000 335.000
2.55500 331.000
2.57000 319.000
2.58500 336.000
2.60000 322.000
2.61500 295.000
2.63000 303.000
2.64500 303.000
2.66000 298.000
2.67500 330.000
2.69000 276.000
2.70500 270.000
2.72000 295.000
2.73500 297.000
2.75000 268.000
2.76500 266.000
2.78000 292.000
2.79500 285.000
2.81000 293.000
2.82500 286.000
2.84000 275.000
2.85500 305.000
2.87000 274.000
2.88500 261.000
2.90000 251.000
2.91500 278.000
2.93000 264.000
2.94500 259.000
2.96000 256.000
2.97500 267.000
2.99000 236.000
3.00500 257.000
3.02000 250.000
3.03500 254.000
3.05000 237.000
3.06500 255.000
3.08000 229.000
3.09500 244.000
3.11000 240.000
3.12500 241.000
3.14000 232.000
3.15500 231.000
3.17000 223.000
3.18500 217.000
3.20000 212.000
3.21500 243.000
3.23000 232.000
3.24500 241.000
3.26000 237.000
3.27500 224.000
3.29000 242.000
3.30500 229.000
3.32000 221.000
3.33500 211.000
3.35000 210.000
3.36500 200.000
3.38000 213.000
3.39500 234.000
3.41000 210.000
3.42500 213.000
3.44000 226.000
3.45500 217.000
3.47000 209.000
3.48500 217.000
3.50000 227.000
3.51500 221.000
3.53000 229.000
3.54500 208.000
3.56000 203.000
3.57500 208.000
3.59000 223.000
3.60500 208.000
3.62000 206.000
3.63500 221.000
3.65000 210.000
3.66500 209.000
3.68000 221.000
3.69500 208.000
3.71000 235.000
3.72500 219.000
3.74000 194.000
3.75500 225.000
3.77000 215.000
3.78500 213.000
3.80000 220.000
3.81500 212.000
3.83000 198.000
3.84500 202.000
3.86000 211.000
3.87500 203.000
3.89000 191.000
3.90500 209.000
3.92000 199.000
3.93500 242.000
3.95000 220.000
3.96500 219.000
3.98000 201.000
3.99500 179.000
4.01000 200.000
4.02500 198.000
4.04000 198.000
4.05500 211.000
4.07000 204.000
4.08500 218.000
4.10000 207.000
4.11500 179.000
4.13000 185.000
4.14500 191.000
4.16000 189.000
4.17500 223.000
4.19000 205.000
4.20500 207.000
4.22000 202.000
4.23500 181.000
4.25000 215.000
4.26500 206.000
4.28000 211.000
4.29500 198.000
4.31000 211.000
4.32500 201.000
4.34000 184.000
4.35500 201.000
4.37000 192.000
4.38500 208.000
4.40000 218.000
4.41500 216.000
4.43000 201.000
4.44500 204.000
4.46000 192.000
4.47500 211.000
4.49000 189.000
4.50500 184.000
4.52000 197.000
4.53500 194.000
4.55000 214.000
4.56500 217.000
4.58000 188.000
4.59500 206.000
4.61000 195.000
4.62500 181.000
4.64000 197.000
4.65500 198.000
4.67000 190.000
4.68500 195.000
4.70000 215.000
4.71500 217.000
4.73000 209.000
4.74500 208.000
4.76000 186.000
4.77500 193.000
4.79000 194.000
4.80500 191.000
4.82000 218.000
4.83500 208.000
4.85000 198.000
4.86500 186.000
4.88000 219.000
4.89500 210.000
4.91000 209.000
4.92500 208.000
4.94000 216.000
4.95500 201.000
4.97000 193.000
4.98500 199.000
5.00000 193.000
5.01500 201.000
5.03000 224.000
5.04500 199.000
5.06000 189.000
5.07500 179.000
5.09000 200.000
5.10500 200.000
5.12000 209.000
5.13500 202.000
5.15000 178.000
5.16500 190.000
5.18000 198.000
5.19500 191.000
5.21000 206.000
5.22500 195.000
5.24000 203.000
5.25500 197.000
5.27000 199.000
5.28500 180.000
5.30000 182.000
5.31500 175.000
5.33000 205.000
5.34500 205.000
5.36000 207.000
5.37500 200.000
5.39000 192.000
5.40500 214.000
5.42000 190.000
5.43500 195.000
5.45000 197.000
5.46500 185.000
5.48000 193.000
5.49500 184.000
5.51000 191.000
5.52500 195.000
5.54000 202.000
5.55500 199.000
5.57000 213.000
5.58500 212.000
5.60000 216.000
5.61500 218.000
5.63000 224.000
5.64500 200.000
5.66000 206.000
5.67500 210.000
5.69000 194.000
5.70500 192.000
5.72000 196.000
5.73500 204.000
5.75000 222.000
5.76500 208.000
5.78000 189.000
5.79500 199.000
5.81000 213.000
5.82500 182.000
5.84000 185.000
5.85500 208.000
5.87000 221.000
5.88500 224.000
5.90000 181.000
5.91500 201.000
5.93000 207.000
5.94500 193.000
5.96000 188.000
5.97500 186.000
5.99000 222.000
6.00500 186.000
6.02000 203.000
6.03500 194.000
6.05000 208.000
6.06500 187.000
6.08000 181.000
6.09500 187.000
6.11000 191.000
6.12500 210.000
6.14000 181.000
6.15500 203.000
6.17000 207.000
6.18500 207.000
6.20000 203.000
6.21500 206.000
6.23000 211.000
6.24500 179.000
6.26000 201.000
6.27500 219.000
6.29000 197.000
6.30500 216.000
6.32000 228.000
6.33500 189.000
6.35000 220.000
6.36500 219.000
6.38000 203.000
6.39500 225.000
6.41000 209.000
6.42500 182.000
6.44000 207.000
6.45500 192.000
6.47000 203.000
6.48500 208.000
6.50000 215.000
6.51500 224.000
6.53000 198.000
6.54500 196.000
6.56000 210.000
6.57500 203.000
6.59000 187.000
6.60500 201.000
6.62000 198.000
6.63500 212.000
6.65000 197.000
6.66500 199.000
6.68000 194.000
6.69500 216.000
6.71000 233.000
6.72500 210.000
6.74000 222.000
6.75500 216.000
6.77000 200.000
6.78500 192.000
6.80000 186.000
6.81500 204.000
6.83000 212.000
6.84500 210.000
6.86000 202.000
6.87500 214.000
6.89000 197.000
6.90500 193.000
6.92000 194.000
6.93500 200.000
6.95000 218.000
6.96500 217.000
6.98000 195.000
6.99500 206.000
7.01000 215.000
7.02500 216.000
7.04000 187.000
7.05500 200.000
7.07000 210.000
7.08500 216.000
7.10000 229.000
7.11500 200.000
7.13000 208.000
7.14500 193.000
7.16000 214.000
7.17500 200.000
7.19000 188.000
7.20500 205.000
7.22000 169.000
7.23500 173.000
7.25000 223.000
7.26500 236.000
7.28000 204.000
7.29500 196.000
7.31000 193.000
7.32500 200.000
7.34000 218.000
7.35500 200.000
7.37000 186.000
7.38500 195.000
7.40000 204.000
7.41500 188.000
7.43000 203.000
7.44500 207.000
7.46000 197.000
7.47500 194.000
7.49000 165.000
7.50500 204.000
7.52000 208.000
7.53500 202.000
7.55000 201.000
7.56500 198.000
7.58000 197.000
7.59500 199.000
7.61000 215.000
7.62500 216.000
7.64000 203.000
7.65500 197.000
7.67000 199.000
7.68500 182.000
7.70000 190.000
7.71500 195.000
7.73000 214.000
7.74500 204.000
7.76000 213.000
7.77500 222.000
7.79000 211.000
7.80500 217.000
7.82000 196.000
7.83500 197.000
7.85000 224.000
7.86500 206.000
7.88000 209.000
7.89500 220.000
7.91000 213.000
7.92500 210.000
7.94000 233.000
7.95500 209.000
7.97000 213.000
7.98500 217.000
8.00000 205.000
8.01500 199.000
8.03000 214.000
8.04500 218.000
8.06000 222.000
8.07500 229.000
8.09000 221.000
8.10500 200.000
8.12000 212.000
8.13500 209.000
8.15000 220.000
8.16500 217.000
8.18000 217.000
8.19500 193.000
8.21000 206.000
8.22500 231.000
8.24000 229.000
8.25500 230.000
8.27000 218.000
8.28500 219.000
8.30000 227.000
8.31500 236.000
8.33000 212.000
8.34500 219.000
8.36000 249.000
8.37500 239.000
8.39000 257.000
8.40500 266.000
8.42000 228.000
8.43500 239.000
8.45000 251.000
8.46500 249.000
8.48000 249.000
8.49500 261.000
8.51000 264.000
8.52500 264.000
8.54000 275.000
8.55500 275.000
8.57000 276.000
8.58500 265.000
8.60000 266.000
8.61500 265.000
8.63000 282.000
8.64500 275.000
8.66000 271.000
8.67500 263.000
8.69000 276.000
8.70500 259.000
8.72000 251.000
8.73500 239.000
8.75000 253.000
8.76500 261.000
8.78000 244.000
8.79500 238.000
8.81000 226.000
8.82500 242.000
8.84000 248.000
8.85500 256.000
8.87000 235.000
8.88500 205.000
8.90000 209.000
8.91500 206.000
8.93000 208.000
8.94500 201.000
8.96000 200.000
8.97500 224.000
8.99000 223.000
9.00500 201.000
9.02000 208.000
9.03500 253.000
9.05000 221.000
9.06500 228.000
9.08000 223.000
9.09500 225.000
9.11000 209.000
9.12500 212.000
9.14000 241.000
9.15500 234.000
9.17000 210.000
9.18500 201.000
9.20000 189.000
9.21500 210.000
9.23000 214.000
9.24500 206.000
9.26000 197.000
9.27500 222.000
9.29000 200.000
9.30500 183.000
9.32000 202.000
9.33500 202.000
9.35000 217.000
9.36500 195.000
9.38000 228.000
9.39500 203.000
9.41000 191.000
9.42500 218.000
9.44000 229.000
9.45500 215.000
9.47000 202.000
9.48500 192.000
9.50000 206.000
9.51500 212.000
9.53000 212.000
9.54500 234.000
9.56000 207.000
9.57500 204.000
9.59000 219.000
9.60500 202.000
9.62000 212.000
9.63500 202.000
9.65000 199.000
9.66500 203.000
9.68000 214.000
9.69500 205.000
9.71000 207.000
9.72500 197.000
9.74000 195.000
9.75500 225.000
9.77000 236.000
9.78500 208.000
9.80000 226.000
9.81500 218.000
9.83000 206.000
9.84500 216.000
9.86000 219.000
9.87500 212.000
9.89000 227.000
9.90500 235.000
9.92000 212.000
9.93500 227.000
9.95000 239.000
9.96500 251.000
9.98000 243.000
9.99500 217.000
10.01000 206.000
10.02500 216.000
10.04000 229.000
10.05500 241.000
10.07000 225.000
10.08500 231.000
10.10000 230.000
10.11500 223.000
10.13000 195.000
10.14500 187.000
10.16000 201.000
10.17500 211.000
10.19000 223.000
10.20500 207.000
10.22000 205.000
10.23500 206.000
10.25000 193.000
10.26500 198.000
10.28000 198.000
10.29500 197.000
10.31000 201.000
10.32500 224.000
10.34000 219.000
10.35500 206.000
10.37000 208.000
10.38500 203.000
10.40000 225.000
10.41500 224.000
10.43000 214.000
10.44500 203.000
10.46000 211.000
10.47500 236.000
10.49000 242.000
10.50500 204.000
10.52000 207.000
10.53500 206.000
10.55000 206.000
10.56500 206.000
10.58000 213.000
10.59500 220.000
10.61000 234.000
10.62500 212.000
10.64000 219.000
10.65500 249.000
10.67000 229.000
10.68500 231.000
10.70000 222.000
10.71500 253.000
10.73000 214.000
10.74500 209.000
10.76000 232.000
10.77500 225.000
10.79000 233.000
10.80500 236.000
10.82000 223.000
10.83500 237.000
10.85000 222.000
10.86500 202.000
10.88000 254.000
10.89500 232.000
10.91000 206.000
10.92500 220.000
10.94000 225.000
10.95500 217.000
10.97000 226.000
10.98500 229.000
11.00000 241.000
11.01500 239.000
11.03000 230.000
11.04500 246.000
11.06000 245.000
11.07500 244.000
11.09000 269.000
11.10500 265.000
11.12000 271.000
11.13500 269.000
11.15000 248.000
11.16500 278.000
11.18000 265.000
11.19500 288.000
11.21000 282.000
11.22500 282.000
11.24000 312.000
11.25500 334.000
11.27000 356.000
11.28500 369.000
11.30000 383.000
11.31500 362.000
11.33000 389.000
11.34500 383.000
11.36000 420.000
11.37500 460.000
11.39000 474.000
11.40500 487.000
11.42000 490.000
11.43500 544.000
11.45000 583.000
11.46500 577.000
11.48000 573.000
11.49500 605.000
11.51000 630.000
11.52500 606.000
11.54000 614.000
11.55500 640.000
11.57000 607.000
11.58500 605.000
11.60000 585.000
11.61500 571.000
11.63000 595.000
11.64500 574.000
11.66000 559.000
11.67500 549.000
11.69000 508.000
11.70500 502.000
11.72000 488.000
11.73500 490.000
11.75000 446.000
11.76500 454.000
11.78000 452.000
11.79500 411.000
11.81000 432.000
11.82500 416.000
11.84000 427.000
11.85500 442.000
11.87000 411.000
11.88500 436.000
11.90000 444.000
11.91500 417.000
11.93000 372.000
11.94500 398.000
11.96000 390.000
11.97500 367.000
11.99000 351.000
12.00500 323.000
12.02000 316.000
12.03500 311.000
12.05000 277.000
12.06500 246.000
12.08000 304.000
12.09500 272.000
12.11000 239.000
12.12500 252.000
12.14000 239.000
12.15500 243.000
12.17000 235.000
12.18500 238.000
12.20000 224.000
12.21500 241.000
12.23000 209.000
12.24500 231.000
12.26000 227.000
12.27500 234.000
12.29000 219.000
12.30500 235.000
12.32000 232.000
12.33500 231.000
12.35000 228.000
12.36500 221.000
12.38000 219.000
12.39500 218.000
12.41000 198.000
12.42500 216.000
12.44000 233.000
12.45500 213.000
12.47000 199.000
12.48500 206.000
12.50000 199.000
12.51500 215.000
12.53000 232.000
12.54500 222.000
12.56000 242.000
12.57500 244.000
12.59000 222.000
12.60500 217.000
12.62000 217.000
12.63500 218.000
12.65000 223.000
12.66500 223.000
12.68000 254.000
12.69500 229.000
12.71000 213.000
12.72500 247.000
12.74000 269.000
12.75500 262.000
12.77000 240.000
12.78500 244.000
12.80000 260.000
12.81500 250.000
12.83000 274.000
12.84500 274.000
12.86000 268.000
12.87500 231.000
12.89000 262.000
12.90500 275.000
12.92000 286.000
12.93500 289.000
12.95000 294.000
12.96500 285.000
12.98000 262.000
12.99500 265.000
13.01000 279.000
13.02500 253.000
13.04000 264.000
13.05500 260.000
13.07000 253.000
13.08500 266.000
13.10000 275.000
13.11500 257.000
13.13000 247.000
13.14500 249.000
13.16000 248.000
13.17500 256.000
13.19000 265.000
13.20500 239.000
13.22000 271.000
13.23500 245.000
13.25000 235.000
13.26500 250.000
13.28000 222.000
13.29500 229.000
13.31000 224.000
13.32500 241.000
13.34000 243.000
13.35500 252.000
13.37000 235.000
13.38500 232.000
13.40000 231.000
13.41500 224.000
13.43000 226.000
13.44500 237.000
13.46000 234.000
13.47500 221.000
13.49000 222.000
13.50500 233.000
13.52000 235.000
13.53500 219.000
13.55000 227.000
13.56500 224.000
13.58000 238.000
13.59500 214.000
13.61000 220.000
13.62500 209.000
13.64000 184.000
13.65500 207.000
13.67000 227.000
13.68500 219.000
13.70000 248.000
13.71500 218.000
13.73000 192.000
13.74500 197.000
13.76000 204.000
13.77500 196.000
13.79000 231.000
13.80500 215.000
13.82000 208.000
13.83500 194.000
13.85000 198.000
13.86500 192.000
13.88000 201.000
13.89500 187.000
13.91000 213.000
13.92500 225.000
13.94000 193.000
13.95500 206.000
13.97000 207.000
13.98500 227.000
14.00000 191.000
14.01500 166.000
14.03000 199.000
14.04500 217.000
14.06000 229.000
14.07500 219.000
14.09000 225.000
14.10500 235.000
14.12000 212.000
14.13500 209.000
14.15000 236.000
14.16500 214.000
14.18000 226.000
14.19500 233.000
14.21000 216.000
14.22500 214.000
14.24000 229.000
14.25500 197.000
14.27000 205.000
14.28500 228.000
14.30000 191.000
14.31500 206.000
14.33000 221.000
14.34500 196.000
14.36000 196.000
14.37500 214.000
14.39000 200.000
14.40500 212.000
14.42000 217.000
14.43500 201.000
14.45000 228.000
14.46500 192.000
14.48000 196.000
14.49500 193.000
14.51000 199.000
14.52500 202.000
14.54000 185.000
14.55500 219.000
14.57000 209.000
14.58500 204.000
14.60000 197.000
14.61500 202.000
14.63000 197.000
14.64500 193.000
14.66000 227.000
14.67500 202.000
14.69000 213.000
14.70500 213.000
14.72000 221.000
14.73500 218.000
14.75000 217.000
14.76500 215.000
14.78000 208.000
14.79500 201.000
14.81000 198.000
14.82500 206.000
14.84000 220.000
14.85500 195.000
14.87000 194.000
14.88500 202.000
14.90000 187.000
14.91500 191.000
14.93000 196.000
14.94500 218.000
14.96000 218.000
14.97500 217.000
14.99000 192.000
15.00500 197.000
15.02000 214.000
15.03500 186.000
15.05000 205.000
15.06500 212.000
15.08000 198.000
15.09500 194.000
15.11000 197.000
15.12500 191.000
15.14000 182.000
15.15500 186.000
15.17000 237.000
15.18500 219.000
15.20000 202.000
15.21500 177.000
15.23000 200.000
15.24500 222.000
15.26000 211.000
15.27500 196.000
15.29000 225.000
15.30500 220.000
15.32000 205.000
15.33500 214.000
15.35000 190.000
15.36500 206.000
15.38000 215.000
15.39500 209.000
15.41000 206.000
15.42500 205.000
15.44000 200.000
15.45500 213.000
15.47000 180.000
15.48500 212.000
15.50000 209.000
15.51500 214.000
15.53000 220.000
15.54500 210.000
15.56000 227.000
15.57500 217.000
15.59000 222.000
15.60500 209.000
15.62000 220.000
15.63500 212.000
15.65000 216.000
15.66500 216.000
15.68000 225.000
15.69500 223.000
15.71000 206.000
15.72500 209.000
15.74000 221.000
15.75500 221.000
15.77000 223.000
15.78500 210.000
15.80000 222.000
15.81500 209.000
15.83000 205.000
15.84500 213.000
15.86000 217.000
15.87500 218.000
15.89000 232.000
15.90500 237.000
15.92000 214.000
15.93500 207.000
15.95000 200.000
15.96500 197.000
15.98000 198.000
15.99500 203.000
16.01000 222.000
16.02500 210.000
16.04000 221.000
16.05500 214.000
16.07000 214.000
16.08500 229.000
16.10000 227.000
16.11500 213.000
16.13000 225.000
16.14500 230.000
16.16000 220.000
16.17500 234.000
16.19000 221.000
16.20500 206.000
16.22000 219.000
16.23500 236.000
16.25000 256.000
16.26500 239.000
16.28000 245.000
16.29500 241.000
16.31000 225.000
16.32500 235.000
16.34000 221.000
16.35500 215.000
16.37000 201.000
16.38500 225.000
16.40000 238.000
16.41500 236.000
16.43000 229.000
16.44500 227.000
16.46000 226.000
16.47500 229.000
16.49000 231.000
16.50500 221.000
16.52000 231.000
16.53500 220.000
16.55000 218.000
16.56500 238.000
16.58000 225.000
16.59500 209.000
16.61000 236.000
16.62500 235.000
16.64000 222.000
16.65500 218.000
16.67000 230.000
16.68500 199.000
16.70000 223.000
16.71500 218.000
16.73000 217.000
16.74500 228.000
16.76000 214.000
16.77500 223.000
16.79000 212.000
16.80500 210.000
16.82000 217.000
16.83500 215.000
16.85000 213.000
16.86500 197.000
16.88000 225.000
16.89500 237.000
16.91000 220.000
16.92500 202.000
16.94000 207.000
16.95500 232.000
16.97000 212.000
16.98500 241.000
17.00000 238.000
17.01500 219.000
17.03000 214.000
17.04500 217.000
17.06000 209.000
17.07500 213.000
17.09000 242.000
17.10500 203.000
17.12000 201.000
17.13500 229.000
17.15000 204.000
17.16500 211.000
17.18000 195.000
17.19500 229.000
17.21000 222.000
17.22500 213.000
17.24000 214.000
17.25500 218.000
17.27000 216.000
17.28500 209.000
17.30000 240.000
17.31500 235.000
17.33000 215.000
17.34500 243.000
17.36000 235.000
17.37500 252.000
17.39000 217.000
17.40500 246.000
17.42000 243.000
17.43500 217.000
17.45000 221.000
17.46500 226.000
17.48000 226.000
17.49500 225.000
17.51000 226.000
17.52500 236.000
17.54000 248.000
17.55500 225.000
17.57000 227.000
17.58500 242.000
17.60000 232.000
17.61500 226.000
17.63000 243.000
17.64500 240.000
17.66000 261.000
17.67500 235.000
17.69000 235.000
17.70500 228.000
17.72000 224.000
17.73500 237.000
17.75000 235.000
17.76500 230.000
17.78000 232.000
17.79500 253.000
17.81000 232.000
17.82500 212.000
17.84000 229.000
17.85500 240.000
17.87000 235.000
17.88500 233.000
17.90000 231.000
17.91500 218.000
17.93000 254.000
17.94500 236.000
17.96000 215.000
17.97500 237.000
17.99000 241.000
18.00500 258.000
18.02000 247.000
18.03500 225.000
18.05000 229.000
18.06500 224.000
18.08000 246.000
18.09500 237.000
18.11000 236.000
18.12500 265.000
18.14000 231.000
18.15500 228.000
18.17000 235.000
18.18500 232.000
18.20000 254.000
18.21500 249.000
18.23000 240.000
18.24500 267.000
18.26000 248.000
18.27500 252.000
18.29000 240.000
18.30500 263.000
18.32000 262.000
18.33500 222.000
18.35000 241.000
18.36500 240.000
18.38000 248.000
18.39500 229.000
18.41000 270.000
18.42500 268.000
18.44000 263.000
18.45500 253.000
18.47000 249.000
18.48500 250.000
18.50000 255.000
18.51500 262.000
18.53000 251.000
18.54500 211.000
18.56000 256.000
18.57500 259.000
18.59000 240.000
18.60500 265.000
18.62000 275.000
18.63500 281.000
18.65000 270.000
18.66500 252.000
18.68000 221.000
18.69500 257.000
18.71000 256.000
18.72500 264.000
18.74000 256.000
18.75500 262.000
18.77000 268.000
18.78500 229.000
18.80000 255.000
18.81500 262.000
18.83000 274.000
18.84500 267.000
18.86000 257.000
18.87500 244.000
18.89000 241.000
18.90500 252.000
18.92000 244.000
18.93500 272.000
18.95000 241.000
18.96500 250.000
18.98000 272.000
18.99500 260.000
19.01000 287.000
19.02500 253.000
19.04000 255.000
19.05500 251.000
19.07000 247.000
19.08500 272.000
19.10000 260.000
19.11500 239.000
19.13000 237.000
19.14500 226.000
19.16000 221.000
19.17500 243.000
19.19000 232.000
19.20500 238.000
19.22000 267.000
19.23500 265.000
19.25000 298.000
19.26500 274.000
19.28000 288.000
19.29500 258.000
19.31000 268.000
19.32500 275.000
19.34000 271.000
19.35500 254.000
19.37000 237.000
19.38500 272.000
19.40000 280.000
19.41500 248.000
19.43000 250.000
19.44500 268.000
19.46000 285.000
19.47500 269.000
19.49000 279.000
19.50500 277.000
19.52000 288.000
19.53500 278.000
19.55000 247.000
19.56500 244.000
19.58000 242.000
19.59500 240.000
19.61000 270.000
19.62500 256.000
19.64000 291.000
19.65500 261.000
19.67000 266.000
19.68500 270.000
19.70000 258.000
19.71500 268.000
19.73000 282.000
19.74500 278.000
19.76000 271.000
19.77500 273.000
19.79000 265.000
19.80500 267.000
19.82000 266.000
19.83500 258.000
19.85000 242.000
19.86500 278.000
19.88000 271.000
19.89500 285.000
19.91000 269.000
19.92500 268.000
19.94000 238.000
19.95500 297.000
19.97000 287.000
19.98500 285.000
20.00000 272.000
20.01500 275.000
20.03000 279.000
20.04500 293.000
20.06000 267.000
20.07500 264.000
20.09000 291.000
20.10500 278.000
20.12000 282.000
20.13500 310.000
20.15000 275.000
20.16500 271.000
20.18000 245.000
20.19500 253.000
20.21000 267.000
20.22500 297.000
20.24000 281.000
20.25500 288.000
20.27000 260.000
20.28500 265.000
20.30000 281.000
20.31500 293.000
20.33000 285.000
20.34500 263.000
20.36000 249.000
20.37500 312.000
20.39000 277.000
20.40500 290.000
20.42000 278.000
20.43500 278.000
20.45000 280.000
20.46500 265.000
20.48000 277.000
20.49500 260.000
20.51000 276.000
20.52500 266.000
20.54000 253.000
20.55500 260.000
20.57000 296.000
20.58500 267.000
20.60000 285.000
20.61500 253.000
20.63000 265.000
20.64500 263.000
20.66000 259.000
20.67500 260.000
20.69000 259.000
20.70500 266.000
20.72000 292.000
20.73500 293.000
20.75000 294.000
20.76500 275.000
20.78000 293.000
20.79500 286.000
20.81000 233.000
20.82500 278.000
20.84000 258.000
20.85500 274.000
20.87000 298.000
20.88500 279.000
20.90000 263.000
20.91500 250.000
20.93000 270.000
20.94500 279.000
20.96000 281.000
20.97500 272.000
20.99000 289.000
21.00500 264.000
21.02000 255.000
21.03500 271.000
21.05000 274.000
21.06500 295.000
21.08000 301.000
21.09500 279.000
21.11000 288.000
21.12500 281.000
21.14000 294.000
21.15500 271.000
21.17000 272.000
21.18500 273.000
21.20000 271.000
21.21500 295.000
21.23000 290.000
21.24500 288.000
21.26000 289.000
21.27500 299.000
21.29000 284.000
21.30500 297.000
21.32000 279.000
21.33500 263.000
21.35000 286.000
21.36500 277.000
21.38000 279.000
21.39500 270.000
21.41000 300.000
21.42500 274.000
21.44000 276.000
21.45500 273.000
21.47000 285.000
21.48500 307.000
21.50000 302.000
21.51500 289.000
21.53000 289.000
21.54500 308.000
21.56000 293.000
21.57500 277.000
21.59000 282.000
21.60500 284.000
21.62000 303.000
21.63500 312.000
21.65000 301.000
21.66500 295.000
21.68000 285.000
21.69500 302.000
21.71000 284.000
21.72500 296.000
21.74000 321.000
21.75500 281.000
21.77000 288.000
21.78500 304.000
21.80000 303.000
21.81500 315.000
21.83000 290.000
21.84500 284.000
21.86000 283.000
21.87500 269.000
21.89000 296.000
21.90500 299.000
21.92000 303.000
21.93500 280.000
21.95000 272.000
21.96500 277.000
21.98000 273.000
21.99500 280.000
22.01000 281.000
22.02500 315.000
22.04000 321.000
22.05500 309.000
22.07000 305.000
22.08500 310.000
22.10000 314.000
22.11500 312.000
22.13000 310.000
22.14500 294.000
22.16000 281.000
22.17500 296.000
22.19000 307.000
22.20500 287.000
22.22000 290.000
22.23500 288.000
22.25000 275.000
22.26500 287.000
22.28000 284.000
22.29500 298.000
22.31000 289.000
22.32500 291.000
22.34000 295.000
22.35500 280.000
22.37000 292.000
22.38500 291.000
22.40000 303.000
22.41500 305.000
22.43000 307.000
22.44500 268.000
22.46000 280.000
22.47500 320.000
22.49000 301.000
22.50500 270.000
22.52000 303.000
22.53500 294.000
22.55000 283.000
22.56500 314.000
22.58000 310.000
22.59500 310.000
22.61000 317.000
22.62500 279.000
22.64000 270.000
22.65500 320.000
22.67000 328.000
22.68500 326.000
22.70000 328.000
22.71500 282.000
22.73000 305.000
22.74500 324.000
22.76000 302.000
22.77500 296.000
22.79000 309.000
22.80500 304.000
22.82000 353.000
22.83500 336.000
22.85000 307.000
22.86500 303.000
22.88000 306.000
22.89500 315.000
22.91000 323.000
22.92500 298.000
22.94000 297.000
22.95500 304.000
22.97000 291.000
22.98500 318.000
23.00000 304.000
23.01500 308.000
23.03000 311.000
23.04500 314.000
23.06000 310.000
23.07500 331.000
23.09000 305.000
23.10500 302.000
23.12000 313.000
23.13500 291.000
23.15000 301.000
23.16500 332.000
23.18000 306.000
23.19500 317.000
23.21000 306.000
23.22500 325.000
23.24000 298.000
23.25500 304.000
23.27000 310.000
23.28500 359.000
23.30000 341.000
23.31500 315.000
23.33000 304.000
23.34500 299.000
23.36000 319.000
23.37500 333.000
23.39000 336.000
23.40500 341.000
23.42000 349.000
23.43500 322.000
23.45000 324.000
23.46500 324.000
23.48000 319.000
23.49500 330.000
23.51000 348.000
23.52500 341.000
23.54000 307.000
23.55500 296.000
23.57000 320.000
23.58500 345.000
23.60000 323.000
23.61500 299.000
23.63000 329.000
23.64500 290.000
23.66000 305.000
23.67500 337.000
23.69000 306.000
23.70500 298.000
23.72000 332.000
23.73500 310.000
23.75000 305.000
23.76500 301.000
23.78000 307.000
23.79500 312.000
23.81000 325.000
23.82500 321.000
23.84000 323.000
23.85500 338.000
23.87000 325.000
23.88500 320.000
23.90000 340.000
23.91500 337.000
23.93000 301.000
23.94500 331.000
23.96000 320.000
23.97500 311.000
23.99000 310.000
24.00500 337.000
24.02000 311.000
24.03500 341.000
24.05000 388.000
24.06500 345.000
24.08000 343.000
24.09500 323.000
24.11000 321.000
24.12500 342.000
24.14000 328.000
24.15500 344.000
24.17000 320.000
24.18500 333.000
24.20000 321.000
24.21500 335.000
24.23000 346.000
24.24500 310.000
24.26000 322.000
24.27500 346.000
24.29000 331.000
24.30500 336.000
24.32000 320.000
24.33500 341.000
24.35000 319.000
24.36500 344.000
24.38000 347.000
24.39500 320.000
24.41000 326.000
24.42500 348.000
24.44000 366.000
24.45500 339.000
24.47000 323.000
24.48500 360.000
24.50000 334.000
24.51500 339.000
24.53000 357.000
24.54500 332.000
24.56000 346.000
24.57500 319.000
24.59000 338.000
24.60500 364.000
24.62000 345.000
24.63500 349.000
24.65000 330.000
24.66500 396.000
24.68000 365.000
24.69500 368.000
24.71000 343.000
24.72500 371.000
24.74000 345.000
24.75500 393.000
24.77000 390.000
24.78500 374.000
24.80000 358.000
24.81500 383.000
24.83000 360.000
24.84500 348.000
24.86000 351.000
24.87500 393.000
24.89000 393.000
24.90500 402.000
24.92000 379.000
24.93500 384.000
24.95000 401.000
24.96500 407.000
24.98000 400.000
24.99500 418.000
25.01000 411.000
25.02500 402.000
25.04000 375.000
25.05500 388.000
25.07000 419.000
25.08500 434.000
25.10000 410.000
25.11500 436.000
25.13000 411.000
25.14500 434.000
25.16000 429.000
25.17500 449.000
25.19000 435.000
25.20500 456.000
25.22000 471.000
25.23500 496.000
25.25000 467.000
25.26500 439.000
25.28000 474.000
25.29500 483.000
25.31000 499.000
25.32500 500.000
25.34000 512.000
25.35500 532.000
25.37000 522.000
25.38500 551.000
25.40000 550.000
25.41500 550.000
25.43000 558.000
25.44500 536.000
25.46000 599.000
25.47500 617.000
25.49000 615.000
25.50500 572.000
25.52000 631.000
25.53500 587.000
25.55000 605.000
25.56500 593.000
25.58000 638.000
25.59500 624.000
25.61000 564.000
25.62500 567.000
25.64000 590.000
25.65500 572.000
25.67000 579.000
25.68500 570.000
25.70000 567.000
25.71500 522.000
25.73000 511.000
25.74500 474.000
25.76000 511.000
25.77500 505.000
25.79000 488.000
25.80500 469.000
25.82000 501.000
25.83500 458.000
25.85000 449.000
25.86500 448.000
25.88000 422.000
25.89500 441.000
25.91000 416.000
25.92500 438.000
25.94000 438.000
25.95500 418.000
25.97000 413.000
25.98500 369.000
26.00000 395.000
26.01500 445.000
26.03000 406.000
26.04500 388.000
26.06000 396.000
26.07500 402.000
26.09000 406.000
26.10500 395.000
26.12000 387.000
26.13500 413.000
26.15000 358.000
26.16500 366.000
26.18000 381.000
26.19500 386.000
26.21000 397.000
26.22500 434.000
26.24000 397.000
26.25500 385.000
26.27000 368.000
26.28500 382.000
26.30000 372.000
26.31500 405.000
26.33000 403.000
26.34500 390.000
26.36000 391.000
26.37500 395.000
26.39000 399.000
26.40500 367.000
26.42000 401.000
26.43500 404.000
26.45000 399.000
26.46500 396.000
26.48000 383.000
26.49500 379.000
26.51000 400.000
26.52500 423.000
26.54000 406.000
26.55500 388.000
26.57000 423.000
26.58500 425.000
26.60000 419.000
26.61500 416.000
26.63000 426.000
26.64500 420.000
26.66000 404.000
26.67500 418.000
26.69000 418.000
26.70500 448.000
26.72000 447.000
26.73500 399.000
26.75000 396.000
26.76500 415.000
26.78000 414.000
26.79500 393.000
26.81000 404.000
26.82500 401.000
26.84000 416.000
26.85500 432.000
26.87000 423.000
26.88500 448.000
26.90000 467.000
26.91500 435.000
26.93000 448.000
26.94500 470.000
26.96000 468.000
26.97500 468.000
26.99000 494.000
27.00500 489.000
27.02000 508.000
27.03500 493.000
27.05000 501.000
27.06500 527.000
27.08000 519.000
27.09500 517.000
27.11000 554.000
27.12500 512.000
27.14000 520.000
27.15500 572.000
27.17000 559.000
27.18500 532.000
27.20000 541.000
27.21500 547.000
27.23000 546.000
27.24500 554.000
27.26000 571.000
27.27500 579.000
27.29000 600.000
27.30500 644.000
27.32000 615.000
27.33500 609.000
27.35000 603.000
27.36500 636.000
27.38000 603.000
27.39500 656.000
27.41000 685.000
27.42500 658.000
27.44000 667.000
27.45500 674.000
27.47000 671.000
27.48500 654.000
27.50000 653.000
27.51500 670.000
27.53000 657.000
27.54500 608.000
27.56000 635.000
27.57500 598.000
27.59000 586.000
27.60500 556.000
27.62000 555.000
27.63500 526.000
27.65000 531.000
27.66500 516.000
27.68000 455.000
27.69500 450.000
27.71000 478.000
27.72500 456.000
27.74000 433.000
27.75500 435.000
27.77000 436.000
27.78500 393.000
27.80000 412.000
27.81500 399.000
27.83000 391.000
27.84500 398.000
27.86000 381.000
27.87500 377.000
27.89000 402.000
27.90500 390.000
27.92000 354.000
27.93500 339.000
27.95000 337.000
27.96500 348.000
27.98000 353.000
27.99500 356.000
28.01000 344.000
28.02500 329.000
28.04000 328.000
28.05500 328.000
28.07000 346.000
28.08500 321.000
28.10000 324.000
28.11500 312.000
28.13000 320.000
28.14500 312.000
28.16000 314.000
28.17500 302.000
28.19000 314.000
28.20500 306.000
28.22000 311.000
28.23500 296.000
28.25000 311.000
28.26500 303.000
28.28000 307.000
28.29500 300.000
28.31000 299.000
28.32500 307.000
28.34000 325.000
28.35500 285.000
28.37000 272.000
28.38500 281.000
28.40000 271.000
28.41500 297.000
28.43000 290.000
28.44500 321.000
28.46000 294.000
28.47500 291.000
28.49000 306.000
28.50500 288.000
28.52000 289.000
28.53500 279.000
28.55000 286.000
28.56500 289.000
28.58000 268.000
28.59500 299.000
28.61000 320.000
28.62500 298.000
28.64000 282.000
28.65500 304.000
28.67000 260.000
28.68500 270.000
28.70000 274.000
28.71500 278.000
28.73000 301.000
28.74500 314.000
28.76000 266.000
28.77500 273.000
28.79000 298.000
28.80500 290.000
28.82000 284.000
28.83500 280.000
28.85000 280.000
28.86500 277.000
28.88000 285.000
28.89500 271.000
28.91000 282.000
28.92500 263.000
28.94000 271.000
28.95500 309.000
28.97000 303.000
28.98500 322.000
29.00000 253.000
29.01500 270.000
29.03000 276.000
29.04500 288.000
29.06000 308.000
29.07500 276.000
29.09000 275.000
29.10500 274.000
29.12000 267.000
29.13500 264.000
29.15000 271.000
29.16500 286.000
29.18000 257.000
29.19500 281.000
29.21000 290.000
29.22500 306.000
29.24000 288.000
29.25500 255.000
29.27000 286.000
29.28500 281.000
29.30000 279.000
29.31500 288.000
29.33000 263.000
29.34500 260.000
29.36000 256.000
29.37500 273.000
29.39000 275.000
29.40500 272.000
29.42000 253.000
29.43500 252.000
29.45000 271.000
29.46500 271.000
29.48000 288.000
29.49500 258.000
29.51000 261.000
29.52500 300.000
29.54000 289.000
29.55500 272.000
29.57000 302.000
29.58500 275.000
29.60000 276.000
29.61500 259.000
29.63000 272.000
29.64500 260.000
29.66000 267.000
29.67500 273.000
29.69000 272.000
29.70500 262.000
29.72000 286.000
29.73500 266.000
29.75000 252.000
29.76500 273.000
29.78000 270.000
29.79500 270.000
29.81000 262.000
29.82500 255.000
29.84000 269.000
29.85500 282.000
29.87000 295.000
29.88500 284.000
29.90000 273.000
29.91500 289.000
29.93000 267.000
29.94500 289.000
29.96000 259.000
29.97500 263.000
29.99000 297.000
30.00500 281.000
30.02000 288.000
30.03500 291.000
30.05000 270.000
30.06500 257.000
30.08000 294.000
30.09500 296.000
30.11000 292.000
30.12500 295.000
30.14000 262.000
30.15500 292.000
30.17000 316.000
30.18500 305.000
30.20000 289.000
30.21500 296.000
30.23000 292.000
30.24500 287.000
30.26000 317.000
30.27500 274.000
30.29000 302.000
30.30500 301.000
30.32000 297.000
30.33500 323.000
30.35000 315.000
30.36500 313.000
30.38000 294.000
30.39500 316.000
30.41000 296.000
30.42500 284.000
30.44000 283.000
30.45500 292.000
30.47000 337.000
30.48500 315.000
30.50000 279.000
30.51500 303.000
30.53000 301.000
30.54500 280.000
30.56000 274.000
30.57500 278.000
30.59000 281.000
30.60500 271.000
30.62000 282.000
30.63500 300.000
30.65000 297.000
30.66500 277.000
30.68000 263.000
30.69500 278.000
30.71000 287.000
30.72500 272.000
30.74000 266.000
30.75500 270.000
30.77000 257.000
30.78500 239.000
30.80000 274.000
30.81500 283.000
30.83000 267.000
30.84500 257.000
30.86000 244.000
30.87500 278.000
30.89000 257.000
30.90500 251.000
30.92000 252.000
30.93500 261.000
30.95000 258.000
30.96500 275.000
30.98000 256.000
30.99500 261.000
31.01000 257.000
31.02500 297.000
31.04000 248.000
31.05500 244.000
31.07000 260.000
31.08500 270.000
31.10000 276.000
31.11500 246.000
31.13000 247.000
31.14500 234.000
31.16000 226.000
31.17500 255.000
31.19000 246.000
31.20500 235.000
31.22000 261.000
31.23500 263.000
31.25000 254.000
31.26500 234.000
31.28000 214.000
31.29500 251.000
31.31000 224.000
31.32500 231.000
31.34000 220.000
31.35500 260.000
31.37000 255.000
31.38500 221.000
31.40000 223.000
31.41500 225.000
31.43000 228.000
31.44500 241.000
31.46000 240.000
31.47500 236.000
31.49000 238.000
31.50500 213.000
31.52000 214.000
31.53500 229.000
31.55000 230.000
31.56500 230.000
31.58000 210.000
31.59500 203.000
31.61000 221.000
31.62500 223.000
31.64000 231.000
31.65500 252.000
31.67000 229.000
31.68500 208.000
31.70000 241.000
31.71500 238.000
31.73000 263.000
31.74500 242.000
31.76000 215.000
31.77500 211.000
31.79000 201.000
31.80500 211.000
31.82000 215.000
31.83500 196.000
31.85000 216.000
31.86500 236.000
31.88000 225.000
31.89500 205.000
31.91000 220.000
31.92500 224.000
31.94000 203.000
31.95500 235.000
31.97000 219.000
31.98500 224.000
32.00000 247.000
32.01500 224.000
32.03000 249.000
32.04500 205.000
32.06000 213.000
32.07500 216.000
32.09000 203.000
32.10500 211.000
32.12000 213.000
32.13500 248.000
32.15000 224.000
32.16500 222.000
32.18000 222.000
32.19500 201.000
32.21000 204.000
32.22500 188.000
32.24000 213.000
32.25500 226.000
32.27000 212.000
32.28500 201.000
32.30000 211.000
32.31500 193.000
32.33000 216.000
32.34500 221.000
32.36000 209.000
32.37500 197.000
32.39000 214.000
32.40500 222.000
32.42000 205.000
32.43500 210.000
32.45000 233.000
32.46500 205.000
32.48000 197.000
32.49500 209.000
32.51000 223.000
32.52500 225.000
32.54000 209.000
32.55500 220.000
32.57000 234.000
32.58500 233.000
32.60000 239.000
32.61500 219.000
32.63000 215.000
32.64500 200.000
32.66000 209.000
32.67500 212.000
32.69000 217.000
32.70500 219.000
32.72000 180.000
32.73500 186.000
32.75000 215.000
32.76500 225.000
32.78000 218.000
32.79500 212.000
32.81000 220.000
32.82500 221.000
32.84000 231.000
32.85500 219.000
32.87000 212.000
32.88500 207.000
32.90000 189.000
32.91500 187.000
32.93000 203.000
32.94500 216.000
32.96000 189.000
32.97500 192.000
32.99000 198.000
33.00500 208.000
33.02000 201.000
33.03500 213.000
33.05000 182.000
33.06500 190.000
33.08000 179.000
33.09500 185.000
33.11000 189.000
33.12500 178.000
33.14000 188.000
33.15500 193.000
33.17000 187.000
33.18500 189.000
33.20000 195.000
33.21500 180.000
33.23000 193.000
33.24500 178.000
33.26000 205.000
33.27500 204.000
33.29000 193.000
33.30500 182.000
33.32000 199.000
33.33500 211.000
33.35000 198.000
33.36500 208.000
33.38000 188.000
33.39500 213.000
33.41000 197.000
33.42500 197.000
33.44000 215.000
33.45500 186.000
33.47000 201.000
33.48500 190.000
33.50000 201.000
33.51500 195.000
33.53000 177.000
33.54500 184.000
33.56000 188.000
33.57500 186.000
33.59000 208.000
33.60500 197.000
33.62000 187.000
33.63500 177.000
33.65000 181.000
33.66500 210.000
33.68000 197.000
33.69500 187.000
33.71000 184.000
33.72500 206.000
33.74000 192.000
33.75500 189.000
33.77000 195.000
33.78500 190.000
33.80000 174.000
33.81500 180.000
33.83000 192.000
33.84500 206.000
33.86000 188.000
33.87500 193.000
33.89000 190.000
33.90500 179.000
33.92000 177.000
33.93500 190.000
33.95000 196.000
33.96500 187.000
33.98000 193.000
33.99500 168.000
34.01000 175.000
34.02500 179.000
34.04000 188.000
34.05500 190.000
34.07000 186.000
34.08500 187.000
34.10000 188.000
34.11500 166.000
34.13000 179.000
34.14500 198.000
34.16000 173.000
34.17500 177.000
34.19000 185.000
34.20500 164.000
34.22000 163.000
34.23500 175.000
34.25000 176.000
34.26500 160.000
34.28000 166.000
34.29500 190.000
34.31000 170.000
34.32500 154.000
34.34000 187.000
34.35500 175.000
34.37000 183.000
34.38500 185.000
34.40000 170.000
34.41500 178.000
34.43000 170.000
34.44500 176.000
34.46000 190.000
34.47500 182.000
34.49000 191.000
34.50500 182.000
34.52000 172.000
34.53500 179.000
34.55000 179.000
34.56500 164.000
34.58000 175.000
34.59500 164.000
34.61000 188.000
34.62500 191.000
34.64000 204.000
34.65500 185.000
34.67000 195.000
34.68500 172.000
34.70000 178.000
34.71500 189.000
34.73000 177.000
34.74500 184.000
34.76000 184.000
34.77500 178.000
34.79000 171.000
34.80500 171.000
34.82000 178.000
34.83500 185.000
34.85000 177.000
34.86500 171.000
34.88000 175.000
34.89500 180.000
34.91000 175.000
34.92500 189.000
34.94000 174.000
34.95500 169.000
34.97000 158.000
34.98500 162.000
35.00000 178.000
35.01500 165.000
35.03000 171.000
35.04500 166.000
35.06000 184.000
35.07500 169.000
35.09000 175.000
35.10500 165.000
35.12000 171.000
35.13500 166.000
35.15000 181.000
35.16500 179.000
35.18000 177.000
35.19500 160.000
35.21000 174.000
35.22500 169.000
35.24000 181.000
35.25500 172.000
35.27000 175.000
35.28500 159.000
35.30000 167.000
35.31500 166.000
35.33000 157.000
35.34500 172.000
35.36000 152.000
35.37500 159.000
35.39000 172.000
35.40500 172.000
35.42000 177.000
35.43500 182.000
35.45000 165.000
35.46500 158.000
35.48000 156.000
35.49500 152.000
35.51000 146.000
35.52500 182.000
35.54000 167.000
35.55500 151.000
35.57000 169.000
35.58500 176.000
35.60000 168.000
35.61500 163.000
35.63000 168.000
35.64500 159.000
35.66000 157.000
35.67500 161.000
35.69000 180.000
35.70500 167.000
35.72000 162.000
35.73500 165.000
35.75000 169.000
35.76500 169.000
35.78000 152.000
35.79500 155.000
35.81000 148.000
35.82500 161.000
35.84000 151.000
35.85500 185.000
35.87000 171.000
35.88500 147.000
35.90000 140.000
35.91500 135.000
35.93000 149.000
35.94500 174.000
35.96000 148.000
35.97500 159.000
35.99000 144.000
36.00500 159.000
36.02000 165.000
36.03500 142.000
36.05000 154.000
36.06500 147.000
36.08000 172.000
36.09500 177.000
36.11000 169.000
36.12500 141.000
36.14000 155.000
36.15500 154.000
36.17000 140.000
36.18500 144.000
36.20000 147.000
36.21500 149.000
36.23000 151.000
36.24500 138.000
36.26000 151.000
36.27500 149.000
36.29000 146.000
36.30500 156.000
36.32000 153.000
36.33500 161.000
36.35000 159.000
36.36500 145.000
36.38000 136.000
36.39500 149.000
36.41000 145.000
36.42500 153.000
36.44000 148.000
36.45500 163.000
36.47000 146.000
36.48500 149.000
36.50000 167.000
36.51500 150.000
36.53000 140.000
36.54500 132.000
36.56000 142.000
36.57500 147.000
36.59000 154.000
36.60500 162.000
36.62000 137.000
36.63500 149.000
36.65000 179.000
36.66500 172.000
36.68000 152.000
36.69500 147.000
36.71000 129.000
36.72500 165.000
36.74000 171.000
36.75500 159.000
36.77000 140.000
36.78500 165.000
36.80000 164.000
36.81500 156.000
36.83000 159.000
36.84500 150.000
36.86000 144.000
36.87500 143.000
36.89000 175.000
36.90500 144.000
36.92000 147.000
36.93500 137.000
36.95000 144.000
36.96500 138.000
36.98000 156.000
36.99500 156.000
37.01000 160.000
37.02500 146.000
37.04000 154.000
37.05500 135.000
37.07000 142.000
37.08500 152.000
37.10000 161.000
37.11500 154.000
37.13000 145.000
37.14500 154.000
37.16000 139.000
37.17500 138.000
37.19000 130.000
37.20500 135.000
37.22000 149.000
37.23500 148.000
37.25000 135.000
37.26500 144.000
37.28000 124.000
37.29500 142.000
37.31000 144.000
37.32500 140.000
37.34000 135.000
37.35500 140.000
37.37000 141.000
37.38500 133.000
37.40000 150.000
37.41500 134.000
37.43000 115.000
37.44500 137.000
37.46000 133.000
37.47500 125.000
37.49000 122.000
37.50500 142.000
37.52000 151.000
37.53500 150.000
37.55000 133.000
37.56500 149.000
37.58000 125.000
37.59500 122.000
37.61000 135.000
37.62500 142.000
37.64000 157.000
37.65500 148.000
37.67000 152.000
37.68500 141.000
37.70000 131.000
37.71500 153.000
37.73000 159.000
37.74500 137.000
37.76000 134.000
37.77500 139.000
37.79000 123.000
37.80500 141.000
37.82000 135.000
37.83500 140.000
37.85000 140.000
37.86500 137.000
37.88000 150.000
37.89500 150.000
37.91000 130.000
37.92500 131.000
37.94000 131.000
37.95500 150.000
37.97000 136.000
37.98500 136.000
38.00000 151.000
38.01500 152.000
38.03000 136.000
38.04500 151.000
38.06000 130.000
38.07500 132.000
38.09000 124.000
38.10500 134.000
38.12000 137.000
38.13500 126.000
38.15000 130.000
38.16500 138.000
38.18000 127.000
38.19500 128.000
38.21000 129.000
38.22500 137.000
38.24000 117.000
38.25500 146.000
38.27000 137.000
38.28500 146.000
38.30000 140.000
38.31500 134.000
38.33000 149.000
38.34500 133.000
38.36000 136.000
38.37500 140.000
38.39000 148.000
38.40500 142.000
38.42000 139.000
38.43500 136.000
38.45000 127.000
38.46500 148.000
38.48000 125.000
38.49500 145.000
38.51000 130.000
38.52500 128.000
38.54000 150.000
38.55500 150.000
38.57000 147.000
38.58500 155.000
38.60000 134.000
38.61500 140.000
38.63000 154.000
38.64500 143.000
38.66000 152.000
38.67500 152.000
38.69000 138.000
38.70500 136.000
38.72000 138.000
38.73500 137.000
38.75000 137.000
38.76500 137.000
38.78000 132.000
38.79500 135.000
38.81000 136.000
38.82500 134.000
38.84000 136.000
38.85500 129.000
38.87000 142.000
38.88500 171.000
38.90000 139.000
38.91500 154.000
38.93000 151.000
38.94500 145.000
38.96000 143.000
38.97500 146.000
38.99000 144.000
39.00500 140.000
39.02000 140.000
39.03500 155.000
39.05000 127.000
39.06500 133.000
39.08000 137.000
39.09500 137.000
39.11000 143.000
39.12500 160.000
39.14000 143.000
39.15500 137.000
39.17000 154.000
39.18500 143.000
39.20000 128.000
39.21500 140.000
39.23000 145.000
39.24500 150.000
39.26000 144.000
39.27500 136.000
39.29000 139.000
39.30500 138.000
39.32000 146.000
39.33500 137.000
39.35000 144.000
39.36500 128.000
39.38000 136.000
39.39500 128.000
39.41000 120.000
39.42500 133.000
39.44000 138.000
39.45500 137.000
39.47000 139.000
39.48500 139.000
39.50000 144.000
39.51500 136.000
39.53000 135.000
39.54500 143.000
39.56000 143.000
39.57500 137.000
39.59000 136.000
39.60500 137.000
39.62000 141.000
39.63500 142.000
39.65000 141.000
39.66500 151.000
39.68000 146.000
39.69500 124.000
39.71000 146.000
39.72500 149.000
39.74000 134.000
39.75500 134.000
39.77000 145.000
39.78500 155.000
39.80000 141.000
39.81500 146.000
39.83000 132.000
39.84500 142.000
39.86000 139.000
39.87500 154.000
39.89000 150.000
39.90500 152.000
39.92000 162.000
39.93500 141.000
39.95000 128.000
39.96500 144.000
39.98000 143.000
39.99500 139.000
40.01000 148.000
40.02500 154.000
40.04000 135.000
40.05500 144.000
40.07000 136.000
40.08500 155.000
40.10000 141.000
40.11500 131.000
40.13000 133.000
40.14500 130.000
40.16000 145.000
40.17500 156.000
40.19000 170.000
40.20500 144.000
40.22000 151.000
40.23500 146.000
40.25000 139.000
40.26500 138.000
40.28000 152.000
40.29500 154.000
40.31000 162.000
40.32500 143.000
40.34000 139.000
40.35500 169.000
40.37000 162.000
40.38500 143.000
40.40000 150.000
40.41500 153.000
40.43000 145.000
40.44500 155.000
40.46000 137.000
40.47500 148.000
40.49000 149.000
40.50500 141.000
40.52000 153.000
40.53500 149.000
40.55000 136.000
40.56500 160.000
40.58000 151.000
40.59500 145.000
40.61000 145.000
40.62500 139.000
40.64000 154.000
40.65500 142.000
40.67000 152.000
40.68500 152.000
40.70000 138.000
40.71500 136.000
40.73000 123.000
40.74500 132.000
40.76000 131.000
40.77500 147.000
40.79000 168.000
40.80500 160.000
40.82000 142.000
40.83500 127.000
40.85000 141.000
40.86500 150.000
40.88000 125.000
40.89500 126.000
40.91000 138.000
40.92500 153.000
40.94000 134.000
40.95500 169.000
40.97000 158.000
40.98500 165.000
41.00000 155.000
41.01500 164.000
41.03000 138.000
41.04500 148.000
41.06000 141.000
41.07500 143.000
41.09000 130.000
41.10500 137.000
41.12000 135.000
41.13500 145.000
41.15000 140.000
41.16500 141.000
41.18000 151.000
41.19500 140.000
41.21000 143.000
41.22500 136.000
41.24000 144.000
41.25500 146.000
41.27000 150.000
41.28500 152.000
41.30000 136.000
41.31500 133.000
41.33000 140.000
41.34500 130.000
41.36000 153.000
41.37500 163.000
41.39000 147.000
41.40500 154.000
41.42000 142.000
41.43500 137.000
41.45000 129.000
41.46500 142.000
41.48000 144.000
41.49500 150.000
41.51000 127.000
41.52500 141.000
41.54000 141.000
41.55500 149.000
41.57000 157.000
41.58500 156.000
41.60000 143.000
41.61500 146.000
41.63000 147.000
41.64500 143.000
41.66000 128.000
41.67500 136.000
41.69000 131.000
41.70500 146.000
41.72000 123.000
41.73500 120.000
41.75000 131.000
41.76500 120.000
41.78000 130.000
41.79500 137.000
41.81000 151.000
41.82500 143.000
41.84000 158.000
41.85500 132.000
41.87000 126.000
41.88500 123.000
41.90000 147.000
41.91500 136.000
41.93000 145.000
41.94500 133.000
41.96000 124.000
41.97500 126.000
41.99000 142.000
42.00500 152.000
42.02000 135.000
42.03500 125.000
42.05000 122.000
42.06500 150.000
42.08000 141.000
42.09500 153.000
42.11000 152.000
42.12500 134.000
42.14000 142.000
42.15500 149.000
42.17000 134.000
42.18500 130.000
42.20000 132.000
42.21500 132.000
42.23000 124.000
42.24500 128.000
42.26000 125.000
42.27500 139.000
42.29000 139.000
42.30500 125.000
42.32000 127.000
42.33500 140.000
42.35000 135.000
42.36500 114.000
42.38000 116.000
42.39500 110.000
42.41000 120.000
42.42500 132.000
42.44000 137.000
42.45500 134.000
42.47000 136.000
42.48500 132.000
42.50000 120.000
42.51500 134.000
42.53000 117.000
42.54500 129.000
42.56000 146.000
42.57500 135.000
42.59000 150.000
42.60500 127.000
42.62000 109.000
42.63500 123.000
42.65000 127.000
42.66500 125.000
42.68000 140.000
42.69500 143.000
42.71000 134.000
42.72500 129.000
42.74000 139.000
42.75500 134.000
42.77000 140.000
42.78500 145.000
42.80000 142.000
42.81500 141.000
42.83000 156.000
42.84500 135.000
42.86000 130.000
42.87500 127.000
42.89000 128.000
42.90500 133.000
42.92000 138.000
42.93500 135.000
42.95000 136.000
42.96500 130.000
42.98000 114.000
42.99500 124.000
43.01000 131.000
43.02500 142.000
43.04000 134.000
43.05500 141.000
43.07000 133.000
43.08500 158.000
43.10000 124.000
43.11500 120.000
43.13000 133.000
43.14500 126.000
43.16000 125.000
43.17500 124.000
43.19000 119.000
43.20500 130.000
43.22000 135.000
43.23500 121.000
43.25000 116.000
43.26500 124.000
43.28000 136.000
43.29500 131.000
43.31000 145.000
43.32500 134.000
43.34000 148.000
43.35500 118.000
43.37000 126.000
43.38500 135.000
43.40000 126.000
43.41500 134.000
43.43000 131.000
43.44500 139.000
43.46000 132.000
43.47500 143.000
43.49000 137.000
43.50500 133.000
43.52000 151.000
43.53500 148.000
43.55000 128.000
43.56500 132.000
43.58000 120.000
43.59500 126.000
43.61000 126.000
43.62500 126.000
43.64000 114.000
43.65500 123.000
43.67000 132.000
43.68500 130.000
43.70000 151.000
43.71500 122.000
43.73000 122.000
43.74500 121.000
43.76000 141.000
43.77500 135.000
43.79000 125.000
43.80500 125.000
43.82000 131.000
43.83500 144.000
43.85000 129.000
43.86500 118.000
43.88000 125.000
43.89500 125.000
43.91000 123.000
43.92500 128.000
43.94000 120.000
43.95500 118.000
43.97000 122.000
43.98500 119.000
44.00000 114.000
44.01500 123.000
44.03000 128.000
44.04500 132.000
44.06000 138.000
44.07500 126.000
44.09000 138.000
44.10500 124.000
44.12000 122.000
44.13500 113.000
44.15000 124.000
44.16500 117.000
44.18000 120.000
44.19500 116.000
44.21000 128.000
44.22500 121.000
44.24000 140.000
44.25500 129.000
44.27000 135.000
44.28500 120.000
44.30000 133.000
44.31500 121.000
44.33000 122.000
44.34500 110.000
44.36000 122.000
44.37500 125.000
44.39000 121.000
44.40500 139.000
44.42000 140.000
44.43500 132.000
44.45000 112.000
44.46500 124.000
44.48000 114.000
44.49500 126.000
44.51000 129.000
44.52500 114.000
44.54000 110.000
44.55500 125.000
44.57000 136.000
44.58500 130.000
44.60000 136.000
44.61500 122.000
44.63000 117.000
44.64500 133.000
44.66000 129.000
44.67500 131.000
44.69000 116.000
44.70500 123.000
44.72000 126.000
44.73500 128.000
44.75000 121.000
44.76500 138.000
44.78000 139.000
44.79500 118.000
44.81000 126.000
44.82500 125.000
44.84000 128.000
44.85500 115.000
44.87000 123.000
44.88500 117.000
44.90000 138.000
44.91500 134.000
44.93000 122.000
44.94500 131.000
44.96000 127.000
44.97500 127.000
44.99000 113.000
45.00500 140.000
45.02000 129.000
45.03500 130.000
45.05000 130.000
45.06500 110.000
45.08000 125.000
45.09500 119.000
45.11000 129.000
45.12500 141.000
45.14000 121.000
45.15500 116.000
45.17000 127.000
45.18500 138.000
45.20000 136.000
45.21500 120.000
45.23000 119.000
45.24500 118.000
45.26000 122.000
45.27500 133.000
45.29000 138.000
45.30500 161.000
45.32000 144.000
45.33500 127.000
45.35000 128.000
45.36500 138.000
45.38000 131.000
45.39500 133.000
45.41000 119.000
45.42500 123.000
45.44000 117.000
45.45500 120.000
45.47000 116.000
45.48500 113.000
45.50000 130.000
45.51500 139.000
45.53000 123.000
45.54500 124.000
45.56000 129.000
45.57500 117.000
45.59000 133.000
45.60500 120.000
45.62000 121.000
45.63500 127.000
45.65000 126.000
45.66500 122.000
45.68000 120.000
45.69500 123.000
45.71000 126.000
45.72500 127.000
45.74000 118.000
45.75500 131.000
45.77000 134.000
45.78500 118.000
45.80000 125.000
45.81500 129.000
45.83000 133.000
45.84500 138.000
45.86000 132.000
45.87500 108.000
45.89000 111.000
45.90500 122.000
45.92000 130.000
45.93500 135.000
45.95000 135.000
45.96500 114.000
45.98000 127.000
45.99500 132.000
46.01000 120.000
46.02500 123.000
46.04000 137.000
46.05500 134.000
46.07000 128.000
46.08500 130.000
46.10000 112.000
46.11500 139.000
46.13000 137.000
46.14500 150.000
46.16000 121.000
46.17500 130.000
46.19000 143.000
46.20500 137.000
46.22000 112.000
46.23500 125.000
46.25000 137.000
46.26500 120.000
46.28000 123.000
46.29500 111.000
46.31000 122.000
46.32500 124.000
46.34000 140.000
46.35500 119.000
46.37000 137.000
46.38500 122.000
46.40000 135.000
46.41500 133.000
46.43000 133.000
46.44500 141.000
46.46000 133.000
46.47500 138.000
46.49000 113.000
46.50500 112.000
46.52000 122.000
46.53500 135.000
46.55000 157.000
46.56500 114.000
46.58000 126.000
46.59500 130.000
46.61000 132.000
46.62500 129.000
46.64000 120.000
46.65500 132.000
46.67000 122.000
46.68500 131.000
46.70000 124.000
46.71500 128.000
46.73000 127.000
46.74500 113.000
46.76000 115.000
46.77500 113.000
46.79000 130.000
46.80500 128.000
46.82000 122.000
46.83500 109.000
46.85000 131.000
46.86500 120.000
46.88000 127.000
46.89500 111.000
46.91000 115.000
46.92500 135.000
46.94000 124.000
46.95500 130.000
46.97000 124.000
46.98500 129.000
47.00000 125.000
47.01500 109.000
47.03000 100.000
47.04500 120.000
47.06000 117.000
47.07500 125.000
47.09000 124.000
47.10500 125.000
47.12000 115.000
47.13500 131.000
47.15000 133.000
47.16500 130.000
47.18000 125.000
47.19500 133.000
47.21000 101.000
47.22500 114.000
47.24000 114.000
47.25500 118.000
47.27000 113.000
47.28500 130.000
47.30000 117.000
47.31500 111.000
47.33000 96.000
47.34500 92.000
47.36000 105.000
47.37500 115.000
47.39000 118.000
47.40500 124.000
47.42000 131.000
47.43500 109.000
47.45000 108.000
47.46500 107.000
47.48000 117.000
47.49500 119.000
47.51000 122.000
47.52500 123.000
47.54000 98.000
47.55500 119.000
47.57000 120.000
47.58500 117.000
47.60000 125.000
47.61500 118.000
47.63000 106.000
47.64500 109.000
47.66000 101.000
47.67500 122.000
47.69000 119.000
47.70500 117.000
47.72000 112.000
47.73500 123.000
47.75000 107.000
47.76500 101.000
47.78000 110.000
47.79500 112.000
47.81000 110.000
47.82500 106.000
47.84000 120.000
47.85500 100.000
47.87000 122.000
47.88500 120.000
47.90000 135.000
47.91500 110.000
47.93000 106.000
47.94500 117.000
47.96000 118.000
47.97500 117.000
47.99000 134.000
48.00500 112.000
48.02000 109.000
48.03500 114.000
48.05000 121.000
48.06500 115.000
48.08000 111.000
48.09500 128.000
48.11000 125.000
48.12500 113.000
48.14000 107.000
48.15500 111.000
48.17000 115.000
48.18500 128.000
48.20000 127.000
48.21500 107.000
48.23000 113.000
48.24500 110.000
48.26000 109.000
48.27500 128.000
48.29000 133.000
48.30500 115.000
48.32000 120.000
48.33500 121.000
48.35000 139.000
48.36500 127.000
48.38000 117.000
48.39500 119.000
48.41000 103.000
48.42500 98.000
48.44000 124.000
48.45500 119.000
48.47000 114.000
48.48500 124.000
48.50000 130.000
48.51500 114.000
48.53000 98.000
48.54500 99.000
48.56000 102.000
48.57500 128.000
48.59000 123.000
48.60500 111.000
48.62000 114.000
48.63500 115.000
48.65000 127.000
48.66500 110.000
48.68000 112.000
48.69500 116.000
48.71000 116.000
48.72500 111.000
48.74000 129.000
48.75500 108.000
48.77000 119.000
48.78500 114.000
48.80000 120.000
48.81500 108.000
48.83000 107.000
48.84500 108.000
48.86000 117.000
48.87500 124.000
48.89000 116.000
48.90500 109.000
48.92000 111.000
48.93500 106.000
48.95000 107.000
48.96500 103.000
48.98000 118.000
48.99500 129.000
49.01000 113.000
49.02500 116.000
49.04000 105.000
49.05500 108.000
49.07000 116.000
49.08500 116.000
49.10000 122.000
49.11500 113.000
49.13000 103.000
49.14500 94.000
49.16000 115.000
49.17500 121.000
49.19000 122.000
49.20500 114.000
49.22000 120.000
49.23500 128.000
49.25000 126.000
49.26500 105.000
49.28000 112.000
49.29500 100.000
49.31000 126.000
49.32500 128.000
49.34000 134.000
49.35500 128.000
49.37000 104.000
49.38500 100.000
49.40000 97.000
49.41500 103.000
49.43000 116.000
49.44500 104.000
49.46000 113.000
49.47500 99.000
49.49000 103.000
49.50500 103.000
49.52000 101.000
49.53500 124.000
49.55000 128.000
49.56500 105.000
49.58000 124.000
49.59500 117.000
49.61000 125.000
49.62500 116.000
49.64000 100.000
49.65500 105.000
49.67000 99.000
49.68500 102.000
49.70000 121.000
49.71500 114.000
49.73000 103.000
49.74500 108.000
49.76000 101.000
49.77500 94.000
49.79000 105.000
49.80500 92.000
49.82000 98.000
49.83500 119.000
49.85000 122.000
49.86500 109.000
49.88000 106.000
49.89500 104.000
49.91000 112.000
49.92500 110.000
49.94000 104.000
49.95500 92.000
49.97000 98.000
49.98500 104.000
50.00000 97.000
50.01500 99.000
50.03000 111.000
50.04500 96.000
50.06000 115.000
50.07500 125.000
50.09000 127.000
50.10500 109.000
50.12000 109.000
50.13500 99.000
50.15000 115.000
50.16500 106.000
50.18000 106.000
50.19500 114.000
50.21000 108.000
50.22500 123.000
50.24000 106.000
50.25500 103.000
50.27000 109.000
50.28500 111.000
50.30000 104.000
50.31500 122.000
50.33000 121.000
50.34500 110.000
50.36000 124.000
50.37500 119.000
50.39000 114.000
50.40500 103.000
50.42000 100.000
50.43500 112.000
50.45000 108.000
50.46500 97.000
50.48000 101.000
50.49500 111.000
50.51000 126.000
50.52500 128.000
50.54000 119.000
50.55500 115.000
50.57000 106.000
50.58500 105.000
50.60000 99.000
50.61500 109.000
50.63000 99.000
50.64500 105.000
50.66000 101.000
50.67500 119.000
50.69000 118.000
50.70500 110.000
50.72000 96.000
50.73500 102.000
50.75000 100.000
50.76500 105.000
50.78000 123.000
50.79500 120.000
50.81000 105.000
50.82500 105.000
50.84000 121.000
50.85500 100.000
50.87000 107.000
50.88500 108.000
50.90000 120.000
50.91500 112.000
50.93000 114.000
50.94500 102.000
50.96000 100.000
50.97500 95.000
50.99000 105.000
51.00500 102.000
51.02000 110.000
51.03500 99.000
51.05000 100.000
51.06500 115.000
51.08000 108.000
51.09500 111.000
51.11000 98.000
51.12500 108.000
51.14000 103.000
51.15500 103.000
51.17000 98.000
51.18500 114.000
51.20000 113.000
51.21500 108.000
51.23000 118.000
51.24500 101.000
51.26000 115.000
51.27500 106.000
51.29000 109.000
51.30500 104.000
51.32000 105.000
51.33500 98.000
51.35000 104.000
51.36500 103.000
51.38000 105.000
51.39500 103.000
51.41000 116.000
51.42500 104.000
51.44000 114.000
51.45500 113.000
51.47000 108.000
51.48500 111.000
51.50000 101.000
51.51500 107.000
51.53000 109.000
51.54500 112.000
51.56000 102.000
51.57500 89.000
51.59000 111.000
51.60500 109.000
51.62000 115.000
51.63500 109.000
51.65000 106.000
51.66500 109.000
51.68000 110.000
51.69500 111.000
51.71000 113.000
51.72500 101.000
51.74000 108.000
51.75500 105.000
51.77000 110.000
51.78500 109.000
51.80000 114.000
51.81500 120.000
51.83000 118.000
51.84500 111.000
51.86000 113.000
51.87500 128.000
51.89000 112.000
51.90500 109.000
51.92000 111.000
51.93500 111.000
51.95000 111.000
51.96500 96.000
51.98000 88.000
51.99500 101.000
52.01000 120.000
52.02500 113.000
52.04000 121.000
52.05500 105.000
52.07000 97.000
52.08500 99.000
52.10000 101.000
52.11500 111.000
52.13000 108.000
52.14500 102.000
52.16000 102.000
52.17500 106.000
52.19000 111.000
52.20500 114.000
52.22000 113.000
52.23500 100.000
52.25000 115.000
52.26500 91.000
52.28000 105.000
52.29500 109.000
52.31000 111.000
52.32500 111.000
52.34000 106.000
52.35500 118.000
52.37000 106.000
52.38500 113.000
52.40000 105.000
52.41500 87.000
52.43000 99.000
52.44500 110.000
52.46000 124.000
52.47500 106.000
52.49000 107.000
52.50500 124.000
52.52000 109.000
52.53500 127.000
52.55000 120.000
52.56500 119.000
52.58000 107.000
52.59500 104.000
52.61000 110.000
52.62500 113.000
52.64000 117.000
52.65500 100.000
52.67000 113.000
52.68500 113.000
52.70000 113.000
52.71500 126.000
52.73000 123.000
52.74500 121.000
52.76000 102.000
52.77500 109.000
52.79000 95.000
52.80500 102.000
52.82000 111.000
52.83500 107.000
52.85000 105.000
52.86500 105.000
52.88000 94.000
52.89500 106.000
52.91000 110.000
52.92500 109.000
52.94000 95.000
52.95500 107.000
52.97000 107.000
52.98500 99.000
53.00000 86.000
53.01500 119.000
53.03000 119.000
53.04500 103.000
53.06000 120.000
53.07500 101.000
53.09000 101.000
53.10500 103.000
53.12000 130.000
53.13500 129.000
53.15000 132.000
53.16500 119.000
53.18000 103.000
53.19500 102.000
53.21000 117.000
53.22500 109.000
53.24000 111.000
53.25500 116.000
53.27000 101.000
53.28500 100.000
53.30000 119.000
53.31500 122.000
53.33000 107.000
53.34500 110.000
53.36000 116.000
53.37500 109.000
53.39000 105.000
53.40500 107.000
53.42000 118.000
53.43500 99.000
53.45000 104.000
53.46500 123.000
53.48000 125.000
53.49500 118.000
53.51000 122.000
53.52500 112.000
53.54000 111.000
53.55500 109.000
53.57000 107.000
53.58500 113.000
53.60000 114.000
53.61500 104.000
53.63000 96.000
53.64500 113.000
53.66000 111.000
53.67500 97.000
53.69000 109.000
53.70500 97.000
53.72000 102.000
53.73500 112.000
53.75000 107.000
53.76500 120.000
53.78000 115.000
53.79500 117.000
53.81000 123.000
53.82500 109.000
53.84000 118.000
53.85500 109.000
53.87000 99.000
53.88500 98.000
53.90000 112.000
53.91500 115.000
53.93000 99.000
53.94500 100.000
53.96000 128.000
53.97500 116.000
53.99000 114.000
54.00500 111.000
54.02000 90.000
54.03500 114.000
54.05000 124.000
54.06500 115.000
54.08000 117.000
54.09500 118.000
54.11000 120.000
54.12500 115.000
54.14000 109.000
54.15500 123.000
54.17000 112.000
54.18500 117.000
54.20000 125.000
54.21500 119.000
54.23000 128.000
54.24500 106.000
54.26000 130.000
54.27500 109.000
54.29000 104.000
54.30500 115.000
54.32000 119.000
54.33500 113.000
54.35000 102.000
54.36500 112.000
54.38000 107.000
54.39500 111.000
54.41000 112.000
54.42500 103.000
54.44000 102.000
54.45500 113.000
54.47000 109.000
54.48500 120.000
54.50000 105.000
54.51500 114.000
54.53000 104.000
54.54500 104.000
54.56000 116.000
54.57500 105.000
54.59000 121.000
54.60500 113.000
54.62000 114.000
54.63500 102.000
54.65000 111.000
54.66500 117.000
54.68000 107.000
54.69500 90.000
54.71000 103.000
54.72500 110.000
54.74000 98.000
54.75500 111.000
54.77000 97.000
54.78500 111.000
54.80000 108.000
54.81500 92.000
54.83000 93.000
54.84500 101.000
54.86000 106.000
54.87500 104.000
54.89000 95.000
54.90500 105.000
54.92000 104.000
54.93500 91.000
54.95000 98.000
54.96500 96.000
54.98000 97.000
54.99500 105.000
55.01000 110.000
55.02500 105.000
55.04000 95.000
55.05500 99.000
55.07000 113.000
55.08500 110.000
55.10000 98.000
55.11500 108.000
55.13000 118.000
55.14500 91.000
55.16000 104.000
55.17500 110.000
55.19000 116.000
55.20500 96.000
55.22000 118.000
55.23500 108.000
55.25000 102.000
55.26500 113.000
55.28000 105.000
55.29500 101.000
55.31000 108.000
55.32500 135.000
55.34000 111.000
55.35500 109.000
55.37000 98.000
55.38500 105.000
55.40000 106.000
55.41500 103.000
55.43000 103.000
55.44500 107.000
55.46000 100.000
55.47500 92.000
55.49000 107.000
55.50500 107.000
55.52000 114.000
55.53500 108.000
55.55000 93.000
55.56500 105.000
55.58000 118.000
55.59500 121.000
55.61000 111.000
55.62500 100.000
55.64000 100.000
55.65500 96.000
55.67000 97.000
55.68500 105.000
55.70000 107.000
55.71500 109.000
55.73000 117.000
55.74500 101.000
55.76000 105.000
55.77500 98.000
55.79000 103.000
55.80500 94.000
55.82000 98.000
55.83500 106.000
55.85000 94.000
55.86500 88.000
55.88000 97.000
55.89500 103.000
55.91000 102.000
55.92500 113.000
55.94000 112.000
55.95500 100.000
55.97000 91.000
55.98500 103.000
56.00000 110.000
56.01500 102.000
56.03000 93.000
56.04500 97.000
56.06000 106.000
56.07500 129.000
56.09000 122.000
56.10500 96.000
56.12000 114.000
56.13500 112.000
56.15000 115.000
56.16500 112.000
56.18000 95.000
56.19500 93.000
56.21000 111.000
56.22500 111.000
56.24000 106.000
56.25500 90.000
56.27000 103.000
56.28500 107.000
56.30000 94.000
56.31500 101.000
56.33000 103.000
56.34500 97.000
56.36000 105.000
56.37500 105.000
56.39000 117.000
56.40500 113.000
56.42000 116.000
56.43500 115.000
56.45000 93.000
56.46500 106.000
56.48000 112.000
56.49500 102.000
56.51000 121.000
56.52500 127.000
56.54000 102.000
56.55500 105.000
56.57000 97.000
56.58500 97.000
56.60000 97.000
56.61500 110.000
56.63000 114.000
56.64500 100.000
56.66000 94.000
56.67500 96.000
56.69000 102.000
56.70500 109.000
56.72000 107.000
56.73500 98.000
56.75000 110.000
56.76500 111.000
56.78000 105.000
56.79500 98.000
56.81000 96.000
56.82500 104.000
56.84000 115.000
56.85500 104.000
56.87000 118.000
56.88500 114.000
56.90000 116.000
56.91500 118.000
56.93000 105.000
56.94500 94.000
56.96000 89.000
56.97500 100.000
56.99000 111.000
57.00500 127.000
57.02000 106.000
57.03500 125.000
57.05000 97.000
57.06500 113.000
57.08000 100.000
57.09500 87.000
57.11000 93.000
57.12500 101.000
57.14000 106.000
57.15500 94.000
57.17000 111.000
57.18500 101.000
57.20000 112.000
57.21500 96.000
57.23000 99.000
57.24500 107.000
57.26000 113.000
57.27500 96.000
57.29000 93.000
57.30500 106.000
57.32000 99.000
57.33500 92.000
57.35000 100.000
57.36500 103.000
57.38000 94.000
57.39500 93.000
57.41000 102.000
57.42500 93.000
57.44000 107.000
57.45500 104.000
57.47000 94.000
57.48500 103.000
57.50000 89.000
57.51500 90.000
57.53000 94.000
57.54500 93.000
57.56000 100.000
57.57500 100.000
57.59000 105.000
57.60500 106.000
57.62000 87.000
57.63500 99.000
57.65000 97.000
57.66500 95.000
57.68000 110.000
57.69500 104.000
57.71000 96.000
57.72500 102.000
57.74000 108.000
57.75500 117.000
57.77000 95.000
57.78500 102.000
57.80000 102.000
57.81500 102.000
57.83000 104.000
57.84500 110.000
57.86000 117.000
57.87500 102.000
57.89000 93.000
57.90500 93.000
57.92000 103.000
57.93500 93.000
57.95000 76.000
57.96500 96.000
57.98000 90.000
57.99500 107.000
58.01000 111.000
58.02500 109.000
58.04000 108.000
58.05500 116.000
58.07000 112.000
58.08500 107.000
58.10000 99.000
58.11500 98.000
58.13000 94.000
58.14500 101.000
58.16000 106.000
58.17500 98.000
58.19000 96.000
58.20500 98.000
58.22000 102.000
58.23500 115.000
58.25000 112.000
58.26500 96.000
58.28000 84.000
58.29500 95.000
58.31000 101.000
58.32500 100.000
58.34000 87.000
58.35500 92.000
58.37000 102.000
58.38500 112.000
58.40000 122.000
58.41500 111.000
58.43000 89.000
58.44500 111.000
58.46000 94.000
58.47500 105.000
58.49000 102.000
58.50500 104.000
58.52000 103.000
58.53500 110.000
58.55000 109.000
58.56500 96.000
58.58000 105.000
58.59500 100.000
58.61000 100.000
58.62500 105.000
58.64000 97.000
58.65500 111.000
58.67000 108.000
58.68500 100.000
58.70000 105.000
58.71500 95.000
58.73000 101.000
58.74500 97.000
58.76000 100.000
58.77500 95.000
58.79000 86.000
58.80500 103.000
58.82000 109.000
58.83500 98.000
58.85000 94.000
58.86500 92.000
58.88000 90.000
58.89500 97.000
58.91000 108.000
58.92500 95.000
58.94000 96.000
58.95500 98.000
58.97000 100.000
58.98500 108.000
59.00000 103.000
59.01500 112.000
59.03000 93.000
59.04500 97.000
59.06000 102.000
59.07500 99.000
59.09000 116.000
59.10500 105.000
59.12000 103.000
59.13500 89.000
59.15000 95.000
59.16500 90.000
59.18000 94.000
59.19500 109.000
59.21000 107.000
59.22500 109.000
59.24000 108.000
59.25500 102.000
59.27000 91.000
59.28500 106.000
59.30000 98.000
59.31500 98.000
59.33000 117.000
59.34500 102.000
59.36000 103.000
59.37500 89.000
59.39000 98.000
59.40500 109.000
59.42000 93.000
59.43500 100.000
59.45000 91.000
59.46500 86.000
59.48000 104.000
59.49500 111.000
59.51000 100.000
59.52500 93.000
59.54000 105.000
59.55500 100.000
59.57000 97.000
59.58500 101.000
59.60000 93.000
59.61500 86.000
59.63000 95.000
59.64500 101.000
59.66000 110.000
59.67500 96.000
59.69000 98.000
59.70500 101.000
59.72000 98.000
59.73500 116.000
59.75000 107.000
59.76500 94.000
59.78000 101.000
59.79500 116.000
59.81000 105.000
59.82500 90.000
59.84000 101.000
59.85500 95.000
59.87000 94.000
59.88500 87.000
59.90000 99.000
59.91500 94.000
59.93000 106.000
59.94500 106.000
59.96000 96.000
59.97500 81.000
59.99000 100.000
60.00500 106.000
60.02000 110.000
60.03500 110.000
60.05000 95.000
60.06500 84.000
60.08000 95.000
60.09500 95.000
60.11000 102.000
60.12500 105.000
60.14000 93.000
60.15500 84.000
60.17000 99.000
60.18500 98.000
60.20000 100.000
60.21500 96.000
60.23000 101.000
60.24500 104.000
60.26000 93.000
60.27500 94.000
60.29000 99.000
60.30500 104.000
60.32000 98.000
60.33500 105.000
60.35000 98.000
60.36500 94.000
60.38000 88.000
60.39500 107.000
60.41000 90.000
60.42500 97.000
60.44000 112.000
60.45500 113.000
60.47000 99.000
60.48500 92.000
60.50000 93.000
60.51500 94.000
60.53000 97.000
60.54500 96.000
60.56000 97.000
60.57500 109.000
60.59000 108.000
60.60500 111.000
60.62000 108.000
60.63500 109.000
60.65000 105.000
60.66500 99.000
60.68000 101.000
60.69500 105.000
60.71000 96.000
60.72500 99.000
60.74000 102.000
60.75500 76.000
60.77000 99.000
60.78500 108.000
60.80000 101.000
60.81500 88.000
60.83000 89.000
60.84500 96.000
60.86000 98.000
60.87500 98.000
60.89000 104.000
60.90500 104.000
60.92000 97.000
60.93500 89.000
60.95000 96.000
60.96500 102.000
60.98000 94.000
60.99500 103.000
61.01000 104.000
61.02500 94.000
61.04000 94.000
61.05500 92.000
61.07000 77.000
61.08500 88.000
61.10000 94.000
61.11500 90.000
61.13000 95.000
61.14500 99.000
61.16000 88.000
61.17500 89.000
61.19000 103.000
61.20500 101.000
61.22000 128.000
61.23500 119.000
61.25000 106.000
61.26500 88.000
61.28000 90.000
61.29500 96.000
61.31000 91.000
61.32500 97.000
61.34000 106.000
61.35500 95.000
61.37000 86.000
61.38500 87.000
61.40000 90.000
61.41500 95.000
61.43000 104.000
61.44500 96.000
61.46000 100.000
61.47500 102.000
61.49000 99.000
61.50500 93.000
61.52000 94.000
61.53500 98.000
61.55000 91.000
61.56500 99.000
61.58000 103.000
61.59500 100.000
61.61000 100.000
61.62500 104.000
61.64000 101.000
61.65500 88.000
61.67000 96.000
61.68500 91.000
61.70000 103.000
61.71500 104.000
61.73000 112.000
61.74500 106.000
61.76000 91.000
61.77500 89.000
61.79000 89.000
61.80500 88.000
61.82000 93.000
61.83500 86.000
61.85000 86.000
61.86500 93.000
61.88000 103.000
61.89500 92.000
61.91000 89.000
61.92500 88.000
61.94000 86.000
61.95500 88.000
61.97000 92.000
61.98500 96.000
