2.00000 2.000
2.01500 5.000
2.03000 5.000
2.04500 3.000
2.06000 2.000
2.07500 6.000
2.09000 6.000
2.10500 3.000
2.12000 5.000
2.13500 4.000
2.15000 4.000
2.16500 3.000
2.18000 6.000
2.19500 3.000
2.21000 2.000
2.22500 9.000
2.24000 5.000
2.25500 3.000
2.27000 3.000
2.28500 3.000
2.30000 2.000
2.31500 2.000
2.33000 1.000
2.34500 1.000
2.36000 1.000
2.37500 3.000
2.39000 4.000
2.40500 4.000
2.42000 3.000
2.43500 2.000
2.45000 4.000
2.46500 1.000
2.48000 4.000
2.49500 5.000
2.51000 4.000
2.52500 3.000
2.54000 4.000
2.55500 2.000
2.57000 2.000
2.58500 3.000
2.60000 4.000
2.61500 5.000
2.63000 2.000
2.64500 2.000
2.66000 3.000
2.67500 3.000
2.69000 3.000
2.70500 5.000
2.72000 2.000
2.73500 4.000
2.75000 5.000
2.76500 9.000
2.78000 2.000
2.79500 2.000
2.81000 5.000
2.82500 3.000
2.84000 3.000
2.85500 5.000
2.87000 6.000
2.88500 6.000
2.90000 5.000
2.91500 5.000
2.93000 3.000
2.94500 3.000
2.96000 3.000
2.97500 2.000
2.99000 3.000
3.00500 3.000
3.02000 2.000
3.03500 3.000
3.05000 2.000
3.06500 1.000
3.08000 1.000
3.09500 2.000
3.11000 5.000
3.12500 7.000
3.14000 14.000
3.15500 13.000
3.17000 21.000
3.18500 35.000
3.20000 38.000
3.21500 79.000
3.23000 100.000
3.24500 132.000
3.26000 151.000
3.27500 191.000
3.29000 220.000
3.30500 224.000
3.32000 249.000
3.33500 274.000
3.35000 263.000
3.36500 265.000
3.38000 250.000
3.39500 279.000
3.41000 271.000
3.42500 275.000
3.44000 265.000
3.45500 254.000
3.47000 248.000
3.48500 255.000
3.50000 266.000
3.51500 261.000
3.53000 244.000
3.54500 281.000
3.56000 255.000
3.57500 250.000
3.59000 238.000
3.60500 272.000
3.62000 258.000
3.63500 260.000
3.65000 228.000
3.66500 261.000
3.68000 299.000
3.69500 258.000
3.71000 295.000
3.72500 264.000
3.74000 278.000
3.75500 302.000
3.77000 255.000
3.78500 226.000
3.80000 250.000
3.81500 227.000
3.83000 247.000
3.84500 252.000
3.86000 265.000
3.87500 266.000
3.89000 278.000
3.90500 250.000
3.92000 251.000
3.93500 241.000
3.95000 250.000
3.96500 254.000
3.98000 258.000
3.99500 271.000
4.01000 264.000
4.02500 271.000
4.04000 266.000
4.05500 287.000
4.07000 275.000
4.08500 278.000
4.10000 262.000
4.11500 249.000
4.13000 255.000
4.14500 265.000
4.16000 257.000
4.17500 246.000
4.19000 263.000
4.20500 286.000
4.22000 280.000
4.23500 256.000
4.25000 255.000
4.26500 266.000
4.28000 253.000
4.29500 246.000
4.31000 273.000
4.32500 288.000
4.34000 244.000
4.35500 269.000
4.37000 269.000
4.38500 247.000
4.40000 250.000
4.41500 248.000
4.43000 261.000
4.44500 260.000
4.46000 269.000
4.47500 286.000
4.49000 287.000
4.50500 263.000
4.52000 258.000
4.53500 277.000
4.55000 252.000
4.56500 272.000
4.58000 300.000
4.59500 277.000
4.61000 271.000
4.62500 259.000
4.64000 265.000
4.65500 291.000
4.67000 258.000
4.68500 270.000
4.70000 281.000
4.71500 283.000
4.73000 275.000
4.74500 284.000
4.76000 259.000
4.77500 271.000
4.79000 267.000
4.80500 258.000
4.82000 272.000
4.83500 267.000
4.85000 269.000
4.86500 272.000
4.88000 268.000
4.89500 266.000
4.91000 267.000
4.92500 269.000
4.94000 269.000
4.95500 282.000
4.97000 290.000
4.98500 286.000
5.00000 265.000
5.01500 282.000
5.03000 293.000
5.04500 285.000
5.06000 287.000
5.07500 276.000
5.09000 289.000
5.10500 287.000
5.12000 298.000
5.13500 272.000
5.15000 306.000
5.16500 300.000
5.18000 290.000
5.19500 290.000
5.21000 285.000
5.22500 279.000
5.24000 279.000
5.25500 287.000
5.27000 302.000
5.28500 315.000
5.30000 292.000
5.31500 292.000
5.33000 299.000
5.34500 285.000
5.36000 300.000
5.37500 291.000
5.39000 304.000
5.40500 305.000
5.42000 309.000
5.43500 315.000
5.45000 318.000
5.46500 288.000
5.48000 283.000
5.49500 288.000
5.51000 285.000
5.52500 306.000
5.54000 307.000
5.55500 318.000
5.57000 322.000
5.58500 307.000
5.60000 290.000
5.61500 300.000
5.63000 304.000
5.64500 292.000
5.66000 316.000
5.67500 288.000
5.69000 289.000
5.70500 306.000
5.72000 313.000
5.73500 308.000
5.75000 296.000
5.76500 297.000
5.78000 273.000
5.79500 296.000
5.81000 291.000
5.82500 307.000
5.84000 330.000
5.85500 331.000
5.87000 331.000
5.88500 322.000
5.90000 303.000
5.91500 310.000
5.93000 298.000
5.94500 288.000
5.96000 299.000
5.97500 325.000
5.99000 337.000
6.00500 305.000
6.02000 318.000
6.03500 342.000
6.05000 296.000
6.06500 295.000
6.08000 313.000
6.09500 317.000
6.11000 329.000
6.12500 307.000
6.14000 300.000
6.15500 308.000
6.17000 319.000
6.18500 324.000
6.20000 317.000
6.21500 316.000
6.23000 314.000
6.24500 293.000
6.26000 323.000
6.27500 313.000
6.29000 294.000
6.30500 348.000
6.32000 323.000
6.33500 323.000
6.35000 310.000
6.36500 333.000
6.38000 327.000
6.39500 313.000
6.41000 302.000
6.42500 302.000
6.44000 341.000
6.45500 298.000
6.47000 314.000
6.48500 304.000
6.50000 323.000
6.51500 323.000
6.53000 310.000
6.54500 334.000
6.56000 343.000
6.57500 304.000
6.59000 335.000
6.60500 344.000
6.62000 358.000
6.63500 331.000
6.65000 355.000
6.66500 337.000
6.68000 340.000
6.69500 323.000
6.71000 313.000
6.72500 351.000
6.74000 317.000
6.75500 315.000
6.77000 303.000
6.78500 309.000
6.80000 362.000
6.81500 368.000
6.83000 325.000
6.84500 317.000
6.86000 335.000
6.87500 329.000
6.89000 336.000
6.90500 323.000
6.92000 326.000
6.93500 339.000
6.95000 342.000
6.96500 326.000
6.98000 317.000
6.99500 323.000
7.01000 313.000
7.02500 314.000
7.04000 336.000
7.05500 334.000
7.07000 338.000
7.08500 343.000
7.10000 337.000
7.11500 356.000
7.13000 330.000
7.14500 336.000
7.16000 367.000
7.17500 328.000
7.19000 330.000
7.20500 310.000
7.22000 332.000
7.23500 350.000
7.25000 359.000
7.26500 360.000
7.28000 357.000
7.29500 347.000
7.31000 333.000
7.32500 341.000
7.34000 332.000
7.35500 363.000
7.37000 366.000
7.38500 369.000
7.40000 333.000
7.41500 338.000
7.43000 310.000
7.44500 326.000
7.46000 323.000
7.47500 344.000
7.49000 373.000
7.50500 332.000
7.52000 322.000
7.53500 330.000
7.55000 347.000
7.56500 337.000
7.58000 358.000
7.59500 364.000
7.61000 389.000
7.62500 331.000
7.64000 330.000
7.65500 335.000
7.67000 355.000
7.68500 336.000
7.70000 346.000
7.71500 335.000
7.73000 348.000
7.74500 340.000
7.76000 328.000
7.77500 364.000
7.79000 363.000
7.80500 343.000
7.82000 356.000
7.83500 338.000
7.85000 354.000
7.86500 323.000
7.88000 338.000
7.89500 329.000
7.91000 335.000
7.92500 339.000
7.94000 347.000
7.95500 354.000
7.97000 353.000
7.98500 347.000
8.00000 348.000
8.01500 361.000
8.03000 347.000
8.04500 335.000
8.06000 361.000
8.07500 351.000
8.09000 361.000
8.10500 345.000
8.12000 369.000
8.13500 360.000
8.15000 376.000
8.16500 367.000
8.18000 351.000
8.19500 367.000
8.21000 332.000
8.22500 370.000
8.24000 353.000
8.25500 372.000
8.27000 382.000
8.28500 331.000
8.30000 359.000
8.31500 337.000
8.33000 335.000
8.34500 352.000
8.36000 375.000
8.37500 362.000
8.39000 367.000
8.40500 376.000
8.42000 370.000
8.43500 366.000
8.45000 370.000
8.46500 346.000
8.48000 356.000
8.49500 371.000
8.51000 338.000
8.52500 342.000
8.54000 357.000
8.55500 350.000
8.57000 381.000
8.58500 392.000
8.60000 367.000
8.61500 344.000
8.63000 361.000
8.64500 363.000
8.66000 350.000
8.67500 372.000
8.69000 358.000
8.70500 379.000
8.72000 376.000
8.73500 344.000
8.75000 371.000
8.76500 385.000
8.78000 355.000
8.79500 373.000
8.81000 362.000
8.82500 334.000
8.84000 348.000
8.85500 344.000
8.87000 354.000
8.88500 355.000
8.90000 346.000
8.91500 378.000
8.93000 378.000
8.94500 353.000
8.96000 375.000
8.97500 380.000
8.99000 339.000
9.00500 384.000
9.02000 367.000
9.03500 355.000
9.05000 340.000
9.06500 330.000
9.08000 332.000
9.09500 360.000
9.11000 371.000
9.12500 357.000
9.14000 339.000
9.15500 363.000
9.17000 341.000
9.18500 347.000
9.20000 357.000
9.21500 351.000
9.23000 379.000
9.24500 362.000
9.26000 348.000
9.27500 368.000
9.29000 360.000
9.30500 358.000
9.32000 360.000
9.33500 365.000
9.35000 350.000
9.36500 349.000
9.38000 358.000
9.39500 357.000
9.41000 354.000
9.42500 370.000
9.44000 367.000
9.45500 350.000
9.47000 343.000
9.48500 357.000
9.50000 372.000
9.51500 357.000
9.53000 341.000
9.54500 351.000
9.56000 359.000
9.57500 367.000
9.59000 369.000
9.60500 358.000
9.62000 344.000
9.63500 349.000
9.65000 339.000
9.66500 352.000
9.68000 372.000
9.69500 363.000
9.71000 377.000
9.72500 363.000
9.74000 364.000
9.75500 352.000
9.77000 362.000
9.78500 360.000
9.80000 360.000
9.81500 365.000
9.83000 368.000
9.84500 355.000
9.86000 345.000
9.87500 320.000
9.89000 348.000
9.90500 374.000
9.92000 357.000
9.93500 379.000
9.95000 389.000
9.96500 326.000
9.98000 348.000
9.99500 365.000
10.01000 376.000
10.02500 353.000
10.04000 354.000
10.05500 368.000
10.07000 343.000
10.08500 357.000
10.10000 355.000
10.11500 366.000
10.13000 367.000
10.14500 352.000
10.16000 353.000
10.17500 366.000
10.19000 384.000
10.20500 357.000
10.22000 385.000
10.23500 370.000
10.25000 358.000
10.26500 356.000
10.28000 359.000
10.29500 371.000
10.31000 355.000
10.32500 367.000
10.34000 386.000
10.35500 384.000
10.37000 379.000
10.38500 371.000
10.40000 387.000
10.41500 379.000
10.43000 373.000
10.44500 373.000
10.46000 374.000
10.47500 362.000
10.49000 367.000
10.50500 382.000
10.52000 373.000
10.53500 376.000
10.55000 348.000
10.56500 376.000
10.58000 362.000
10.59500 382.000
10.61000 381.000
10.62500 384.000
10.64000 355.000
10.65500 380.000
10.67000 369.000
10.68500 355.000
10.70000 370.000
10.71500 392.000
10.73000 371.000
10.74500 382.000
10.76000 383.000
10.77500 384.000
10.79000 357.000
10.80500 362.000
10.82000 382.000
10.83500 376.000
10.85000 394.000
10.86500 376.000
10.88000 379.000
10.89500 361.000
10.91000 381.000
10.92500 379.000
10.94000 356.000
10.95500 366.000
10.97000 370.000
10.98500 391.000
11.00000 347.000
11.01500 372.000
11.03000 353.000
11.04500 380.000
11.06000 382.000
11.07500 353.000
11.09000 341.000
11.10500 353.000
11.12000 354.000
11.13500 355.000
11.15000 349.000
11.16500 395.000
11.18000 387.000
11.19500 376.000
11.21000 385.000
11.22500 384.000
11.24000 367.000
11.25500 389.000
11.27000 389.000
11.28500 369.000
11.30000 360.000
11.31500 363.000
11.33000 389.000
11.34500 380.000
11.36000 353.000
11.37500 389.000
11.39000 384.000
11.40500 376.000
11.42000 369.000
11.43500 373.000
11.45000 356.000
11.46500 384.000
11.48000 388.000
11.49500 381.000
11.51000 345.000
11.52500 369.000
11.54000 366.000
11.55500 390.000
11.57000 393.000
11.58500 373.000
11.60000 383.000
11.61500 389.000
11.63000 383.000
11.64500 354.000
11.66000 356.000
11.67500 372.000
11.69000 377.000
11.70500 383.000
11.72000 368.000
11.73500 376.000
11.75000 372.000
11.76500 368.000
11.78000 377.000
11.79500 391.000
11.81000 380.000
11.82500 361.000
11.84000 390.000
11.85500 356.000
11.87000 374.000
11.88500 371.000
11.90000 345.000
11.91500 341.000
11.93000 351.000
11.94500 381.000
11.96000 379.000
11.97500 393.000
11.99000 374.000
12.00500 373.000
12.02000 357.000
12.03500 380.000
12.05000 392.000
12.06500 359.000
12.08000 361.000
12.09500 385.000
12.11000 393.000
12.12500 383.000
12.14000 374.000
12.15500 382.000
12.17000 392.000
12.18500 356.000
12.20000 365.000
12.21500 369.000
12.23000 360.000
12.24500 367.000
12.26000 404.000
12.27500 391.000
12.29000 383.000
12.30500 371.000
12.32000 364.000
12.33500 381.000
12.35000 370.000
12.36500 384.000
12.38000 381.000
12.39500 371.000
12.41000 355.000
12.42500 368.000
12.44000 395.000
12.45500 378.000
12.47000 386.000
12.48500 381.000
12.50000 381.000
12.51500 362.000
12.53000 353.000
12.54500 354.000
12.56000 369.000
12.57500 409.000
12.59000 407.000
12.60500 389.000
12.62000 379.000
12.63500 371.000
12.65000 351.000
12.66500 357.000
12.68000 402.000
12.69500 388.000
12.71000 382.000
12.72500 421.000
12.74000 386.000
12.75500 398.000
12.77000 371.000
12.78500 368.000
12.80000 390.000
12.81500 405.000
12.83000 395.000
12.84500 381.000
12.86000 378.000
12.87500 368.000
12.89000 396.000
12.90500 398.000
12.92000 371.000
12.93500 374.000
12.95000 407.000
12.96500 416.000
12.98000 411.000
12.99500 420.000
13.01000 415.000
13.02500 406.000
13.04000 374.000
13.05500 385.000
13.07000 385.000
13.08500 369.000
13.10000 383.000
13.11500 378.000
13.13000 356.000
13.14500 385.000
13.16000 379.000
13.17500 402.000
13.19000 377.000
13.20500 376.000
13.22000 380.000
13.23500 383.000
13.25000 365.000
13.26500 372.000
13.28000 378.000
13.29500 363.000
13.31000 393.000
13.32500 402.000
13.34000 399.000
13.35500 399.000
13.37000 381.000
13.38500 387.000
13.40000 387.000
13.41500 396.000
13.43000 416.000
13.44500 380.000
13.46000 374.000
13.47500 391.000
13.49000 415.000
13.50500 417.000
13.52000 396.000
13.53500 387.000
13.55000 381.000
13.56500 392.000
13.58000 396.000
13.59500 378.000
13.61000 380.000
13.62500 409.000
13.64000 391.000
13.65500 388.000
13.67000 384.000
13.68500 397.000
13.70000 385.000
13.71500 362.000
13.73000 387.000
13.74500 372.000
13.76000 370.000
13.77500 377.000
13.79000 372.000
13.80500 358.000
13.82000 362.000
13.83500 357.000
13.85000 396.000
13.86500 356.000
13.88000 385.000
13.89500 407.000
13.91000 368.000
13.92500 359.000
13.94000 365.000
13.95500 355.000
13.97000 373.000
13.98500 357.000
14.00000 375.000
14.01500 402.000
14.03000 407.000
14.04500 415.000
14.06000 391.000
14.07500 397.000
14.09000 417.000
14.10500 422.000
14.12000 395.000
14.13500 407.000
14.15000 372.000
14.16500 391.000
14.18000 369.000
14.19500 386.000
14.21000 415.000
14.22500 425.000
14.24000 400.000
14.25500 368.000
14.27000 382.000
14.28500 391.000
14.30000 395.000
14.31500 370.000
14.33000 412.000
14.34500 392.000
14.36000 376.000
14.37500 362.000
14.39000 361.000
14.40500 373.000
14.42000 363.000
14.43500 380.000
14.45000 371.000
14.46500 348.000
14.48000 388.000
14.49500 403.000
14.51000 407.000
14.52500 405.000
14.54000 384.000
14.55500 401.000
14.57000 391.000
14.58500 417.000
14.60000 367.000
14.61500 388.000
14.63000 404.000
14.64500 390.000
14.66000 402.000
14.67500 398.000
14.69000 403.000
14.70500 382.000
14.72000 379.000
14.73500 390.000
14.75000 402.000
14.76500 383.000
14.78000 386.000
14.79500 399.000
14.81000 388.000
14.82500 393.000
14.84000 394.000
14.85500 432.000
14.87000 423.000
14.88500 432.000
14.90000 409.000
14.91500 369.000
14.93000 389.000
14.94500 402.000
14.96000 396.000
14.97500 368.000
14.99000 394.000
15.00500 386.000
15.02000 384.000
15.03500 397.000
15.05000 371.000
15.06500 368.000
15.08000 360.000
15.09500 362.000
15.11000 400.000
15.12500 395.000
15.14000 363.000
15.15500 382.000
15.17000 381.000
15.18500 385.000
15.20000 429.000
15.21500 416.000
15.23000 373.000
15.24500 358.000
15.26000 379.000
15.27500 386.000
15.29000 365.000
15.30500 380.000
15.32000 396.000
15.33500 402.000
15.35000 389.000
15.36500 389.000
15.38000 379.000
15.39500 382.000
15.41000 372.000
15.42500 382.000
15.44000 382.000
15.45500 362.000
15.47000 416.000
15.48500 398.000
15.50000 392.000
15.51500 367.000
15.53000 377.000
15.54500 368.000
15.56000 393.000
15.57500 363.000
15.59000 370.000
15.60500 375.000
15.62000 358.000
15.63500 382.000
15.65000 398.000
15.66500 401.000
15.68000 373.000
15.69500 371.000
15.71000 394.000
15.72500 407.000
15.74000 412.000
15.75500 386.000
15.77000 387.000
15.78500 372.000
15.80000 384.000
15.81500 397.000
15.83000 377.000
15.84500 396.000
15.86000 379.000
15.87500 369.000
15.89000 403.000
15.90500 369.000
15.92000 362.000
15.93500 407.000
15.95000 395.000
15.96500 355.000
15.98000 362.000
15.99500 392.000
16.01000 376.000
16.02500 384.000
16.04000 368.000
16.05500 385.000
16.07000 372.000
16.08500 377.000
16.10000 357.000
16.11500 373.000
16.13000 405.000
16.14500 392.000
16.16000 382.000
16.17500 394.000
16.19000 403.000
16.20500 367.000
16.22000 390.000
16.23500 368.000
16.25000 382.000
16.26500 366.000
16.28000 390.000
16.29500 397.000
16.31000 370.000
16.32500 379.000
16.34000 374.000
16.35500 411.000
16.37000 377.000
16.38500 364.000
16.40000 397.000
16.41500 401.000
16.43000 390.000
16.44500 413.000
16.46000 364.000
16.47500 393.000
16.49000 344.000
16.50500 376.000
16.52000 395.000
16.53500 392.000
16.55000 376.000
16.56500 383.000
16.58000 370.000
16.59500 361.000
16.61000 388.000
16.62500 391.000
16.64000 356.000
16.65500 352.000
16.67000 387.000
16.68500 356.000
16.70000 344.000
16.71500 368.000
16.73000 387.000
16.74500 379.000
16.76000 389.000
16.77500 396.000
16.79000 371.000
16.80500 399.000
16.82000 377.000
16.83500 407.000
16.85000 390.000
16.86500 385.000
16.88000 387.000
16.89500 373.000
16.91000 355.000
16.92500 381.000
16.94000 414.000
16.95500 385.000
16.97000 379.000
16.98500 362.000
17.00000 371.000
17.01500 386.000
17.03000 372.000
17.04500 398.000
17.06000 388.000
17.07500 387.000
17.09000 393.000
17.10500 393.000
17.12000 398.000
17.13500 393.000
17.15000 383.000
17.16500 392.000
17.18000 385.000
17.19500 380.000
17.21000 381.000
17.22500 391.000
17.24000 382.000
17.25500 372.000
17.27000 382.000
17.28500 403.000
17.30000 379.000
17.31500 391.000
17.33000 371.000
17.34500 381.000
17.36000 405.000
17.37500 404.000
17.39000 389.000
17.40500 367.000
17.42000 363.000
17.43500 403.000
17.45000 391.000
17.46500 366.000
17.48000 395.000
17.49500 408.000
17.51000 401.000
17.52500 397.000
17.54000 415.000
17.55500 378.000
17.57000 388.000
17.58500 407.000
17.60000 400.000
17.61500 422.000
17.63000 405.000
17.64500 414.000
17.66000 402.000
17.67500 397.000
17.69000 394.000
17.70500 395.000
17.72000 423.000
17.73500 387.000
17.75000 385.000
17.76500 370.000
17.78000 398.000
17.79500 384.000
17.81000 398.000
17.82500 420.000
17.84000 408.000
17.85500 381.000
17.87000 393.000
17.88500 408.000
17.90000 417.000
17.91500 415.000
17.93000 420.000
17.94500 421.000
17.96000 395.000
17.97500 393.000
17.99000 409.000
18.00500 389.000
18.02000 385.000
18.03500 413.000
18.05000 419.000
18.06500 423.000
18.08000 415.000
18.09500 381.000
18.11000 379.000
18.12500 371.000
18.14000 368.000
18.15500 398.000
18.17000 400.000
18.18500 393.000
18.20000 381.000
18.21500 395.000
18.23000 404.000
18.24500 382.000
18.26000 392.000
18.27500 395.000
18.29000 412.000
18.30500 404.000
18.32000 398.000
18.33500 414.000
18.35000 388.000
18.36500 367.000
18.38000 389.000
18.39500 376.000
18.41000 380.000
18.42500 385.000
18.44000 367.000
18.45500 386.000
18.47000 379.000
18.48500 392.000
18.50000 399.000
18.51500 380.000
18.53000 344.000
18.54500 404.000
18.56000 392.000
18.57500 403.000
18.59000 421.000
18.60500 400.000
18.62000 400.000
18.63500 396.000
18.65000 398.000
18.66500 386.000
18.68000 392.000
18.69500 401.000
18.71000 378.000
18.72500 409.000
18.74000 405.000
18.75500 399.000
18.77000 408.000
18.78500 417.000
18.80000 390.000
18.81500 382.000
18.83000 399.000
18.84500 398.000
18.86000 376.000
18.87500 384.000
18.89000 377.000
18.90500 386.000
18.92000 393.000
18.93500 394.000
18.95000 368.000
18.96500 377.000
18.98000 394.000
18.99500 414.000
19.01000 425.000
19.02500 416.000
19.04000 396.000
19.05500 413.000
19.07000 413.000
19.08500 395.000
19.10000 385.000
19.11500 405.000
19.13000 403.000
19.14500 421.000
19.16000 406.000
19.17500 414.000
19.19000 440.000
19.20500 411.000
19.22000 407.000
19.23500 417.000
19.25000 411.000
19.26500 377.000
19.28000 410.000
19.29500 388.000
19.31000 424.000
19.32500 392.000
19.34000 407.000
19.35500 393.000
19.37000 391.000
19.38500 387.000
19.40000 388.000
19.41500 378.000
19.43000 411.000
19.44500 399.000
19.46000 402.000
19.47500 410.000
19.49000 391.000
19.50500 416.000
19.52000 422.000
19.53500 430.000
19.55000 372.000
19.56500 382.000
19.58000 399.000
19.59500 389.000
19.61000 379.000
19.62500 391.000
19.64000 384.000
19.65500 393.000
19.67000 404.000
19.68500 374.000
19.70000 406.000
19.71500 419.000
19.73000 387.000
19.74500 371.000
19.76000 432.000
19.77500 414.000
19.79000 408.000
19.80500 385.000
19.82000 381.000
19.83500 412.000
19.85000 393.000
19.86500 400.000
19.88000 399.000
19.89500 389.000
19.91000 403.000
19.92500 411.000
19.94000 397.000
19.95500 399.000
19.97000 407.000
19.98500 386.000
20.00000 365.000
20.01500 392.000
20.03000 389.000
20.04500 370.000
20.06000 414.000
20.07500 417.000
20.09000 413.000
20.10500 412.000
20.12000 376.000
20.13500 395.000
20.15000 427.000
20.16500 408.000
20.18000 408.000
20.19500 411.000
20.21000 396.000
20.22500 403.000
20.24000 428.000
20.25500 414.000
20.27000 399.000
20.28500 404.000
20.30000 415.000
20.31500 424.000
20.33000 411.000
20.34500 404.000
20.36000 420.000
20.37500 401.000
20.39000 423.000
20.40500 415.000
20.42000 414.000
20.43500 416.000
20.45000 385.000
20.46500 391.000
20.48000 413.000
20.49500 385.000
20.51000 378.000
20.52500 408.000
20.54000 393.000
20.55500 414.000
20.57000 400.000
20.58500 403.000
20.60000 425.000
20.61500 424.000
20.63000 400.000
20.64500 382.000
20.66000 398.000
20.67500 414.000
20.69000 426.000
20.70500 396.000
20.72000 372.000
20.73500 380.000
20.75000 389.000
20.76500 402.000
20.78000 389.000
20.79500 420.000
20.81000 441.000
20.82500 433.000
20.84000 413.000
20.85500 402.000
20.87000 390.000
20.88500 405.000
20.90000 410.000
20.91500 403.000
20.93000 429.000
20.94500 408.000
20.96000 416.000
20.97500 434.000
20.99000 429.000
21.00500 419.000
21.02000 431.000
21.03500 411.000
21.05000 402.000
21.06500 407.000
21.08000 424.000
21.09500 391.000
21.11000 399.000
21.12500 406.000
21.14000 379.000
21.15500 420.000
21.17000 413.000
21.18500 421.000
21.20000 408.000
21.21500 396.000
21.23000 393.000
21.24500 404.000
21.26000 445.000
21.27500 427.000
21.29000 416.000
21.30500 411.000
21.32000 410.000
21.33500 425.000
21.35000 420.000
21.36500 406.000
21.38000 397.000
21.39500 448.000
21.41000 412.000
21.42500 390.000
21.44000 395.000
21.45500 392.000
21.47000 420.000
21.48500 402.000
21.50000 422.000
21.51500 394.000
21.53000 435.000
21.54500 424.000
21.56000 411.000
21.57500 414.000
21.59000 431.000
21.60500 400.000
21.62000 396.000
21.63500 420.000
21.65000 439.000
21.66500 419.000
21.68000 443.000
21.69500 433.000
21.71000 409.000
21.72500 435.000
21.74000 419.000
21.75500 399.000
21.77000 435.000
21.78500 467.000
21.80000 431.000
21.81500 418.000
21.83000 389.000
21.84500 395.000
21.86000 391.000
21.87500 416.000
21.89000 427.000
21.90500 420.000
21.92000 421.000
21.93500 420.000
21.95000 401.000
21.96500 408.000
21.98000 421.000
21.99500 414.000
22.01000 445.000
22.02500 441.000
22.04000 430.000
22.05500 419.000
22.07000 433.000
22.08500 410.000
22.10000 400.000
22.11500 409.000
22.13000 399.000
22.14500 415.000
22.16000 437.000
22.17500 425.000
22.19000 434.000
22.20500 430.000
22.22000 419.000
22.23500 399.000
22.25000 387.000
22.26500 428.000
22.28000 422.000
22.29500 388.000
22.31000 394.000
22.32500 434.000
22.34000 403.000
22.35500 421.000
22.37000 403.000
22.38500 420.000
22.40000 388.000
22.41500 400.000
22.43000 408.000
22.44500 410.000
22.46000 416.000
22.47500 419.000
22.49000 413.000
22.50500 410.000
22.52000 427.000
22.53500 388.000
22.55000 414.000
22.56500 399.000
22.58000 412.000
22.59500 409.000
22.61000 400.000
22.62500 410.000
22.64000 430.000
22.65500 418.000
22.67000 415.000
22.68500 400.000
22.70000 409.000
22.71500 403.000
22.73000 384.000
22.74500 397.000
22.76000 425.000
22.77500 409.000
22.79000 414.000
22.80500 417.000
22.82000 400.000
22.83500 411.000
22.85000 422.000
22.86500 376.000
22.88000 401.000
22.89500 438.000
22.91000 396.000
22.92500 434.000
22.94000 417.000
22.95500 384.000
22.97000 412.000
22.98500 418.000
23.00000 403.000
23.01500 409.000
23.03000 387.000
23.04500 416.000
23.06000 419.000
23.07500 433.000
23.09000 405.000
23.10500 419.000
23.12000 452.000
23.13500 433.000
23.15000 447.000
23.16500 427.000
23.18000 436.000
23.19500 411.000
23.21000 404.000
23.22500 418.000
23.24000 399.000
23.25500 397.000
23.27000 401.000
23.28500 416.000
23.30000 410.000
23.31500 415.000
23.33000 425.000
23.34500 425.000
23.36000 390.000
23.37500 397.000
23.39000 417.000
23.40500 413.000
23.42000 407.000
23.43500 433.000
23.45000 397.000
23.46500 399.000
23.48000 425.000
23.49500 414.000
23.51000 446.000
23.52500 423.000
23.54000 433.000
23.55500 390.000
23.57000 400.000
23.58500 419.000
23.60000 398.000
23.61500 390.000
23.63000 398.000
23.64500 403.000
23.66000 391.000
23.67500 404.000
23.69000 392.000
23.70500 421.000
23.72000 416.000
23.73500 408.000
23.75000 414.000
23.76500 420.000
23.78000 384.000
23.79500 405.000
23.81000 405.000
23.82500 418.000
23.84000 383.000
23.85500 386.000
23.87000 403.000
23.88500 385.000
23.90000 400.000
23.91500 387.000
23.93000 435.000
23.94500 403.000
23.96000 398.000
23.97500 438.000
23.99000 404.000
24.00500 406.000
24.02000 419.000
24.03500 424.000
24.05000 396.000
24.06500 403.000
24.08000 435.000
24.09500 403.000
24.11000 408.000
24.12500 409.000
24.14000 448.000
24.15500 413.000
24.17000 369.000
24.18500 393.000
24.20000 432.000
24.21500 411.000
24.23000 397.000
24.24500 425.000
24.26000 403.000
24.27500 415.000
24.29000 400.000
24.30500 410.000
24.32000 438.000
24.33500 392.000
24.35000 397.000
24.36500 391.000
24.38000 400.000
24.39500 407.000
24.41000 391.000
24.42500 384.000
24.44000 389.000
24.45500 435.000
24.47000 403.000
24.48500 426.000
24.50000 458.000
24.51500 436.000
24.53000 415.000
24.54500 413.000
24.56000 400.000
24.57500 399.000
24.59000 421.000
24.60500 405.000
24.62000 425.000
24.63500 407.000
24.65000 405.000
24.66500 408.000
24.68000 414.000
24.69500 423.000
24.71000 413.000
24.72500 418.000
24.74000 404.000
24.75500 417.000
24.77000 422.000
24.78500 407.000
24.80000 444.000
24.81500 414.000
24.83000 416.000
24.84500 400.000
24.86000 389.000
24.87500 440.000
24.89000 448.000
24.90500 421.000
24.92000 382.000
24.93500 386.000
24.95000 385.000
24.96500 437.000
24.98000 437.000
24.99500 407.000
25.01000 407.000
25.02500 408.000
25.04000 395.000
25.05500 461.000
25.07000 423.000
25.08500 416.000
25.10000 387.000
25.11500 399.000
25.13000 401.000
25.14500 378.000
25.16000 387.000
25.17500 406.000
25.19000 421.000
25.20500 416.000
25.22000 429.000
25.23500 407.000
25.25000 402.000
25.26500 414.000
25.28000 416.000
25.29500 429.000
25.31000 420.000
25.32500 397.000
25.34000 418.000
25.35500 410.000
25.37000 398.000
25.38500 390.000
25.40000 390.000
25.41500 389.000
25.43000 408.000
25.44500 411.000
25.46000 398.000
25.47500 408.000
25.49000 436.000
25.50500 427.000
25.52000 413.000
25.53500 419.000
25.55000 408.000
25.56500 400.000
25.58000 411.000
25.59500 404.000
25.61000 403.000
25.62500 409.000
25.64000 415.000
25.65500 443.000
25.67000 401.000
25.68500 393.000
25.70000 426.000
25.71500 441.000
25.73000 416.000
25.74500 416.000
25.76000 437.000
25.77500 417.000
25.79000 382.000
25.80500 390.000
25.82000 427.000
25.83500 415.000
25.85000 396.000
25.86500 382.000
25.88000 420.000
25.89500 432.000
25.91000 411.000
25.92500 431.000
25.94000 451.000
25.95500 420.000
25.97000 403.000
25.98500 435.000
26.00000 407.000
26.01500 419.000
26.03000 408.000
26.04500 415.000
26.06000 427.000
26.07500 405.000
26.09000 407.000
26.10500 408.000
26.12000 412.000
26.13500 404.000
26.15000 404.000
26.16500 415.000
26.18000 412.000
26.19500 415.000
26.21000 412.000
26.22500 389.000
26.24000 430.000
26.25500 415.000
26.27000 429.000
26.28500 398.000
26.30000 386.000
26.31500 429.000
26.33000 452.000
26.34500 433.000
26.36000 412.000
26.37500 423.000
26.39000 434.000
26.40500 405.000
26.42000 396.000
26.43500 412.000
26.45000 372.000
26.46500 394.000
26.48000 431.000
26.49500 426.000
26.51000 420.000
26.52500 439.000
26.54000 426.000
26.55500 406.000
26.57000 421.000
26.58500 417.000
26.60000 433.000
26.61500 423.000
26.63000 419.000
26.64500 403.000
26.66000 448.000
26.67500 421.000
26.69000 435.000
26.70500 401.000
26.72000 412.000
26.73500 421.000
26.75000 410.000
26.76500 439.000
26.78000 420.000
26.79500 434.000
26.81000 437.000
26.82500 429.000
26.84000 423.000
26.85500 404.000
26.87000 391.000
26.88500 440.000
26.90000 448.000
26.91500 431.000
26.93000 430.000
26.94500 416.000
26.96000 405.000
26.97500 437.000
26.99000 428.000
27.00500 421.000
27.02000 424.000
27.03500 418.000
27.05000 415.000
27.06500 424.000
27.08000 428.000
27.09500 430.000
27.11000 442.000
27.12500 463.000
27.14000 427.000
27.15500 398.000
27.17000 434.000
27.18500 439.000
27.20000 414.000
27.21500 435.000
27.23000 446.000
27.24500 423.000
27.26000 438.000
27.27500 453.000
27.29000 456.000
27.30500 434.000
27.32000 424.000
27.33500 446.000
27.35000 453.000
27.36500 430.000
27.38000 439.000
27.39500 461.000
27.41000 465.000
27.42500 466.000
27.44000 448.000
27.45500 465.000
27.47000 455.000
27.48500 470.000
27.50000 482.000
27.51500 466.000
27.53000 439.000
27.54500 446.000
27.56000 466.000
27.57500 449.000
27.59000 467.000
27.60500 491.000
27.62000 469.000
27.63500 451.000
27.65000 455.000
27.66500 465.000
27.68000 457.000
27.69500 463.000
27.71000 456.000
27.72500 451.000
27.74000 434.000
27.75500 429.000
27.77000 479.000
27.78500 472.000
27.80000 444.000
27.81500 493.000
27.83000 452.000
27.84500 450.000
27.86000 449.000
27.87500 433.000
27.89000 434.000
27.90500 453.000
27.92000 466.000
27.93500 428.000
27.95000 469.000
27.96500 432.000
27.98000 430.000
27.99500 430.000
28.01000 436.000
28.02500 447.000
28.04000 452.000
28.05500 414.000
28.07000 419.000
28.08500 442.000
28.10000 440.000
28.11500 420.000
28.13000 434.000
28.14500 449.000
28.16000 407.000
28.17500 432.000
28.19000 427.000
28.20500 403.000
28.22000 394.000
28.23500 439.000
28.25000 444.000
28.26500 403.000
28.28000 400.000
28.29500 405.000
28.31000 430.000
28.32500 451.000
28.34000 443.000
28.35500 393.000
28.37000 391.000
28.38500 375.000
28.40000 393.000
28.41500 417.000
28.43000 411.000
28.44500 395.000
28.46000 400.000
28.47500 380.000
28.49000 397.000
28.50500 388.000
28.52000 395.000
28.53500 370.000
28.55000 382.000
28.56500 381.000
28.58000 378.000
28.59500 373.000
28.61000 374.000
28.62500 377.000
28.64000 373.000
28.65500 397.000
28.67000 401.000
28.68500 391.000
28.70000 371.000
28.71500 385.000
28.73000 396.000
28.74500 358.000
28.76000 360.000
28.77500 346.000
28.79000 328.000
28.80500 353.000
28.82000 347.000
28.83500 380.000
28.85000 381.000
28.86500 361.000
28.88000 337.000
28.89500 350.000
28.91000 344.000
28.92500 343.000
28.94000 336.000
28.95500 365.000
28.97000 381.000
28.98500 347.000
29.00000 355.000
29.01500 374.000
29.03000 341.000
29.04500 354.000
29.06000 315.000
29.07500 363.000
29.09000 376.000
29.10500 345.000
29.12000 353.000
29.13500 347.000
29.15000 355.000
29.16500 333.000
29.18000 340.000
29.19500 344.000
29.21000 357.000
29.22500 379.000
29.24000 353.000
29.25500 336.000
29.27000 361.000
29.28500 354.000
29.30000 356.000
29.31500 331.000
29.33000 328.000
29.34500 357.000
29.36000 372.000
29.37500 373.000
29.39000 402.000
29.40500 380.000
29.42000 370.000
29.43500 393.000
29.45000 356.000
29.46500 329.000
29.48000 326.000
29.49500 355.000
29.51000 353.000
29.52500 354.000
29.54000 357.000
29.55500 331.000
29.57000 350.000
29.58500 359.000
29.60000 373.000
29.61500 326.000
29.63000 317.000
29.64500 322.000
29.66000 332.000
29.67500 370.000
29.69000 354.000
29.70500 330.000
29.72000 342.000
29.73500 357.000
29.75000 344.000
29.76500 337.000
29.78000 349.000
29.79500 340.000
29.81000 337.000
29.82500 335.000
29.84000 342.000
29.85500 325.000
29.87000 322.000
29.88500 328.000
29.90000 323.000
29.91500 335.000
29.93000 339.000
29.94500 317.000
29.96000 319.000
29.97500 355.000
29.99000 363.000
30.00500 341.000
30.02000 333.000
30.03500 336.000
30.05000 349.000
30.06500 340.000
30.08000 329.000
30.09500 359.000
30.11000 325.000
30.12500 330.000
30.14000 363.000
30.15500 365.000
30.17000 310.000
30.18500 329.000
30.20000 301.000
30.21500 329.000
30.23000 316.000
30.24500 307.000
30.26000 294.000
30.27500 324.000
30.29000 336.000
30.30500 323.000
30.32000 326.000
30.33500 314.000
30.35000 304.000
30.36500 302.000
30.38000 339.000
30.39500 322.000
30.41000 325.000
30.42500 355.000
30.44000 341.000
30.45500 312.000
30.47000 315.000
30.48500 307.000
30.50000 317.000
30.51500 359.000
30.53000 316.000
30.54500 304.000
30.56000 290.000
30.57500 320.000
30.59000 301.000
30.60500 315.000
30.62000 316.000
30.63500 330.000
30.65000 313.000
30.66500 328.000
30.68000 325.000
30.69500 345.000
30.71000 346.000
30.72500 319.000
30.74000 299.000
30.75500 307.000
30.77000 315.000
30.78500 309.000
30.80000 314.000
30.81500 337.000
30.83000 296.000
30.84500 328.000
30.86000 336.000
30.87500 311.000
30.89000 340.000
30.90500 312.000
30.92000 290.000
30.93500 309.000
30.95000 307.000
30.96500 304.000
30.98000 295.000
30.99500 318.000
31.01000 329.000
31.02500 332.000
31.04000 305.000
31.05500 285.000
31.07000 307.000
31.08500 328.000
31.10000 315.000
31.11500 293.000
31.13000 294.000
31.14500 305.000
31.16000 311.000
31.17500 321.000
31.19000 309.000
31.20500 282.000
31.22000 308.000
31.23500 318.000
31.25000 313.000
31.26500 310.000
31.28000 312.000
31.29500 278.000
31.31000 284.000
31.32500 311.000
31.34000 318.000
31.35500 321.000
31.37000 273.000
31.38500 332.000
31.40000 309.000
31.41500 288.000
31.43000 303.000
31.44500 285.000
31.46000 304.000
31.47500 300.000
31.49000 305.000
31.50500 323.000
31.52000 323.000
31.53500 262.000
31.55000 281.000
31.56500 299.000
31.58000 286.000
31.59500 282.000
31.61000 304.000
31.62500 285.000
31.64000 284.000
31.65500 259.000
31.67000 296.000
31.68500 295.000
31.70000 283.000
31.71500 323.000
31.73000 297.000
31.74500 283.000
31.76000 288.000
31.77500 281.000
31.79000 279.000
31.80500 283.000
31.82000 281.000
31.83500 281.000
31.85000 288.000
31.86500 277.000
31.88000 267.000
31.89500 280.000
31.91000 305.000
31.92500 298.000
31.94000 273.000
31.95500 286.000
31.97000 263.000
31.98500 304.000
32.00000 317.000
32.01500 293.000
32.03000 278.000
32.04500 305.000
32.06000 277.000
32.07500 262.000
32.09000 304.000
32.10500 276.000
32.12000 303.000
32.13500 273.000
32.15000 294.000
32.16500 315.000
32.18000 298.000
32.19500 257.000
32.21000 256.000
32.22500 268.000
32.24000 262.000
32.25500 286.000
32.27000 267.000
32.28500 278.000
32.30000 279.000
32.31500 280.000
32.33000 305.000
32.34500 288.000
32.36000 284.000
32.37500 274.000
32.39000 273.000
32.40500 272.000
32.42000 267.000
32.43500 276.000
32.45000 262.000
32.46500 258.000
32.48000 291.000
32.49500 286.000
32.51000 284.000
32.52500 277.000
32.54000 292.000
32.55500 275.000
32.57000 270.000
32.58500 298.000
32.60000 285.000
32.61500 293.000
32.63000 279.000
32.64500 272.000
32.66000 257.000
32.67500 278.000
32.69000 296.000
32.70500 282.000
32.72000 287.000
32.73500 282.000
32.75000 277.000
32.76500 281.000
32.78000 273.000
32.79500 280.000
32.81000 246.000
32.82500 274.000
32.84000 266.000
32.85500 262.000
32.87000 263.000
32.88500 244.000
32.90000 253.000
32.91500 260.000
32.93000 277.000
32.94500 261.000
32.96000 274.000
32.97500 289.000
32.99000 293.000
33.00500 247.000
33.02000 250.000
33.03500 259.000
33.05000 264.000
33.06500 267.000
33.08000 273.000
33.09500 267.000
33.11000 271.000
33.12500 249.000
33.14000 242.000
33.15500 247.000
33.17000 240.000
33.18500 231.000
33.20000 266.000
33.21500 257.000
33.23000 256.000
33.24500 257.000
33.26000 245.000
33.27500 249.000
33.29000 242.000
33.30500 239.000
33.32000 242.000
33.33500 245.000
33.35000 240.000
33.36500 244.000
33.38000 256.000
33.39500 245.000
33.41000 240.000
33.42500 251.000
33.44000 257.000
33.45500 256.000
33.47000 263.000
33.48500 245.000
33.50000 244.000
33.51500 265.000
33.53000 239.000
33.54500 251.000
33.56000 271.000
33.57500 247.000
33.59000 274.000
33.60500 248.000
33.62000 265.000
33.63500 255.000
33.65000 278.000
33.66500 245.000
33.68000 240.000
33.69500 229.000
33.71000 246.000
33.72500 255.000
33.74000 243.000
33.75500 242.000
33.77000 232.000
33.78500 232.000
33.80000 216.000
33.81500 249.000
33.83000 268.000
33.84500 257.000
33.86000 248.000
33.87500 243.000
33.89000 244.000
33.90500 254.000
33.92000 225.000
33.93500 212.000
33.95000 236.000
33.96500 269.000
33.98000 259.000
33.99500 244.000
34.01000 258.000
34.02500 223.000
34.04000 231.000
34.05500 258.000
34.07000 243.000
34.08500 237.000
34.10000 255.000
34.11500 228.000
34.13000 239.000
34.14500 245.000
34.16000 239.000
34.17500 231.000
34.19000 206.000
34.20500 243.000
34.22000 222.000
34.23500 230.000
34.25000 225.000
34.26500 243.000
34.28000 246.000
34.29500 229.000
34.31000 220.000
34.32500 241.000
34.34000 250.000
34.35500 226.000
34.37000 247.000
34.38500 254.000
34.40000 239.000
34.41500 234.000
34.43000 242.000
34.44500 241.000
34.46000 221.000
34.47500 246.000
34.49000 242.000
34.50500 229.000
34.52000 237.000
34.53500 240.000
34.55000 223.000
34.56500 221.000
34.58000 221.000
34.59500 242.000
34.61000 252.000
34.62500 230.000
34.64000 223.000
34.65500 246.000
34.67000 231.000
34.68500 214.000
34.70000 215.000
34.71500 232.000
34.73000 218.000
34.74500 215.000
34.76000 214.000
34.77500 228.000
34.79000 228.000
34.80500 237.000
34.82000 233.000
34.83500 218.000
34.85000 222.000
34.86500 235.000
34.88000 236.000
34.89500 237.000
34.91000 215.000
34.92500 238.000
34.94000 230.000
34.95500 234.000
34.97000 216.000
34.98500 219.000
35.00000 227.000
35.01500 214.000
35.03000 202.000
35.04500 210.000
35.06000 212.000
35.07500 232.000
35.09000 224.000
35.10500 227.000
35.12000 210.000
35.13500 224.000
35.15000 208.000
35.16500 226.000
35.18000 217.000
35.19500 217.000
35.21000 224.000
35.22500 224.000
35.24000 224.000
35.25500 210.000
35.27000 203.000
35.28500 219.000
35.30000 204.000
35.31500 206.000
35.33000 228.000
35.34500 224.000
35.36000 195.000
35.37500 169.000
35.39000 208.000
35.40500 222.000
35.42000 235.000
35.43500 219.000
35.45000 201.000
35.46500 217.000
35.48000 222.000
35.49500 229.000
35.51000 206.000
35.52500 172.000
35.54000 183.000
35.55500 240.000
35.57000 223.000
35.58500 235.000
35.60000 224.000
35.61500 211.000
35.63000 210.000
35.64500 207.000
35.66000 200.000
35.67500 226.000
35.69000 219.000
35.70500 206.000
35.72000 205.000
35.73500 195.000
35.75000 210.000
35.76500 219.000
35.78000 220.000
35.79500 214.000
35.81000 223.000
35.82500 216.000
35.84000 208.000
35.85500 222.000
35.87000 216.000
35.88500 205.000
35.90000 181.000
35.91500 220.000
35.93000 211.000
35.94500 206.000
35.96000 195.000
35.97500 202.000
35.99000 228.000
36.00500 226.000
36.02000 197.000
36.03500 195.000
36.05000 218.000
36.06500 218.000
36.08000 211.000
36.09500 212.000
36.11000 223.000
36.12500 205.000
36.14000 205.000
36.15500 198.000
36.17000 193.000
36.18500 204.000
36.20000 162.000
36.21500 184.000
36.23000 211.000
36.24500 210.000
36.26000 214.000
36.27500 223.000
36.29000 194.000
36.30500 200.000
36.32000 197.000
36.33500 194.000
36.35000 198.000
36.36500 203.000
36.38000 179.000
36.39500 161.000
36.41000 193.000
36.42500 176.000
36.44000 194.000
36.45500 201.000
36.47000 183.000
36.48500 202.000
36.50000 187.000
36.51500 184.000
36.53000 216.000
36.54500 214.000
36.56000 210.000
36.57500 199.000
36.59000 190.000
36.60500 179.000
36.62000 181.000
36.63500 166.000
36.65000 194.000
36.66500 195.000
36.68000 196.000
36.69500 188.000
36.71000 201.000
36.72500 182.000
36.74000 194.000
36.75500 181.000
36.77000 207.000
36.78500 193.000
36.80000 185.000
36.81500 183.000
36.83000 188.000
36.84500 190.000
36.86000 221.000
36.87500 201.000
36.89000 204.000
36.90500 192.000
36.92000 184.000
36.93500 206.000
36.95000 187.000
36.96500 195.000
36.98000 200.000
36.99500 189.000
37.01000 201.000
37.02500 197.000
37.04000 191.000
37.05500 194.000
37.07000 216.000
37.08500 184.000
37.10000 180.000
37.11500 190.000
37.13000 186.000
37.14500 204.000
37.16000 173.000
37.17500 182.000
37.19000 199.000
37.20500 178.000
37.22000 176.000
37.23500 166.000
37.25000 187.000
37.26500 172.000
37.28000 180.000
37.29500 180.000
37.31000 198.000
37.32500 205.000
37.34000 196.000
37.35500 194.000
37.37000 200.000
37.38500 193.000
37.40000 168.000
37.41500 175.000
37.43000 189.000
37.44500 184.000
37.46000 186.000
37.47500 189.000
37.49000 179.000
37.50500 164.000
37.52000 172.000
37.53500 199.000
37.55000 191.000
37.56500 195.000
37.58000 170.000
37.59500 181.000
37.61000 196.000
37.62500 193.000
37.64000 184.000
37.65500 183.000
37.67000 184.000
37.68500 165.000
37.70000 161.000
37.71500 191.000
37.73000 192.000
37.74500 173.000
37.76000 183.000
37.77500 184.000
37.79000 184.000
37.80500 169.000
37.82000 175.000
37.83500 184.000
37.85000 181.000
37.86500 146.000
37.88000 154.000
37.89500 175.000
37.91000 167.000
37.92500 178.000
37.94000 165.000
37.95500 159.000
37.97000 163.000
37.98500 198.000
38.00000 172.000
38.01500 186.000
38.03000 174.000
38.04500 175.000
38.06000 169.000
38.07500 165.000
38.09000 180.000
38.10500 174.000
38.12000 172.000
38.13500 158.000
38.15000 175.000
38.16500 166.000
38.18000 184.000
38.19500 170.000
38.21000 166.000
38.22500 162.000
38.24000 177.000
38.25500 156.000
38.27000 199.000
38.28500 171.000
38.30000 179.000
38.31500 180.000
38.33000 170.000
38.34500 172.000
38.36000 173.000
38.37500 173.000
38.39000 191.000
38.40500 183.000
38.42000 179.000
38.43500 174.000
38.45000 176.000
38.46500 162.000
38.48000 165.000
38.49500 177.000
38.51000 167.000
38.52500 182.000
38.54000 177.000
38.55500 156.000
38.57000 160.000
38.58500 184.000
38.60000 164.000
38.61500 163.000
38.63000 162.000
38.64500 154.000
38.66000 171.000
38.67500 181.000
38.69000 174.000
38.70500 166.000
38.72000 162.000
38.73500 165.000
38.75000 159.000
38.76500 174.000
38.78000 205.000
38.79500 177.000
38.81000 151.000
38.82500 170.000
38.84000 180.000
38.85500 194.000
38.87000 181.000
38.88500 163.000
38.90000 168.000
38.91500 177.000
38.93000 165.000
38.94500 168.000
38.96000 174.000
38.97500 160.000
38.99000 206.000
39.00500 162.000
39.02000 167.000
39.03500 183.000
39.05000 170.000
39.06500 164.000
39.08000 161.000
39.09500 161.000
39.11000 166.000
39.12500 171.000
39.14000 143.000
39.15500 160.000
39.17000 175.000
39.18500 169.000
39.20000 178.000
39.21500 168.000
39.23000 174.000
39.24500 168.000
39.26000 166.000
39.27500 163.000
39.29000 170.000
39.30500 163.000
39.32000 171.000
39.33500 158.000
39.35000 160.000
39.36500 170.000
39.38000 178.000
39.39500 174.000
39.41000 204.000
39.42500 187.000
39.44000 187.000
39.45500 188.000
39.47000 174.000
39.48500 159.000
39.50000 179.000
39.51500 175.000
39.53000 161.000
39.54500 161.000
39.56000 164.000
39.57500 180.000
39.59000 174.000
39.60500 158.000
39.62000 173.000
39.63500 167.000
39.65000 179.000
39.66500 169.000
39.68000 163.000
39.69500 172.000
39.71000 176.000
39.72500 169.000
39.74000 161.000
39.75500 151.000
39.77000 165.000
39.78500 181.000
39.80000 172.000
39.81500 160.000
39.83000 163.000
39.84500 161.000
39.86000 154.000
39.87500 150.000
39.89000 157.000
39.90500 162.000
39.92000 166.000
39.93500 153.000
39.95000 169.000
39.96500 156.000
39.98000 163.000
39.99500 156.000
40.01000 157.000
40.02500 154.000
40.04000 152.000
40.05500 159.000
40.07000 152.000
40.08500 171.000
40.10000 160.000
40.11500 160.000
40.13000 164.000
40.14500 159.000
40.16000 164.000
40.17500 159.000
40.19000 153.000
40.20500 146.000
40.22000 167.000
40.23500 166.000
40.25000 159.000
40.26500 164.000
40.28000 178.000
40.29500 171.000
40.31000 160.000
40.32500 160.000
40.34000 156.000
40.35500 152.000
40.37000 162.000
40.38500 164.000
40.40000 149.000
40.41500 143.000
40.43000 161.000
40.44500 167.000
40.46000 160.000
40.47500 168.000
40.49000 169.000
40.50500 148.000
40.52000 142.000
40.53500 159.000
40.55000 149.000
40.56500 159.000
40.58000 163.000
40.59500 176.000
40.61000 158.000
40.62500 156.000
40.64000 159.000
40.65500 168.000
40.67000 151.000
40.68500 151.000
40.70000 152.000
40.71500 161.000
40.73000 172.000
40.74500 148.000
40.76000 159.000
40.77500 171.000
40.79000 159.000
40.80500 144.000
40.82000 146.000
40.83500 134.000
40.85000 162.000
40.86500 165.000
40.88000 151.000
40.89500 155.000
40.91000 144.000
40.92500 146.000
40.94000 157.000
40.95500 164.000
40.97000 141.000
40.98500 155.000
41.00000 162.000
41.01500 180.000
41.03000 163.000
41.04500 165.000
41.06000 167.000
41.07500 146.000
41.09000 166.000
41.10500 166.000
41.12000 146.000
41.13500 159.000
41.15000 164.000
41.16500 154.000
41.18000 193.000
41.19500 164.000
41.21000 166.000
41.22500 164.000
41.24000 149.000
41.25500 158.000
41.27000 146.000
41.28500 169.000
41.30000 164.000
41.31500 158.000
41.33000 153.000
41.34500 162.000
41.36000 151.000
41.37500 164.000
41.39000 165.000
41.40500 153.000
41.42000 153.000
41.43500 153.000
41.45000 164.000
41.46500 151.000
41.48000 167.000
41.49500 169.000
41.51000 166.000
41.52500 147.000
41.54000 146.000
41.55500 154.000
41.57000 154.000
41.58500 169.000
41.60000 158.000
41.61500 175.000
41.63000 163.000
41.64500 154.000
41.66000 153.000
41.67500 165.000
41.69000 149.000
41.70500 153.000
41.72000 171.000
41.73500 167.000
41.75000 161.000
41.76500 151.000
41.78000 171.000
41.79500 166.000
41.81000 154.000
41.82500 164.000
41.84000 157.000
41.85500 161.000
41.87000 152.000
41.88500 155.000
41.90000 158.000
41.91500 140.000
41.93000 149.000
41.94500 152.000
41.96000 152.000
41.97500 141.000
41.99000 139.000
42.00500 160.000
42.02000 152.000
42.03500 170.000
42.05000 159.000
42.06500 129.000
42.08000 151.000
42.09500 152.000
42.11000 162.000
42.12500 164.000
42.14000 148.000
42.15500 160.000
42.17000 170.000
42.18500 160.000
42.20000 173.000
42.21500 160.000
42.23000 151.000
42.24500 153.000
42.26000 137.000
42.27500 146.000
42.29000 161.000
42.30500 165.000
42.32000 161.000
42.33500 147.000
42.35000 155.000
42.36500 157.000
42.38000 166.000
42.39500 169.000
42.41000 160.000
42.42500 149.000
42.44000 149.000
42.45500 165.000
42.47000 174.000
42.48500 157.000
42.50000 151.000
42.51500 161.000
42.53000 157.000
42.54500 160.000
42.56000 138.000
42.57500 146.000
42.59000 154.000
42.60500 152.000
42.62000 151.000
42.63500 152.000
42.65000 153.000
42.66500 157.000
42.68000 157.000
42.69500 152.000
42.71000 167.000
42.72500 163.000
42.74000 163.000
42.75500 158.000
42.77000 171.000
42.78500 157.000
42.80000 146.000
42.81500 167.000
42.83000 175.000
42.84500 143.000
42.86000 153.000
42.87500 156.000
42.89000 152.000
42.90500 161.000
42.92000 140.000
42.93500 148.000
42.95000 165.000
42.96500 154.000
42.98000 135.000
42.99500 134.000
43.01000 143.000
43.02500 153.000
43.04000 160.000
43.05500 155.000
43.07000 154.000
43.08500 163.000
43.10000 158.000
43.11500 148.000
43.13000 146.000
43.14500 173.000
43.16000 167.000
43.17500 136.000
43.19000 157.000
43.20500 157.000
43.22000 180.000
43.23500 159.000
43.25000 152.000
43.26500 161.000
43.28000 140.000
43.29500 150.000
43.31000 154.000
43.32500 138.000
43.34000 159.000
43.35500 159.000
43.37000 161.000
43.38500 163.000
43.40000 157.000
43.41500 151.000
43.43000 156.000
43.44500 152.000
43.46000 153.000
43.47500 138.000
43.49000 130.000
43.50500 142.000
43.52000 138.000
43.53500 146.000
43.55000 157.000
43.56500 141.000
43.58000 144.000
43.59500 145.000
43.61000 143.000
43.62500 160.000
43.64000 158.000
43.65500 167.000
43.67000 141.000
43.68500 147.000
43.70000 159.000
43.71500 156.000
43.73000 153.000
43.74500 143.000
43.76000 157.000
43.77500 159.000
43.79000 151.000
43.80500 155.000
43.82000 170.000
43.83500 145.000
43.85000 148.000
43.86500 151.000
43.88000 153.000
43.89500 147.000
43.91000 141.000
43.92500 161.000
43.94000 147.000
43.95500 156.000
43.97000 161.000
43.98500 164.000
44.00000 137.000
44.01500 148.000
44.03000 174.000
44.04500 140.000
44.06000 160.000
44.07500 154.000
44.09000 144.000
44.10500 148.000
44.12000 146.000
44.13500 143.000
44.15000 143.000
44.16500 139.000
44.18000 151.000
44.19500 143.000
44.21000 141.000
44.22500 142.000
44.24000 155.000
44.25500 149.000
44.27000 138.000
44.28500 157.000
44.30000 159.000
44.31500 160.000
44.33000 160.000
44.34500 136.000
44.36000 144.000
44.37500 161.000
44.39000 162.000
44.40500 151.000
44.42000 141.000
44.43500 165.000
44.45000 136.000
44.46500 148.000
44.48000 136.000
44.49500 140.000
44.51000 128.000
44.52500 134.000
44.54000 143.000
44.55500 141.000
44.57000 157.000
44.58500 147.000
44.60000 149.000
44.61500 133.000
44.63000 137.000
44.64500 150.000
44.66000 144.000
44.67500 154.000
44.69000 158.000
44.70500 158.000
44.72000 169.000
44.73500 152.000
44.75000 144.000
44.76500 141.000
44.78000 143.000
44.79500 161.000
44.81000 148.000
44.82500 162.000
44.84000 140.000
44.85500 148.000
44.87000 156.000
44.88500 164.000
44.90000 152.000
44.91500 131.000
44.93000 145.000
44.94500 149.000
44.96000 160.000
44.97500 144.000
44.99000 158.000
45.00500 126.000
45.02000 113.000
45.03500 140.000
45.05000 155.000
45.06500 128.000
45.08000 141.000
45.09500 140.000
45.11000 142.000
45.12500 136.000
45.14000 149.000
45.15500 143.000
45.17000 135.000
45.18500 125.000
45.20000 135.000
45.21500 154.000
45.23000 146.000
45.24500 145.000
45.26000 152.000
45.27500 130.000
45.29000 131.000
45.30500 127.000
45.32000 146.000
45.33500 153.000
45.35000 172.000
45.36500 159.000
45.38000 142.000
45.39500 135.000
45.41000 134.000
45.42500 141.000
45.44000 150.000
45.45500 137.000
45.47000 130.000
45.48500 132.000
45.50000 141.000
45.51500 152.000
45.53000 149.000
45.54500 143.000
45.56000 141.000
45.57500 138.000
45.59000 139.000
45.60500 144.000
45.62000 139.000
45.63500 140.000
45.65000 139.000
45.66500 146.000
45.68000 168.000
45.69500 145.000
45.71000 136.000
45.72500 129.000
45.74000 144.000
45.75500 149.000
45.77000 135.000
45.78500 135.000
45.80000 129.000
45.81500 144.000
45.83000 146.000
45.84500 139.000
45.86000 133.000
45.87500 138.000
45.89000 137.000
45.90500 136.000
45.92000 148.000
45.93500 157.000
45.95000 156.000
45.96500 155.000
45.98000 127.000
45.99500 150.000
46.01000 159.000
46.02500 144.000
46.04000 141.000
46.05500 151.000
46.07000 155.000
46.08500 151.000
46.10000 139.000
46.11500 131.000
46.13000 131.000
46.14500 127.000
46.16000 131.000
46.17500 154.000
46.19000 139.000
46.20500 137.000
46.22000 127.000
46.23500 147.000
46.25000 130.000
46.26500 124.000
46.28000 137.000
46.29500 139.000
46.31000 140.000
46.32500 133.000
46.34000 158.000
46.35500 161.000
46.37000 150.000
46.38500 142.000
46.40000 134.000
46.41500 120.000
46.43000 136.000
46.44500 135.000
46.46000 132.000
46.47500 134.000
46.49000 145.000
46.50500 138.000
46.52000 150.000
46.53500 146.000
46.55000 134.000
46.56500 128.000
46.58000 127.000
46.59500 150.000
46.61000 137.000
46.62500 159.000
46.64000 144.000
46.65500 147.000
46.67000 136.000
46.68500 132.000
46.70000 131.000
46.71500 142.000
46.73000 139.000
46.74500 134.000
46.76000 139.000
46.77500 115.000
46.79000 107.000
46.80500 110.000
46.82000 137.000
46.83500 137.000
46.85000 134.000
46.86500 140.000
46.88000 128.000
46.89500 127.000
46.91000 136.000
46.92500 153.000
46.94000 142.000
46.95500 134.000
46.97000 129.000
46.98500 135.000
47.00000 133.000
47.01500 130.000
47.03000 136.000
47.04500 147.000
47.06000 125.000
47.07500 137.000
47.09000 141.000
47.10500 133.000
47.12000 128.000
47.13500 131.000
47.15000 157.000
47.16500 145.000
47.18000 143.000
47.19500 128.000
47.21000 136.000
47.22500 156.000
47.24000 128.000
47.25500 129.000
47.27000 147.000
47.28500 138.000
47.30000 154.000
47.31500 149.000
47.33000 139.000
47.34500 135.000
47.36000 123.000
47.37500 123.000
47.39000 134.000
47.40500 131.000
47.42000 129.000
47.43500 135.000
47.45000 133.000
47.46500 144.000
47.48000 137.000
47.49500 140.000
47.51000 127.000
47.52500 148.000
47.54000 162.000
47.55500 150.000
47.57000 145.000
47.58500 134.000
47.60000 133.000
47.61500 143.000
47.63000 142.000
47.64500 155.000
47.66000 147.000
47.67500 152.000
47.69000 156.000
47.70500 140.000
47.72000 138.000
47.73500 128.000
47.75000 128.000
47.76500 133.000
47.78000 131.000
47.79500 128.000
47.81000 137.000
47.82500 141.000
47.84000 142.000
47.85500 130.000
47.87000 146.000
47.88500 130.000
47.90000 111.000
47.91500 108.000
47.93000 125.000
47.94500 118.000
47.96000 120.000
47.97500 129.000
47.99000 120.000
48.00500 126.000
48.02000 131.000
48.03500 136.000
48.05000 143.000
48.06500 134.000
48.08000 136.000
48.09500 107.000
48.11000 129.000
48.12500 131.000
48.14000 124.000
48.15500 133.000
48.17000 121.000
48.18500 135.000
48.20000 133.000
48.21500 141.000
48.23000 132.000
48.24500 124.000
48.26000 128.000
48.27500 134.000
48.29000 126.000
48.30500 126.000
48.32000 130.000
48.33500 117.000
48.35000 129.000
48.36500 132.000
48.38000 141.000
48.39500 135.000
48.41000 133.000
48.42500 122.000
48.44000 125.000
48.45500 139.000
48.47000 141.000
48.48500 136.000
48.50000 129.000
48.51500 151.000
48.53000 127.000
48.54500 152.000
48.56000 141.000
48.57500 141.000
48.59000 127.000
48.60500 123.000
48.62000 135.000
48.63500 129.000
48.65000 122.000
48.66500 118.000
48.68000 125.000
48.69500 123.000
48.71000 126.000
48.72500 130.000
48.74000 122.000
48.75500 115.000
48.77000 128.000
48.78500 115.000
48.80000 124.000
48.81500 118.000
48.83000 122.000
48.84500 122.000
48.86000 141.000
48.87500 124.000
48.89000 115.000
48.90500 117.000
48.92000 139.000
48.93500 118.000
48.95000 132.000
48.96500 132.000
48.98000 130.000
48.99500 127.000
49.01000 121.000
49.02500 127.000
49.04000 122.000
49.05500 113.000
49.07000 117.000
49.08500 135.000
49.10000 127.000
49.11500 131.000
49.13000 115.000
49.14500 122.000
49.16000 130.000
49.17500 124.000
49.19000 129.000
49.20500 147.000
49.22000 127.000
49.23500 122.000
49.25000 109.000
49.26500 108.000
49.28000 107.000
49.29500 107.000
49.31000 117.000
49.32500 130.000
49.34000 137.000
49.35500 133.000
49.37000 121.000
49.38500 110.000
49.40000 124.000
49.41500 121.000
49.43000 125.000
49.44500 125.000
49.46000 133.000
49.47500 113.000
49.49000 129.000
49.50500 123.000
49.52000 141.000
49.53500 126.000
49.55000 113.000
49.56500 123.000
49.58000 122.000
49.59500 135.000
49.61000 137.000
49.62500 134.000
49.64000 136.000
49.65500 136.000
49.67000 134.000
49.68500 129.000
49.70000 119.000
49.71500 128.000
49.73000 125.000
49.74500 128.000
49.76000 149.000
49.77500 128.000
49.79000 147.000
49.80500 126.000
49.82000 117.000
49.83500 133.000
49.85000 131.000
49.86500 117.000
49.88000 125.000
49.89500 127.000
49.91000 128.000
49.92500 110.000
49.94000 115.000
49.95500 120.000
49.97000 131.000
49.98500 137.000
50.00000 137.000
50.01500 124.000
50.03000 142.000
50.04500 130.000
50.06000 120.000
50.07500 123.000
50.09000 134.000
50.10500 131.000
50.12000 131.000
50.13500 128.000
50.15000 137.000
50.16500 139.000
50.18000 122.000
50.19500 115.000
50.21000 112.000
50.22500 120.000
50.24000 127.000
50.25500 138.000
50.27000 126.000
50.28500 130.000
50.30000 126.000
50.31500 122.000
50.33000 120.000
50.34500 119.000
50.36000 119.000
50.37500 113.000
50.39000 116.000
50.40500 141.000
50.42000 135.000
50.43500 113.000
50.45000 127.000
50.46500 117.000
50.48000 116.000
50.49500 125.000
50.51000 121.000
50.52500 124.000
50.54000 134.000
50.55500 120.000
50.57000 125.000
50.58500 121.000
50.60000 125.000
50.61500 119.000
50.63000 134.000
50.64500 108.000
50.66000 100.000
50.67500 118.000
50.69000 124.000
50.70500 118.000
50.72000 124.000
50.73500 129.000
50.75000 111.000
50.76500 112.000
50.78000 107.000
50.79500 115.000
50.81000 124.000
50.82500 103.000
50.84000 121.000
50.85500 143.000
50.87000 130.000
50.88500 137.000
50.90000 125.000
50.91500 125.000
50.93000 126.000
50.94500 105.000
50.96000 120.000
50.97500 123.000
50.99000 114.000
51.00500 115.000
51.02000 110.000
51.03500 114.000
51.05000 119.000
51.06500 108.000
51.08000 128.000
51.09500 124.000
51.11000 119.000
51.12500 125.000
51.14000 113.000
51.15500 119.000
51.17000 120.000
51.18500 142.000
51.20000 141.000
51.21500 120.000
51.23000 113.000
51.24500 127.000
51.26000 114.000
51.27500 108.000
51.29000 123.000
51.30500 113.000
51.32000 103.000
51.33500 126.000
51.35000 122.000
51.36500 113.000
51.38000 115.000
51.39500 116.000
51.41000 118.000
51.42500 107.000
51.44000 131.000
51.45500 104.000
51.47000 112.000
51.48500 118.000
51.50000 113.000
51.51500 129.000
51.53000 130.000
51.54500 132.000
51.56000 146.000
51.57500 130.000
51.59000 131.000
51.60500 123.000
51.62000 117.000
51.63500 112.000
51.65000 117.000
51.66500 128.000
51.68000 109.000
51.69500 118.000
51.71000 125.000
51.72500 126.000
51.74000 134.000
51.75500 115.000
51.77000 131.000
51.78500 114.000
51.80000 122.000
51.81500 115.000
51.83000 111.000
51.84500 108.000
51.86000 123.000
51.87500 118.000
51.89000 124.000
51.90500 118.000
51.92000 111.000
51.93500 132.000
51.95000 121.000
51.96500 129.000
51.98000 112.000
51.99500 120.000
52.01000 128.000
52.02500 133.000
52.04000 120.000
52.05500 110.000
52.07000 115.000
52.08500 125.000
52.10000 113.000
52.11500 117.000
52.13000 116.000
52.14500 124.000
52.16000 127.000
52.17500 124.000
52.19000 132.000
52.20500 143.000
52.22000 130.000
52.23500 119.000
52.25000 123.000
52.26500 114.000
52.28000 118.000
52.29500 118.000
52.31000 96.000
52.32500 98.000
52.34000 108.000
52.35500 118.000
52.37000 110.000
52.38500 130.000
52.40000 123.000
52.41500 115.000
52.43000 126.000
52.44500 132.000
52.46000 124.000
52.47500 115.000
52.49000 113.000
52.50500 114.000
52.52000 116.000
52.53500 129.000
52.55000 135.000
52.56500 120.000
52.58000 116.000
52.59500 115.000
52.61000 130.000
52.62500 138.000
52.64000 114.000
52.65500 118.000
52.67000 137.000
52.68500 121.000
52.70000 118.000
52.71500 116.000
52.73000 104.000
52.74500 124.000
52.76000 121.000
52.77500 110.000
52.79000 108.000
52.80500 102.000
52.82000 119.000
52.83500 122.000
52.85000 123.000
52.86500 105.000
52.88000 128.000
52.89500 132.000
52.91000 128.000
52.92500 117.000
52.94000 105.000
52.95500 122.000
52.97000 112.000
52.98500 105.000
53.00000 114.000
53.01500 117.000
53.03000 117.000
53.04500 120.000
53.06000 109.000
53.07500 121.000
53.09000 119.000
53.10500 111.000
53.12000 132.000
53.13500 116.000
53.15000 100.000
53.16500 113.000
53.18000 109.000
53.19500 105.000
53.21000 105.000
53.22500 98.000
53.24000 120.000
53.25500 113.000
53.27000 103.000
53.28500 118.000
53.30000 103.000
53.31500 117.000
53.33000 119.000
53.34500 133.000
53.36000 132.000
53.37500 122.000
53.39000 113.000
53.40500 117.000
53.42000 127.000
53.43500 115.000
53.45000 102.000
53.46500 119.000
53.48000 125.000
53.49500 125.000
53.51000 122.000
53.52500 118.000
53.54000 111.000
53.55500 127.000
53.57000 122.000
53.58500 120.000
53.60000 111.000
53.61500 104.000
53.63000 113.000
53.64500 136.000
53.66000 121.000
53.67500 116.000
53.69000 124.000
53.70500 118.000
53.72000 129.000
53.73500 127.000
53.75000 110.000
53.76500 107.000
53.78000 111.000
53.79500 101.000
53.81000 112.000
53.82500 117.000
53.84000 112.000
53.85500 116.000
53.87000 111.000
53.88500 111.000
53.90000 135.000
53.91500 124.000
53.93000 128.000
53.94500 111.000
53.96000 108.000
53.97500 123.000
53.99000 111.000
54.00500 92.000
54.02000 99.000
54.03500 110.000
54.05000 100.000
54.06500 106.000
54.08000 117.000
54.09500 122.000
54.11000 119.000
54.12500 101.000
54.14000 122.000
54.15500 123.000
54.17000 130.000
54.18500 121.000
54.20000 118.000
54.21500 113.000
54.23000 120.000
54.24500 117.000
54.26000 116.000
54.27500 115.000
54.29000 106.000
54.30500 119.000
54.32000 115.000
54.33500 118.000
54.35000 116.000
54.36500 126.000
54.38000 124.000
54.39500 115.000
54.41000 121.000
54.42500 114.000
54.44000 123.000
54.45500 115.000
54.47000 107.000
54.48500 119.000
54.50000 111.000
54.51500 114.000
54.53000 108.000
54.54500 126.000
54.56000 112.000
54.57500 112.000
54.59000 119.000
54.60500 115.000
54.62000 102.000
54.63500 105.000
54.65000 98.000
54.66500 100.000
54.68000 118.000
54.69500 131.000
54.71000 108.000
54.72500 111.000
54.74000 123.000
54.75500 121.000
54.77000 129.000
54.78500 121.000
54.80000 114.000
54.81500 114.000
54.83000 109.000
54.84500 118.000
54.86000 124.000
54.87500 125.000
54.89000 119.000
54.90500 112.000
54.92000 100.000
54.93500 107.000
54.95000 114.000
54.96500 102.000
54.98000 81.000
54.99500 106.000
55.01000 121.000
55.02500 122.000
55.04000 100.000
55.05500 103.000
55.07000 105.000
55.08500 119.000
55.10000 116.000
55.11500 107.000
55.13000 105.000
55.14500 103.000
55.16000 109.000
55.17500 102.000
55.19000 104.000
55.20500 100.000
55.22000 103.000
55.23500 131.000
55.25000 122.000
55.26500 119.000
55.28000 123.000
55.29500 122.000
55.31000 118.000
55.32500 110.000
55.34000 113.000
55.35500 108.000
55.37000 95.000
55.38500 92.000
55.40000 103.000
55.41500 99.000
55.43000 116.000
55.44500 117.000
55.46000 108.000
55.47500 123.000
55.49000 127.000
55.50500 109.000
55.52000 111.000
55.53500 116.000
55.55000 116.000
55.56500 107.000
55.58000 114.000
55.59500 133.000
55.61000 126.000
55.62500 118.000
55.64000 114.000
55.65500 106.000
55.67000 120.000
55.68500 117.000
55.70000 104.000
55.71500 124.000
55.73000 119.000
55.74500 112.000
55.76000 127.000
55.77500 115.000
55.79000 106.000
55.80500 103.000
55.82000 116.000
55.83500 107.000
55.85000 112.000
55.86500 120.000
55.88000 118.000
55.89500 117.000
55.91000 121.000
55.92500 136.000
55.94000 114.000
55.95500 110.000
55.97000 109.000
55.98500 106.000
56.00000 99.000
56.01500 117.000
56.03000 112.000
56.04500 97.000
56.06000 100.000
56.07500 125.000
56.09000 121.000
56.10500 116.000
56.12000 112.000
56.13500 120.000
56.15000 115.000
56.16500 115.000
56.18000 118.000
56.19500 100.000
56.21000 128.000
56.22500 122.000
56.24000 122.000
56.25500 108.000
56.27000 122.000
56.28500 105.000
56.30000 112.000
56.31500 116.000
56.33000 114.000
56.34500 124.000
56.36000 119.000
56.37500 121.000
56.39000 104.000
56.40500 105.000
56.42000 98.000
56.43500 109.000
56.45000 108.000
56.46500 112.000
56.48000 124.000
56.49500 104.000
56.51000 122.000
56.52500 131.000
56.54000 105.000
56.55500 120.000
56.57000 120.000
56.58500 116.000
56.60000 105.000
56.61500 122.000
56.63000 106.000
56.64500 116.000
56.66000 109.000
56.67500 103.000
56.69000 105.000
56.70500 114.000
56.72000 111.000
56.73500 99.000
56.75000 107.000
56.76500 116.000
56.78000 111.000
56.79500 105.000
56.81000 110.000
56.82500 112.000
56.84000 110.000
56.85500 131.000
56.87000 115.000
56.88500 120.000
56.90000 107.000
56.91500 110.000
56.93000 114.000
56.94500 103.000
56.96000 98.000
56.97500 114.000
56.99000 116.000
57.00500 109.000
57.02000 114.000
57.03500 115.000
57.05000 118.000
57.06500 112.000
57.08000 111.000
57.09500 106.000
57.11000 100.000
57.12500 88.000
57.14000 105.000
57.15500 123.000
57.17000 105.000
57.18500 110.000
57.20000 109.000
57.21500 107.000
57.23000 115.000
57.24500 107.000
57.26000 120.000
57.27500 129.000
57.29000 112.000
57.30500 109.000
57.32000 122.000
57.33500 114.000
57.35000 107.000
57.36500 113.000
57.38000 127.000
57.39500 117.000
57.41000 130.000
57.42500 116.000
57.44000 116.000
57.45500 108.000
57.47000 101.000
57.48500 105.000
57.50000 109.000
57.51500 113.000
57.53000 112.000
57.54500 124.000
57.56000 111.000
57.57500 125.000
57.59000 108.000
57.60500 104.000
57.62000 115.000
57.63500 131.000
57.65000 111.000
57.66500 102.000
57.68000 101.000
57.69500 111.000
57.71000 104.000
57.72500 94.000
57.74000 106.000
57.75500 111.000
57.77000 104.000
57.78500 114.000
57.80000 113.000
57.81500 88.000
57.83000 109.000
57.84500 121.000
57.86000 106.000
57.87500 123.000
57.89000 130.000
57.90500 124.000
57.92000 120.000
57.93500 112.000
57.95000 103.000
57.96500 117.000
57.98000 114.000
57.99500 102.000
58.01000 126.000
58.02500 118.000
58.04000 111.000
58.05500 117.000
58.07000 128.000
58.08500 129.000
58.10000 133.000
58.11500 111.000
58.13000 115.000
58.14500 101.000
58.16000 108.000
58.17500 115.000
58.19000 122.000
58.20500 111.000
58.22000 98.000
58.23500 110.000
58.25000 111.000
58.26500 105.000
58.28000 115.000
58.29500 132.000
58.31000 118.000
58.32500 115.000
58.34000 118.000
58.35500 117.000
58.37000 105.000
58.38500 117.000
58.40000 112.000
58.41500 108.000
58.43000 105.000
58.44500 110.000
58.46000 101.000
58.47500 106.000
58.49000 122.000
58.50500 109.000
58.52000 112.000
58.53500 105.000
58.55000 100.000
58.56500 102.000
58.58000 113.000
58.59500 116.000
58.61000 111.000
58.62500 118.000
58.64000 104.000
58.65500 110.000
58.67000 109.000
58.68500 108.000
58.70000 129.000
58.71500 119.000
58.73000 113.000
58.74500 116.000
58.76000 113.000
58.77500 106.000
58.79000 101.000
58.80500 113.000
58.82000 115.000
58.83500 112.000
58.85000 121.000
58.86500 115.000
58.88000 109.000
58.89500 104.000
58.91000 90.000
58.92500 99.000
58.94000 109.000
58.95500 93.000
58.97000 110.000
58.98500 117.000
59.00000 108.000
59.01500 111.000
59.03000 102.000
59.04500 100.000
59.06000 97.000
59.07500 103.000
59.09000 109.000
59.10500 107.000
59.12000 95.000
59.13500 103.000
59.15000 116.000
59.16500 116.000
59.18000 90.000
59.19500 97.000
59.21000 93.000
59.22500 103.000
59.24000 119.000
59.25500 103.000
59.27000 93.000
59.28500 93.000
59.30000 116.000
59.31500 117.000
59.33000 103.000
59.34500 85.000
59.36000 106.000
59.37500 109.000
59.39000 100.000
59.40500 93.000
59.42000 91.000
59.43500 92.000
59.45000 112.000
59.46500 113.000
59.48000 104.000
59.49500 99.000
59.51000 99.000
59.52500 111.000
59.54000 105.000
59.55500 114.000
59.57000 117.000
59.58500 99.000
59.60000 113.000
59.61500 112.000
59.63000 114.000
59.64500 96.000
59.66000 102.000
59.67500 104.000
59.69000 118.000
59.70500 98.000
59.72000 106.000
59.73500 93.000
59.75000 101.000
59.76500 120.000
59.78000 106.000
59.79500 108.000
59.81000 109.000
59.82500 106.000
59.84000 117.000
59.85500 108.000
59.87000 98.000
59.88500 123.000
59.90000 111.000
59.91500 106.000
59.93000 107.000
59.94500 100.000
59.96000 110.000
59.97500 101.000
59.99000 95.000
60.00500 106.000
60.02000 109.000
60.03500 107.000
60.05000 105.000
60.06500 105.000
60.08000 101.000
60.09500 105.000
60.11000 113.000
60.12500 104.000
60.14000 118.000
60.15500 101.000
60.17000 116.000
60.18500 111.000
60.20000 113.000
60.21500 86.000
60.23000 87.000
60.24500 98.000
60.26000 106.000
60.27500 118.000
60.29000 113.000
60.30500 103.000
60.32000 103.000
60.33500 97.000
60.35000 104.000
60.36500 96.000
60.38000 98.000
60.39500 95.000
60.41000 111.000
60.42500 103.000
60.44000 109.000
60.45500 97.000
60.47000 104.000
60.48500 95.000
60.50000 104.000
60.51500 98.000
60.53000 104.000
60.54500 112.000
60.56000 106.000
60.57500 103.000
60.59000 105.000
60.60500 102.000
60.62000 116.000
60.63500 107.000
60.65000 94.000
60.66500 113.000
60.68000 93.000
60.69500 111.000
60.71000 114.000
60.72500 105.000
60.74000 113.000
60.75500 98.000
60.77000 110.000
60.78500 118.000
60.80000 96.000
60.81500 106.000
60.83000 93.000
60.84500 96.000
60.86000 102.000
60.87500 117.000
60.89000 118.000
60.90500 110.000
60.92000 100.000
60.93500 97.000
60.95000 90.000
60.96500 87.000
60.98000 94.000
60.99500 105.000
61.01000 124.000
61.02500 102.000
61.04000 91.000
61.05500 111.000
61.07000 107.000
61.08500 109.000
61.10000 122.000
61.11500 117.000
61.13000 103.000
61.14500 96.000
61.16000 109.000
61.17500 102.000
61.19000 93.000
61.20500 98.000
61.22000 109.000
61.23500 98.000
61.25000 95.000
61.26500 95.000
61.28000 103.000
61.29500 114.000
61.31000 110.000
61.32500 121.000
61.34000 117.000
61.35500 108.000
61.37000 106.000
61.38500 106.000
61.40000 108.000
61.41500 100.000
61.43000 102.000
61.44500 97.000
61.46000 117.000
61.47500 98.000
61.49000 99.000
61.50500 97.000
61.52000 109.000
61.53500 107.000
61.55000 106.000
61.56500 111.000
61.58000 112.000
61.59500 122.000
61.61000 122.000
61.62500 115.000
61.64000 86.000
61.65500 99.000
61.67000 96.000
61.68500 112.000
61.70000 104.000
61.71500 101.000
61.73000 91.000
61.74500 105.000
61.76000 102.000
61.77500 97.000
61.79000 96.000
61.80500 79.000
61.82000 89.000
61.83500 88.000
61.85000 99.000
61.86500 95.000
61.88000 105.000
61.89500 108.000
61.91000 93.000
61.92500 99.000
61.94000 110.000
61.95500 100.000
61.97000 100.000
61.98500 109.000
