2.00000	5694.000
2.01500	5708.000
2.03000	5670.000
2.04500	5426.000
2.06000	5542.000
2.07500	5446.000
2.09000	5523.000
2.10500	5425.000
2.12000	5506.000
2.13500	5465.000
2.15000	5495.000
2.16500	5400.000
2.18000	5331.000
2.19500	5325.000
2.21000	5174.000
2.22500	5395.000
2.24000	5409.000
2.25500	5434.000
2.27000	6127.000
2.28500	8426.000
2.30000	12063.000
2.31500	11529.000
2.33000	11066.000
2.34500	14313.000
2.36000	14350.000
2.37500	10385.000
2.39000	7701.000
2.40500	6713.000
2.42000	6824.000
2.43500	5586.000
2.45000	4847.000
2.46500	4595.000
2.48000	4648.000
2.49500	4704.000
2.51000	4664.000
2.52500	4554.000
2.54000	4468.000
2.55500	4503.000
2.57000	4549.000
2.58500	4452.000
2.60000	4392.000
2.61500	4268.000
2.63000	4040.000
2.64500	4146.000
2.66000	4080.000
2.67500	4046.000
2.69000	4003.000
2.70500	3997.000
2.72000	4110.000
2.73500	4267.000
2.75000	4666.000
2.76500	5124.000
2.78000	5757.000
2.79500	6674.000
2.81000	6755.000
2.82500	5925.000
2.84000	5219.000
2.85500	4705.000
2.87000	4266.000
2.88500	4152.000
2.90000	4672.000
2.91500	4639.000
2.93000	3979.000
2.94500	3695.000
2.96000	3538.000
2.97500	3442.000
2.99000	3388.000
3.00500	3363.000
3.02000	3353.000
3.03500	3333.000
3.05000	3293.000
3.06500	3299.000
3.08000	3248.000
3.09500	3366.000
3.11000	3292.000
3.12500	3246.000
3.14000	3254.000
3.15500	3154.000
3.17000	3191.000
3.18500	3077.000
3.20000	3127.000
3.21500	3056.000
3.23000	3055.000
3.24500	3023.000
3.26000	2956.000
3.27500	2943.000
3.29000	2851.000
3.30500	2936.000
3.32000	2902.000
3.33500	2851.000
3.35000	2881.000
3.36500	2775.000
3.38000	2848.000
3.39500	2791.000
3.41000	2842.000
3.42500	2798.000
3.44000	2784.000
3.45500	2690.000
3.47000	2682.000
3.48500	2705.000
3.50000	2680.000
3.51500	2614.000
3.53000	2543.000
3.54500	2639.000
3.56000	2549.000
3.57500	2536.000
3.59000	2592.000
3.60500	2450.000
3.62000	2508.000
3.63500	2445.000
3.65000	2544.000
3.66500	2512.000
3.68000	2508.000
3.69500	2462.000
3.71000	2447.000
3.72500	2436.000
3.74000	2380.000
3.75500	2413.000
3.77000	2414.000
3.78500	2434.000
3.80000	2419.000
3.81500	2428.000
3.83000	2516.000
3.84500	2477.000
3.86000	2501.000
3.87500	2516.000
3.89000	2467.000
3.90500	2464.000
3.92000	2514.000
3.93500	2510.000
3.95000	2423.000
3.96500	2398.000
3.98000	2481.000
3.99500	2442.000
4.01000	2416.000
4.02500	2409.000
4.04000	2409.000
4.05500	2399.000
4.07000	2388.000
4.08500	2397.000
4.10000	2347.000
4.11500	2334.000
4.13000	2324.000
4.14500	2299.000
4.16000	2382.000
4.17500	2291.000
4.19000	2230.000
4.20500	2252.000
4.22000	2294.000
4.23500	2409.000
4.25000	2336.000
4.26500	2250.000
4.28000	2273.000
4.29500	2156.000
4.31000	2209.000
4.32500	2197.000
4.34000	2249.000
4.35500	2197.000
4.37000	2209.000
4.38500	2192.000
4.40000	2217.000
4.41500	2202.000
4.43000	2143.000
4.44500	2117.000
4.46000	2146.000
4.47500	2154.000
4.49000	2080.000
4.50500	2103.000
4.52000	2069.000
4.53500	2138.000
4.55000	2127.000
4.56500	2096.000
4.58000	2047.000
4.59500	2074.000
4.61000	2036.000
4.62500	2061.000
4.64000	1959.000
4.65500	1942.000
4.67000	1985.000
4.68500	1986.000
4.70000	2005.000
4.71500	1958.000
4.73000	1947.000
4.74500	1960.000
4.76000	2007.000
4.77500	1997.000
4.79000	1921.000
4.80500	1942.000
4.82000	1935.000
4.83500	1959.000
4.85000	1868.000
4.86500	1910.000
4.88000	1910.000
4.89500	1925.000
4.91000	1868.000
4.92500	1819.000
4.94000	1930.000
4.95500	1945.000
4.97000	1949.000
4.98500	1966.000
5.00000	1902.000
5.01500	1918.000
5.03000	1868.000
5.04500	1948.000
5.06000	1878.000
5.07500	1880.000
5.09000	1898.000
5.10500	1902.000
5.12000	1869.000
5.13500	1985.000
5.15000	2082.000
5.16500	2032.000
5.18000	2061.000
5.19500	2020.000
5.21000	2015.000
5.22500	2013.000
5.24000	2001.000
5.25500	1943.000
5.27000	1893.000
5.28500	1964.000
5.30000	1867.000
5.31500	1787.000
5.33000	1674.000
5.34500	1772.000
5.36000	1747.000
5.37500	1785.000
5.39000	1865.000
5.40500	1938.000
5.42000	2095.000
5.43500	2118.000
5.45000	1974.000
5.46500	1880.000
5.48000	1902.000
5.49500	1849.000
5.51000	1779.000
5.52500	1736.000
5.54000	1678.000
5.55500	1716.000
5.57000	1726.000
5.58500	1716.000
5.60000	1690.000
5.61500	1686.000
5.63000	1614.000
5.64500	1632.000
5.66000	1636.000
5.67500	1631.000
5.69000	1658.000
5.70500	1667.000
5.72000	1718.000
5.73500	1717.000
5.75000	1652.000
5.76500	1634.000
5.78000	1583.000
5.79500	1600.000
5.81000	1648.000
5.82500	1689.000
5.84000	1699.000
5.85500	1696.000
5.87000	1739.000
5.88500	1768.000
5.90000	1795.000
5.91500	1795.000
5.93000	1778.000
5.94500	1773.000
5.96000	1783.000
5.97500	1808.000
5.99000	1924.000
6.00500	1886.000
6.02000	1906.000
6.03500	1915.000
6.05000	1953.000
6.06500	2005.000
6.08000	2022.000
6.09500	2085.000
6.11000	2110.000
6.12500	2203.000
6.14000	2151.000
6.15500	2203.000
6.17000	2202.000
6.18500	2269.000
6.20000	2280.000
6.21500	2412.000
6.23000	2403.000
6.24500	2259.000
6.26000	2122.000
6.27500	2056.000
6.29000	1901.000
6.30500	1933.000
6.32000	1925.000
6.33500	1808.000
6.35000	1779.000
6.36500	1718.000
6.38000	1678.000
6.39500	1668.000
6.41000	1631.000
6.42500	1543.000
6.44000	1559.000
6.45500	1602.000
6.47000	1575.000
6.48500	1575.000
6.50000	1473.000
6.51500	1406.000
6.53000	1396.000
6.54500	1433.000
6.56000	1394.000
6.57500	1408.000
6.59000	1418.000
6.60500	1413.000
6.62000	1367.000
6.63500	1371.000
6.65000	1403.000
6.66500	1383.000
6.68000	1348.000
6.69500	1338.000
6.71000	1310.000
6.72500	1357.000
6.74000	1306.000
6.75500	1260.000
6.77000	1322.000
6.78500	1307.000
6.80000	1312.000
6.81500	1293.000
6.83000	1271.000
6.84500	1345.000
6.86000	1281.000
6.87500	1280.000
6.89000	1305.000
6.90500	1318.000
6.92000	1202.000
6.93500	1179.000
6.95000	1243.000
6.96500	1258.000
6.98000	1241.000
6.99500	1274.000
7.01000	1239.000
7.02500	1261.000
7.04000	1236.000
7.05500	1249.000
7.07000	1237.000
7.08500	1240.000
7.10000	1258.000
7.11500	1258.000
7.13000	1208.000
7.14500	1220.000
7.16000	1242.000
7.17500	1235.000
7.19000	1247.000
7.20500	1242.000
7.22000	1190.000
7.23500	1171.000
7.25000	1245.000
7.26500	1202.000
7.28000	1143.000
7.29500	1159.000
7.31000	1174.000
7.32500	1172.000
7.34000	1220.000
7.35500	1192.000
7.37000	1196.000
7.38500	1170.000
7.40000	1200.000
7.41500	1170.000
7.43000	1191.000
7.44500	1159.000
7.46000	1163.000
7.47500	1169.000
7.49000	1193.000
7.50500	1119.000
7.52000	1119.000
7.53500	1115.000
7.55000	1129.000
7.56500	1151.000
7.58000	1126.000
7.59500	1118.000
7.61000	1180.000
7.62500	1139.000
7.64000	1132.000
7.65500	1187.000
7.67000	1202.000
7.68500	1128.000
7.70000	1106.000
7.71500	1099.000
7.73000	1112.000
7.74500	1098.000
7.76000	1089.000
7.77500	1075.000
7.79000	1091.000
7.80500	1127.000
7.82000	1113.000
7.83500	1063.000
7.85000	1117.000
7.86500	1092.000
7.88000	1151.000
7.89500	1073.000
7.91000	1067.000
7.92500	1071.000
7.94000	1110.000
7.95500	1052.000
7.97000	1045.000
7.98500	1068.000
8.00000	1028.000
8.01500	1053.000
8.03000	1053.000
8.04500	1073.000
8.06000	1025.000
8.07500	1005.000
8.09000	1058.000
8.10500	974.000
8.12000	1027.000
8.13500	1027.000
8.15000	1095.000
8.16500	1028.000
8.18000	1027.000
8.19500	1063.000
8.21000	1132.000
8.22500	1077.000
8.24000	1045.000
8.25500	1112.000
8.27000	1058.000
8.28500	1082.000
8.30000	1089.000
8.31500	1084.000
8.33000	1102.000
8.34500	1025.000
8.36000	1075.000
8.37500	1068.000
8.39000	1084.000
8.40500	1069.000
8.42000	1156.000
8.43500	1222.000
8.45000	1294.000
8.46500	1375.000
8.48000	1531.000
8.49500	1505.000
8.51000	1571.000
8.52500	1560.000
8.54000	1464.000
8.55500	1442.000
8.57000	1417.000
8.58500	1378.000
8.60000	1329.000
8.61500	1246.000
8.63000	1201.000
8.64500	1276.000
8.66000	1256.000
8.67500	1259.000
8.69000	1296.000
8.70500	1280.000
8.72000	1254.000
8.73500	1245.000
8.75000	1209.000
8.76500	1220.000
8.78000	1219.000
8.79500	1227.000
8.81000	1172.000
8.82500	1137.000
8.84000	1170.000
8.85500	1138.000
8.87000	1150.000
8.88500	1146.000
8.90000	1133.000
8.91500	1101.000
8.93000	1110.000
8.94500	1117.000
8.96000	1051.000
8.97500	1036.000
8.99000	1048.000
9.00500	1011.000
9.02000	1011.000
9.03500	998.000
9.05000	994.000
9.06500	983.000
9.08000	993.000
9.09500	1026.000
9.11000	1017.000
9.12500	982.000
9.14000	973.000
9.15500	974.000
9.17000	954.000
9.18500	962.000
9.20000	1007.000
9.21500	976.000
9.23000	959.000
9.24500	941.000
9.26000	923.000
9.27500	936.000
9.29000	901.000
9.30500	941.000
9.32000	907.000
9.33500	974.000
9.35000	954.000
9.36500	963.000
9.38000	925.000
9.39500	940.000
9.41000	910.000
9.42500	955.000
9.44000	951.000
9.45500	874.000
9.47000	892.000
9.48500	929.000
9.50000	915.000
9.51500	972.000
9.53000	971.000
9.54500	934.000
9.56000	923.000
9.57500	947.000
9.59000	959.000
9.60500	967.000
9.62000	935.000
9.63500	937.000
9.65000	936.000
9.66500	918.000
9.68000	961.000
9.69500	979.000
9.71000	1008.000
9.72500	966.000
9.74000	942.000
9.75500	932.000
9.77000	963.000
9.78500	973.000
9.80000	990.000
9.81500	932.000
9.83000	1018.000
9.84500	1019.000
9.86000	1004.000
9.87500	987.000
9.89000	1027.000
9.90500	1018.000
9.92000	981.000
9.93500	1016.000
9.95000	1065.000
9.96500	1023.000
9.98000	1052.000
9.99500	1120.000
10.01000	1141.000
10.02500	1096.000
10.04000	1115.000
10.05500	1176.000
10.07000	1200.000
10.08500	1198.000
10.10000	1213.000
10.11500	1261.000
10.13000	1272.000
10.14500	1293.000
10.16000	1255.000
10.17500	1348.000
10.19000	1388.000
10.20500	1371.000
10.22000	1381.000
10.23500	1384.000
10.25000	1414.000
10.26500	1455.000
10.28000	1450.000
10.29500	1486.000
10.31000	1478.000
10.32500	1511.000
10.34000	1448.000
10.35500	1442.000
10.37000	1473.000
10.38500	1514.000
10.40000	1581.000
10.41500	1626.000
10.43000	1820.000
10.44500	1899.000
10.46000	1838.000
10.47500	1499.000
10.49000	1341.000
10.50500	1225.000
10.52000	1159.000
10.53500	1188.000
10.55000	1157.000
10.56500	1178.000
10.58000	1196.000
10.59500	1292.000
10.61000	1262.000
10.62500	1211.000
10.64000	1203.000
10.65500	1125.000
10.67000	1089.000
10.68500	1054.000
10.70000	1028.000
10.71500	1057.000
10.73000	1051.000
10.74500	1057.000
10.76000	1079.000
10.77500	1059.000
10.79000	1086.000
10.80500	1141.000
10.82000	1123.000
10.83500	1123.000
10.85000	1127.000
10.86500	1131.000
10.88000	1196.000
10.89500	1225.000
10.91000	1170.000
10.92500	1159.000
10.94000	1238.000
10.95500	1274.000
10.97000	1270.000
10.98500	1313.000
11.00000	1316.000
11.01500	1303.000
11.03000	1320.000
11.04500	1172.000
11.06000	1080.000
11.07500	1043.000
11.09000	1026.000
11.10500	947.000
11.12000	891.000
11.13500	903.000
11.15000	832.000
11.16500	858.000
11.18000	915.000
11.19500	868.000
11.21000	794.000
11.22500	801.000
11.24000	803.000
11.25500	783.000
11.27000	795.000
11.28500	763.000
11.30000	765.000
11.31500	786.000
11.33000	751.000
11.34500	762.000
11.36000	763.000
11.37500	739.000
11.39000	802.000
11.40500	772.000
11.42000	715.000
11.43500	745.000
11.45000	719.000
11.46500	751.000
11.48000	776.000
11.49500	721.000
11.51000	736.000
11.52500	752.000
11.54000	751.000
11.55500	793.000
11.57000	760.000
11.58500	759.000
11.60000	740.000
11.61500	740.000
11.63000	726.000
11.64500	717.000
11.66000	729.000
11.67500	739.000
11.69000	732.000
11.70500	734.000
11.72000	749.000
11.73500	734.000
11.75000	711.000
11.76500	724.000
11.78000	715.000
11.79500	742.000
11.81000	705.000
11.82500	728.000
11.84000	698.000
11.85500	704.000
11.87000	716.000
11.88500	713.000
11.90000	715.000
11.91500	730.000
11.93000	738.000
11.94500	735.000
11.96000	751.000
11.97500	746.000
11.99000	724.000
12.00500	730.000
12.02000	685.000
12.03500	684.000
12.05000	686.000
12.06500	693.000
12.08000	697.000
12.09500	710.000
12.11000	674.000
12.12500	692.000
12.14000	694.000
12.15500	707.000
12.17000	719.000
12.18500	736.000
12.20000	719.000
12.21500	757.000
12.23000	751.000
12.24500	717.000
12.26000	736.000
12.27500	674.000
12.29000	706.000
12.30500	704.000
12.32000	742.000
12.33500	736.000
12.35000	715.000
12.36500	736.000
12.38000	737.000
12.39500	714.000
12.41000	741.000
12.42500	714.000
12.44000	719.000
12.45500	742.000
12.47000	757.000
12.48500	770.000
12.50000	780.000
12.51500	760.000
12.53000	774.000
12.54500	833.000
12.56000	920.000
12.57500	826.000
12.59000	791.000
12.60500	745.000
12.62000	692.000
12.63500	744.000
12.65000	716.000
12.66500	688.000
12.68000	657.000
12.69500	731.000
12.71000	699.000
12.72500	689.000
12.74000	687.000
12.75500	716.000
12.77000	688.000
12.78500	633.000
12.80000	659.000
12.81500	686.000
12.83000	655.000
12.84500	690.000
12.86000	635.000
12.87500	652.000
12.89000	678.000
12.90500	702.000
12.92000	665.000
12.93500	654.000
12.95000	656.000
12.96500	653.000
12.98000	670.000
12.99500	680.000
13.01000	667.000
13.02500	643.000
13.04000	633.000
13.05500	663.000
13.07000	633.000
13.08500	648.000
13.10000	670.000
13.11500	661.000
13.13000	633.000
13.14500	648.000
13.16000	642.000
13.17500	661.000
13.19000	621.000
13.20500	603.000
13.22000	646.000
13.23500	628.000
13.25000	634.000
13.26500	645.000
13.28000	611.000
13.29500	616.000
13.31000	611.000
13.32500	631.000
13.34000	665.000
13.35500	651.000
13.37000	588.000
13.38500	606.000
13.40000	640.000
13.41500	625.000
13.43000	646.000
13.44500	652.000
13.46000	626.000
13.47500	648.000
13.49000	674.000
13.50500	656.000
13.52000	597.000
13.53500	623.000
13.55000	643.000
13.56500	616.000
13.58000	627.000
13.59500	641.000
13.61000	592.000
13.62500	623.000
13.64000	620.000
13.65500	629.000
13.67000	622.000
13.68500	618.000
13.70000	653.000
13.71500	651.000
13.73000	597.000
13.74500	650.000
13.76000	588.000
13.77500	609.000
13.79000	586.000
13.80500	631.000
13.82000	634.000
13.83500	636.000
13.85000	603.000
13.86500	607.000
13.88000	583.000
13.89500	614.000
13.91000	603.000
13.92500	592.000
13.94000	647.000
13.95500	623.000
13.97000	610.000
13.98500	609.000
14.00000	621.000
14.01500	615.000
14.03000	585.000
14.04500	601.000
14.06000	624.000
14.07500	620.000
14.09000	617.000
14.10500	626.000
14.12000	607.000
14.13500	619.000
14.15000	611.000
14.16500	620.000
14.18000	645.000
14.19500	609.000
14.21000	624.000
14.22500	592.000
14.24000	566.000
14.25500	604.000
14.27000	609.000
14.28500	574.000
14.30000	625.000
14.31500	597.000
14.33000	601.000
14.34500	592.000
14.36000	583.000
14.37500	598.000
14.39000	620.000
14.40500	600.000
14.42000	582.000
14.43500	590.000
14.45000	618.000
14.46500	627.000
14.48000	579.000
14.49500	602.000
14.51000	599.000
14.52500	599.000
14.54000	641.000
14.55500	626.000
14.57000	589.000
14.58500	564.000
14.60000	578.000
14.61500	608.000
14.63000	600.000
14.64500	589.000
14.66000	601.000
14.67500	565.000
14.69000	600.000
14.70500	636.000
14.72000	611.000
14.73500	620.000
14.75000	622.000
14.76500	607.000
14.78000	559.000
14.79500	597.000
14.81000	611.000
14.82500	566.000
14.84000	589.000
14.85500	611.000
14.87000	585.000
14.88500	625.000
14.90000	594.000
14.91500	603.000
14.93000	625.000
14.94500	611.000
14.96000	611.000
14.97500	597.000
14.99000	631.000
15.00500	643.000
15.02000	674.000
15.03500	703.000
15.05000	684.000
15.06500	645.000
15.08000	606.000
15.09500	575.000
15.11000	581.000
15.12500	568.000
15.14000	540.000
15.15500	535.000
15.17000	547.000
15.18500	579.000
15.20000	588.000
15.21500	588.000
15.23000	593.000
15.24500	603.000
15.26000	587.000
15.27500	561.000
15.29000	566.000
15.30500	589.000
15.32000	607.000
15.33500	567.000
15.35000	585.000
15.36500	584.000
15.38000	576.000
15.39500	585.000
15.41000	577.000
15.42500	542.000
15.44000	570.000
15.45500	567.000
15.47000	559.000
15.48500	535.000
15.50000	549.000
15.51500	567.000
15.53000	580.000
15.54500	542.000
15.56000	549.000
15.57500	582.000
15.59000	573.000
15.60500	567.000
15.62000	578.000
15.63500	541.000
15.65000	570.000
15.66500	544.000
15.68000	589.000
15.69500	541.000
15.71000	548.000
15.72500	580.000
15.74000	585.000
15.75500	533.000
15.77000	531.000
15.78500	566.000
15.80000	534.000
15.81500	538.000
15.83000	513.000
15.84500	537.000
15.86000	553.000
15.87500	529.000
15.89000	540.000
15.90500	544.000
15.92000	544.000
15.93500	575.000
15.95000	545.000
15.96500	536.000
15.98000	574.000
15.99500	588.000
16.01000	590.000
16.02500	547.000
16.04000	552.000
16.05500	553.000
16.07000	563.000
16.08500	571.000
16.10000	565.000
16.11500	552.000
16.13000	544.000
16.14500	553.000
16.16000	562.000
16.17500	559.000
16.19000	587.000
16.20500	582.000
16.22000	576.000
16.23500	546.000
16.25000	567.000
16.26500	550.000
16.28000	546.000
16.29500	573.000
16.31000	581.000
16.32500	621.000
16.34000	601.000
16.35500	546.000
16.37000	583.000
16.38500	548.000
16.40000	545.000
16.41500	553.000
16.43000	569.000
16.44500	537.000
16.46000	542.000
16.47500	560.000
16.49000	568.000
16.50500	585.000
16.52000	598.000
16.53500	578.000
16.55000	550.000
16.56500	525.000
16.58000	579.000
16.59500	547.000
16.61000	531.000
16.62500	579.000
16.64000	564.000
16.65500	577.000
16.67000	572.000
16.68500	579.000
16.70000	550.000
16.71500	581.000
16.73000	587.000
16.74500	589.000
16.76000	556.000
16.77500	554.000
16.79000	563.000
16.80500	548.000
16.82000	556.000
16.83500	554.000
16.85000	589.000
16.86500	592.000
16.88000	574.000
16.89500	571.000
16.91000	564.000
16.92500	565.000
16.94000	547.000
16.95500	572.000
16.97000	562.000
16.98500	553.000
17.00000	576.000
17.01500	561.000
17.03000	559.000
17.04500	554.000
17.06000	588.000
17.07500	549.000
17.09000	563.000
17.10500	555.000
17.12000	530.000
17.13500	531.000
17.15000	569.000
17.16500	559.000
17.18000	565.000
17.19500	571.000
17.21000	551.000
17.22500	570.000
17.24000	595.000
17.25500	581.000
17.27000	572.000
17.28500	554.000
17.30000	543.000
17.31500	565.000
17.33000	608.000
17.34500	620.000
17.36000	603.000
17.37500	612.000
17.39000	628.000
17.40500	664.000
17.42000	613.000
17.43500	636.000
17.45000	681.000
17.46500	702.000
17.48000	669.000
17.49500	646.000
17.51000	676.000
17.52500	691.000
17.54000	709.000
17.55500	736.000
17.57000	740.000
17.58500	719.000
17.60000	738.000
17.61500	691.000
17.63000	638.000
17.64500	653.000
17.66000	689.000
17.67500	668.000
17.69000	664.000
17.70500	649.000
17.72000	611.000
17.73500	617.000
17.75000	621.000
17.76500	649.000
17.78000	612.000
17.79500	616.000
17.81000	653.000
17.82500	617.000
17.84000	613.000
17.85500	600.000
17.87000	615.000
17.88500	637.000
17.90000	612.000
17.91500	619.000
17.93000	626.000
17.94500	630.000
17.96000	643.000
17.97500	594.000
17.99000	614.000
18.00500	618.000
18.02000	570.000
18.03500	582.000
18.05000	602.000
18.06500	591.000
18.08000	583.000
18.09500	601.000
18.11000	579.000
18.12500	574.000
18.14000	524.000
18.15500	573.000
18.17000	563.000
18.18500	572.000
18.20000	593.000
18.21500	603.000
18.23000	553.000
18.24500	595.000
18.26000	615.000
18.27500	599.000
18.29000	639.000
18.30500	619.000
18.32000	584.000
18.33500	610.000
18.35000	631.000
18.36500	629.000
18.38000	608.000
18.39500	590.000
18.41000	620.000
18.42500	629.000
18.44000	623.000
18.45500	630.000
18.47000	666.000
18.48500	670.000
18.50000	672.000
18.51500	652.000
18.53000	745.000
18.54500	699.000
18.56000	749.000
18.57500	752.000
18.59000	746.000
18.60500	752.000
18.62000	770.000
18.63500	831.000
18.65000	830.000
18.66500	871.000
18.68000	878.000
18.69500	957.000
18.71000	1037.000
18.72500	1104.000
18.74000	1170.000
18.75500	1191.000
18.77000	1121.000
18.78500	1089.000
18.80000	1022.000
18.81500	971.000
18.83000	944.000
18.84500	972.000
18.86000	966.000
18.87500	995.000
18.89000	966.000
18.90500	970.000
18.92000	961.000
18.93500	994.000
18.95000	979.000
18.96500	922.000
18.98000	934.000
18.99500	1004.000
19.01000	926.000
19.02500	865.000
19.04000	868.000
19.05500	856.000
19.07000	838.000
19.08500	881.000
19.10000	844.000
19.11500	820.000
19.13000	771.000
19.14500	808.000
19.16000	815.000
19.17500	802.000
19.19000	827.000
19.20500	874.000
19.22000	902.000
19.23500	1002.000
19.25000	1114.000
19.26500	1105.000
19.28000	1034.000
19.29500	889.000
19.31000	781.000
19.32500	678.000
19.34000	649.000
19.35500	661.000
19.37000	652.000
19.38500	653.000
19.40000	595.000
19.41500	590.000
19.43000	601.000
19.44500	570.000
19.46000	547.000
19.47500	534.000
19.49000	596.000
19.50500	623.000
19.52000	567.000
19.53500	555.000
19.55000	528.000
19.56500	507.000
19.58000	520.000
19.59500	564.000
19.61000	522.000
19.62500	533.000
19.64000	498.000
19.65500	551.000
19.67000	527.000
19.68500	536.000
19.70000	487.000
19.71500	539.000
19.73000	529.000
19.74500	538.000
19.76000	540.000
19.77500	533.000
19.79000	503.000
19.80500	540.000
19.82000	534.000
19.83500	512.000
19.85000	504.000
19.86500	523.000
19.88000	517.000
19.89500	499.000
19.91000	491.000
19.92500	514.000
19.94000	520.000
19.95500	492.000
19.97000	475.000
19.98500	492.000
20.00000	513.000
20.01500	512.000
20.03000	528.000
20.04500	486.000
20.06000	479.000
20.07500	494.000
20.09000	542.000
20.10500	496.000
20.12000	492.000
20.13500	497.000
20.15000	489.000
20.16500	487.000
20.18000	512.000
20.19500	497.000
20.21000	465.000
20.22500	495.000
20.24000	520.000
20.25500	513.000
20.27000	496.000
20.28500	504.000
20.30000	476.000
20.31500	472.000
20.33000	512.000
20.34500	497.000
20.36000	492.000
20.37500	489.000
20.39000	532.000
20.40500	504.000
20.42000	505.000
20.43500	486.000
20.45000	497.000
20.46500	499.000
20.48000	538.000
20.49500	559.000
20.51000	501.000
20.52500	528.000
20.54000	501.000
20.55500	457.000
20.57000	499.000
20.58500	488.000
20.60000	507.000
20.61500	500.000
20.63000	501.000
20.64500	531.000
20.66000	475.000
20.67500	519.000
20.69000	521.000
20.70500	487.000
20.72000	473.000
20.73500	503.000
20.75000	499.000
20.76500	501.000
20.78000	497.000
20.79500	507.000
20.81000	486.000
20.82500	485.000
20.84000	498.000
20.85500	508.000
20.87000	489.000
20.88500	525.000
20.90000	550.000
20.91500	509.000
20.93000	528.000
20.94500	537.000
20.96000	557.000
20.97500	565.000
20.99000	546.000
21.00500	547.000
21.02000	527.000
21.03500	525.000
21.05000	499.000
21.06500	516.000
21.08000	551.000
21.09500	567.000
21.11000	565.000
21.12500	543.000
21.14000	522.000
21.15500	509.000
21.17000	527.000
21.18500	527.000
21.20000	533.000
21.21500	527.000
21.23000	548.000
21.24500	516.000
21.26000	458.000
21.27500	489.000
21.29000	508.000
21.30500	503.000
21.32000	496.000
21.33500	505.000
21.35000	494.000
21.36500	506.000
21.38000	512.000
21.39500	487.000
21.41000	484.000
21.42500	475.000
21.44000	490.000
21.45500	501.000
21.47000	495.000
21.48500	512.000
21.50000	512.000
21.51500	519.000
21.53000	497.000
21.54500	477.000
21.56000	474.000
21.57500	478.000
21.59000	469.000
21.60500	488.000
21.62000	477.000
21.63500	465.000
21.65000	490.000
21.66500	503.000
21.68000	473.000
21.69500	482.000
21.71000	470.000
21.72500	493.000
21.74000	457.000
21.75500	440.000
21.77000	456.000
21.78500	458.000
21.80000	478.000
21.81500	462.000
21.83000	447.000
21.84500	465.000
21.86000	442.000
21.87500	454.000
21.89000	483.000
21.90500	490.000
21.92000	481.000
21.93500	480.000
21.95000	478.000
21.96500	449.000
21.98000	496.000
21.99500	468.000
22.01000	476.000
22.02500	495.000
22.04000	515.000
22.05500	472.000
22.07000	481.000
22.08500	477.000
22.10000	498.000
22.11500	502.000
22.13000	489.000
22.14500	471.000
22.16000	481.000
22.17500	491.000
22.19000	476.000
22.20500	448.000
22.22000	469.000
22.23500	489.000
22.25000	473.000
22.26500	441.000
22.28000	455.000
22.29500	486.000
22.31000	433.000
22.32500	441.000
22.34000	492.000
22.35500	510.000
22.37000	483.000
22.38500	462.000
22.40000	483.000
22.41500	461.000
22.43000	475.000
22.44500	468.000
22.46000	458.000
22.47500	463.000
22.49000	447.000
22.50500	451.000
22.52000	459.000
22.53500	477.000
22.55000	459.000
22.56500	497.000
22.58000	472.000
22.59500	482.000
22.61000	487.000
22.62500	480.000
22.64000	484.000
22.65500	477.000
22.67000	475.000
22.68500	479.000
22.70000	484.000
22.71500	490.000
22.73000	494.000
22.74500	487.000
22.76000	522.000
22.77500	517.000
22.79000	475.000
22.80500	490.000
22.82000	487.000
22.83500	467.000
22.85000	496.000
22.86500	487.000
22.88000	485.000
22.89500	485.000
22.91000	492.000
22.92500	461.000
22.94000	476.000
22.95500	479.000
22.97000	483.000
22.98500	475.000
23.00000	486.000
23.01500	487.000
23.03000	511.000
23.04500	497.000
23.06000	471.000
23.07500	484.000
23.09000	452.000
23.10500	435.000
23.12000	430.000
23.13500	458.000
23.15000	468.000
23.16500	461.000
23.18000	457.000
23.19500	516.000
23.21000	520.000
23.22500	471.000
23.24000	477.000
23.25500	443.000
23.27000	480.000
23.28500	473.000
23.30000	469.000
23.31500	458.000
23.33000	477.000
23.34500	508.000
23.36000	471.000
23.37500	484.000
23.39000	516.000
23.40500	474.000
23.42000	504.000
23.43500	507.000
23.45000	457.000
23.46500	457.000
23.48000	473.000
23.49500	485.000
23.51000	480.000
23.52500	496.000
23.54000	491.000
23.55500	508.000
23.57000	495.000
23.58500	497.000
23.60000	446.000
23.61500	477.000
23.63000	474.000
23.64500	460.000
23.66000	485.000
23.67500	476.000
23.69000	448.000
23.70500	490.000
23.72000	463.000
23.73500	485.000
23.75000	447.000
23.76500	473.000
23.78000	444.000
23.79500	458.000
23.81000	471.000
23.82500	488.000
23.84000	508.000
23.85500	490.000
23.87000	473.000
23.88500	493.000
23.90000	481.000
23.91500	459.000
23.93000	449.000
23.94500	472.000
23.96000	465.000
23.97500	426.000
23.99000	461.000
24.00500	492.000
24.02000	483.000
24.03500	491.000
24.05000	475.000
24.06500	488.000
24.08000	515.000
24.09500	504.000
24.11000	481.000
24.12500	460.000
24.14000	477.000
24.15500	528.000
24.17000	520.000
24.18500	493.000
24.20000	488.000
24.21500	480.000
24.23000	469.000
24.24500	476.000
24.26000	507.000
24.27500	516.000
24.29000	516.000
24.30500	543.000
24.32000	534.000
24.33500	612.000
24.35000	619.000
24.36500	633.000
24.38000	652.000
24.39500	657.000
24.41000	605.000
24.42500	590.000
24.44000	614.000
24.45500	679.000
24.47000	715.000
24.48500	860.000
24.50000	953.000
24.51500	1038.000
24.53000	1021.000
24.54500	906.000
24.56000	793.000
24.57500	640.000
24.59000	604.000
24.60500	568.000
24.62000	559.000
24.63500	592.000
24.65000	608.000
24.66500	588.000
24.68000	574.000
24.69500	582.000
24.71000	577.000
24.72500	581.000
24.74000	579.000
24.75500	612.000
24.77000	607.000
24.78500	592.000
24.80000	623.000
24.81500	601.000
24.83000	599.000
24.84500	635.000
24.86000	624.000
24.87500	645.000
24.89000	686.000
24.90500	674.000
24.92000	683.000
24.93500	717.000
24.95000	724.000
24.96500	725.000
24.98000	739.000
24.99500	751.000
25.01000	764.000
25.02500	765.000
25.04000	800.000
25.05500	823.000
25.07000	867.000
25.08500	927.000
25.10000	902.000
25.11500	839.000
25.13000	833.000
25.14500	809.000
25.16000	812.000
25.17500	830.000
25.19000	875.000
25.20500	836.000
25.22000	846.000
25.23500	883.000
25.25000	860.000
25.26500	908.000
25.28000	851.000
25.29500	883.000
25.31000	871.000
25.32500	898.000
25.34000	899.000
25.35500	893.000
25.37000	891.000
25.38500	902.000
25.40000	915.000
25.41500	923.000
25.43000	918.000
25.44500	963.000
25.46000	983.000
25.47500	1031.000
25.49000	1031.000
25.50500	1052.000
25.52000	1076.000
25.53500	1089.000
25.55000	1099.000
25.56500	1077.000
25.58000	1131.000
25.59500	1105.000
25.61000	1080.000
25.62500	1073.000
25.64000	1034.000
25.65500	1061.000
25.67000	1104.000
25.68500	1051.000
25.70000	1051.000
25.71500	1076.000
25.73000	1051.000
25.74500	989.000
25.76000	1103.000
25.77500	1113.000
25.79000	1104.000
25.80500	1248.000
25.82000	1173.000
25.83500	1117.000
25.85000	1018.000
25.86500	954.000
25.88000	931.000
25.89500	936.000
25.91000	937.000
25.92500	888.000
25.94000	859.000
25.95500	881.000
25.97000	852.000
25.98500	872.000
26.00000	851.000
26.01500	846.000
26.03000	848.000
26.04500	863.000
26.06000	866.000
26.07500	866.000
26.09000	932.000
26.10500	1011.000
26.12000	930.000
26.13500	935.000
26.15000	830.000
26.16500	797.000
26.18000	813.000
26.19500	763.000
26.21000	781.000
26.22500	776.000
26.24000	784.000
26.25500	795.000
26.27000	753.000
26.28500	784.000
26.30000	741.000
26.31500	768.000
26.33000	737.000
26.34500	732.000
26.36000	737.000
26.37500	754.000
26.39000	741.000
26.40500	754.000
26.42000	752.000
26.43500	781.000
26.45000	816.000
26.46500	851.000
26.48000	916.000
26.49500	981.000
26.51000	985.000
26.52500	975.000
26.54000	1026.000
26.55500	1156.000
26.57000	1355.000
26.58500	1611.000
26.60000	1713.000
26.61500	1649.000
26.63000	1316.000
26.64500	1096.000
26.66000	931.000
26.67500	858.000
26.69000	783.000
26.70500	741.000
26.72000	768.000
26.73500	784.000
26.75000	753.000
26.76500	716.000
26.78000	735.000
26.79500	679.000
26.81000	696.000
26.82500	715.000
26.84000	719.000
26.85500	712.000
26.87000	710.000
26.88500	705.000
26.90000	689.000
26.91500	678.000
26.93000	700.000
26.94500	678.000
26.96000	657.000
26.97500	685.000
26.99000	686.000
27.00500	680.000
27.02000	688.000
27.03500	735.000
27.05000	700.000
27.06500	712.000
27.08000	702.000
27.09500	730.000
27.11000	717.000
27.12500	734.000
27.14000	672.000
27.15500	722.000
27.17000	729.000
27.18500	743.000
27.20000	757.000
27.21500	776.000
27.23000	756.000
27.24500	723.000
27.26000	758.000
27.27500	780.000
27.29000	756.000
27.30500	806.000
27.32000	811.000
27.33500	803.000
27.35000	799.000
27.36500	812.000
27.38000	806.000
27.39500	854.000
27.41000	895.000
27.42500	854.000
27.44000	813.000
27.45500	886.000
27.47000	935.000
27.48500	974.000
27.50000	1019.000
27.51500	1035.000
27.53000	1158.000
27.54500	1243.000
27.56000	1397.000
27.57500	1628.000
27.59000	1934.000
27.60500	1945.000
27.62000	1822.000
27.63500	1628.000
27.65000	1397.000
27.66500	1346.000
27.68000	1272.000
27.69500	1252.000
27.71000	1301.000
27.72500	1307.000
27.74000	1412.000
27.75500	1445.000
27.77000	1394.000
27.78500	1338.000
27.80000	1430.000
27.81500	1376.000
27.83000	1425.000
27.84500	1458.000
27.86000	1469.000
27.87500	1517.000
27.89000	1543.000
27.90500	1569.000
27.92000	1576.000
27.93500	1517.000
27.95000	1524.000
27.96500	1567.000
27.98000	1595.000
27.99500	1714.000
28.01000	1768.000
28.02500	1833.000
28.04000	1881.000
28.05500	1946.000
28.07000	2080.000
28.08500	2166.000
28.10000	2194.000
28.11500	2269.000
28.13000	2244.000
28.14500	2106.000
28.16000	2030.000
28.17500	1893.000
28.19000	1764.000
28.20500	1573.000
28.22000	1547.000
28.23500	1421.000
28.25000	1367.000
28.26500	1258.000
28.28000	1193.000
28.29500	1151.000
28.31000	1124.000
28.32500	1092.000
28.34000	1077.000
28.35500	1094.000
28.37000	1032.000
28.38500	1028.000
28.40000	1000.000
28.41500	894.000
28.43000	846.000
28.44500	806.000
28.46000	810.000
28.47500	798.000
28.49000	758.000
28.50500	697.000
28.52000	747.000
28.53500	703.000
28.55000	662.000
28.56500	700.000
28.58000	713.000
28.59500	686.000
28.61000	721.000
28.62500	726.000
28.64000	702.000
28.65500	658.000
28.67000	657.000
28.68500	611.000
28.70000	653.000
28.71500	641.000
28.73000	577.000
28.74500	587.000
28.76000	537.000
28.77500	555.000
28.79000	570.000
28.80500	563.000
28.82000	586.000
28.83500	575.000
28.85000	522.000
28.86500	571.000
28.88000	577.000
28.89500	553.000
28.91000	549.000
28.92500	567.000
28.94000	564.000
28.95500	563.000
28.97000	558.000
28.98500	524.000
29.00000	497.000
29.01500	528.000
29.03000	517.000
29.04500	510.000
29.06000	527.000
29.07500	517.000
29.09000	560.000
29.10500	551.000
29.12000	507.000
29.13500	507.000
29.15000	506.000
29.16500	528.000
29.18000	537.000
29.19500	482.000
29.21000	528.000
29.22500	515.000
29.24000	536.000
29.25500	566.000
29.27000	552.000
29.28500	535.000
29.30000	503.000
29.31500	515.000
29.33000	497.000
29.34500	518.000
29.36000	505.000
29.37500	485.000
29.39000	488.000
29.40500	492.000
29.42000	491.000
29.43500	513.000
29.45000	496.000
29.46500	517.000
29.48000	511.000
29.49500	516.000
29.51000	520.000
29.52500	543.000
29.54000	544.000
29.55500	581.000
29.57000	575.000
29.58500	554.000
29.60000	537.000
29.61500	540.000
29.63000	564.000
29.64500	573.000
29.66000	616.000
29.67500	533.000
29.69000	535.000
29.70500	525.000
29.72000	477.000
29.73500	494.000
29.75000	475.000
29.76500	450.000
29.78000	478.000
29.79500	477.000
29.81000	483.000
29.82500	486.000
29.84000	530.000
29.85500	542.000
29.87000	574.000
29.88500	548.000
29.90000	521.000
29.91500	515.000
29.93000	499.000
29.94500	461.000
29.96000	501.000
29.97500	493.000
29.99000	465.000
30.00500	476.000
30.02000	474.000
30.03500	469.000
30.05000	480.000
30.06500	490.000
30.08000	492.000
30.09500	485.000
30.11000	454.000
30.12500	496.000
30.14000	479.000
30.15500	502.000
30.17000	503.000
30.18500	492.000
30.20000	471.000
30.21500	450.000
30.23000	466.000
30.24500	480.000
30.26000	464.000
30.27500	466.000
30.29000	468.000
30.30500	499.000
30.32000	489.000
30.33500	529.000
30.35000	537.000
30.36500	535.000
30.38000	590.000
30.39500	626.000
30.41000	744.000
30.42500	914.000
30.44000	1046.000
30.45500	1031.000
30.47000	927.000
30.48500	790.000
30.50000	629.000
30.51500	608.000
30.53000	552.000
30.54500	507.000
30.56000	444.000
30.57500	454.000
30.59000	441.000
30.60500	433.000
30.62000	388.000
30.63500	381.000
30.65000	420.000
30.66500	412.000
30.68000	401.000
30.69500	409.000
30.71000	407.000
30.72500	397.000
30.74000	386.000
30.75500	394.000
30.77000	390.000
30.78500	401.000
30.80000	393.000
30.81500	393.000
30.83000	358.000
30.84500	403.000
30.86000	395.000
30.87500	410.000
30.89000	369.000
30.90500	417.000
30.92000	461.000
30.93500	459.000
30.95000	432.000
30.96500	474.000
30.98000	429.000
30.99500	425.000
31.01000	442.000
31.02500	417.000
31.04000	387.000
31.05500	382.000
31.07000	388.000
31.08500	416.000
31.10000	368.000
31.11500	383.000
31.13000	377.000
31.14500	366.000
31.16000	399.000
31.17500	405.000
31.19000	399.000
31.20500	369.000
31.22000	379.000
31.23500	389.000
31.25000	367.000
31.26500	349.000
31.28000	387.000
31.29500	381.000
31.31000	376.000
31.32500	394.000
31.34000	388.000
31.35500	384.000
31.37000	403.000
31.38500	378.000
31.40000	381.000
31.41500	402.000
31.43000	410.000
31.44500	408.000
31.46000	386.000
31.47500	397.000
31.49000	385.000
31.50500	388.000
31.52000	389.000
31.53500	400.000
31.55000	409.000
31.56500	406.000
31.58000	399.000
31.59500	422.000
31.61000	453.000
31.62500	455.000
31.64000	447.000
31.65500	455.000
31.67000	429.000
31.68500	410.000
31.70000	395.000
31.71500	396.000
31.73000	392.000
31.74500	384.000
31.76000	402.000
31.77500	386.000
31.79000	368.000
31.80500	391.000
31.82000	380.000
31.83500	359.000
31.85000	355.000
31.86500	362.000
31.88000	391.000
31.89500	342.000
31.91000	363.000
31.92500	371.000
31.94000	388.000
31.95500	388.000
31.97000	382.000
31.98500	399.000
32.00000	425.000
32.01500	421.000
32.03000	415.000
32.04500	379.000
32.06000	400.000
32.07500	392.000
32.09000	368.000
32.10500	371.000
32.12000	367.000
32.13500	340.000
32.15000	377.000
32.16500	398.000
32.18000	391.000
32.19500	363.000
32.21000	374.000
32.22500	368.000
32.24000	360.000
32.25500	363.000
32.27000	397.000
32.28500	360.000
32.30000	372.000
32.31500	382.000
32.33000	377.000
32.34500	388.000
32.36000	392.000
32.37500	389.000
32.39000	379.000
32.40500	396.000
32.42000	373.000
32.43500	347.000
32.45000	350.000
32.46500	373.000
32.48000	369.000
32.49500	359.000
32.51000	384.000
32.52500	350.000
32.54000	354.000
32.55500	376.000
32.57000	395.000
32.58500	375.000
32.60000	370.000
32.61500	409.000
32.63000	405.000
32.64500	436.000
32.66000	445.000
32.67500	431.000
32.69000	382.000
32.70500	388.000
32.72000	366.000
32.73500	367.000
32.75000	371.000
32.76500	351.000
32.78000	364.000
32.79500	352.000
32.81000	355.000
32.82500	370.000
32.84000	389.000
32.85500	370.000
32.87000	356.000
32.88500	357.000
32.90000	356.000
32.91500	360.000
32.93000	336.000
32.94500	342.000
32.96000	363.000
32.97500	362.000
32.99000	380.000
33.00500	387.000
33.02000	393.000
33.03500	376.000
33.05000	381.000
33.06500	383.000
33.08000	397.000
33.09500	389.000
33.11000	395.000
33.12500	385.000
33.14000	385.000
33.15500	362.000
33.17000	355.000
33.18500	349.000
33.20000	373.000
33.21500	389.000
33.23000	354.000
33.24500	318.000
33.26000	349.000
33.27500	344.000
33.29000	346.000
33.30500	349.000
33.32000	349.000
33.33500	349.000
33.35000	347.000
33.36500	336.000
33.38000	333.000
33.39500	352.000
33.41000	357.000
33.42500	321.000
33.44000	314.000
33.45500	384.000
33.47000	384.000
33.48500	342.000
33.50000	323.000
33.51500	333.000
33.53000	343.000
33.54500	331.000
33.56000	356.000
33.57500	378.000
33.59000	365.000
33.60500	338.000
33.62000	370.000
33.63500	352.000
33.65000	353.000
33.66500	373.000
33.68000	368.000
33.69500	387.000
33.71000	397.000
33.72500	441.000
33.74000	423.000
33.75500	428.000
33.77000	387.000
33.78500	364.000
33.80000	348.000
33.81500	348.000
33.83000	324.000
33.84500	329.000
33.86000	337.000
33.87500	362.000
33.89000	369.000
33.90500	367.000
33.92000	362.000
33.93500	394.000
33.95000	383.000
33.96500	408.000
33.98000	405.000
33.99500	412.000
34.01000	395.000
34.02500	373.000
34.04000	350.000
34.05500	347.000
34.07000	337.000
34.08500	347.000
34.10000	346.000
34.11500	349.000
34.13000	326.000
34.14500	320.000
34.16000	327.000
34.17500	343.000
34.19000	317.000
34.20500	297.000
34.22000	311.000
34.23500	339.000
34.25000	304.000
34.26500	325.000
34.28000	341.000
34.29500	323.000
34.31000	320.000
34.32500	331.000
34.34000	341.000
34.35500	325.000
34.37000	333.000
34.38500	319.000
34.40000	346.000
34.41500	337.000
34.43000	323.000
34.44500	339.000
34.46000	327.000
34.47500	314.000
34.49000	319.000
34.50500	304.000
34.52000	343.000
34.53500	313.000
34.55000	300.000
34.56500	315.000
34.58000	326.000
34.59500	318.000
34.61000	318.000
34.62500	310.000
34.64000	276.000
34.65500	258.000
34.67000	300.000
34.68500	266.000
34.70000	279.000
34.71500	282.000
34.73000	289.000
34.74500	288.000
34.76000	288.000
34.77500	304.000
34.79000	311.000
34.80500	279.000
34.82000	288.000
34.83500	307.000
34.85000	298.000
34.86500	295.000
34.88000	283.000
34.89500	269.000
34.91000	279.000
34.92500	276.000
34.94000	271.000
34.95500	305.000
34.97000	292.000
34.98500	290.000
35.00000	315.000
35.01500	306.000
35.03000	293.000
35.04500	305.000
35.06000	307.000
35.07500	299.000
35.09000	287.000
35.10500	287.000
35.12000	294.000
35.13500	291.000
35.15000	301.000
35.16500	295.000
35.18000	299.000
35.19500	296.000
35.21000	292.000
35.22500	279.000
35.24000	298.000
35.25500	302.000
35.27000	301.000
35.28500	316.000
35.30000	318.000
35.31500	343.000
35.33000	351.000
35.34500	345.000
35.36000	373.000
35.37500	316.000
35.39000	314.000
35.40500	306.000
35.42000	307.000
35.43500	324.000
35.45000	299.000
35.46500	308.000
35.48000	294.000
35.49500	313.000
35.51000	338.000
35.52500	320.000
35.54000	316.000
35.55500	317.000
35.57000	293.000
35.58500	355.000
35.60000	316.000
35.61500	328.000
35.63000	302.000
35.64500	335.000
35.66000	343.000
35.67500	360.000
35.69000	342.000
35.70500	337.000
35.72000	351.000
35.73500	355.000
35.75000	345.000
35.76500	384.000
35.78000	426.000
35.79500	478.000
35.81000	500.000
35.82500	518.000
35.84000	451.000
35.85500	395.000
35.87000	376.000
35.88500	328.000
35.90000	340.000
35.91500	320.000
35.93000	336.000
35.94500	329.000
35.96000	335.000
35.97500	347.000
35.99000	333.000
36.00500	337.000
36.02000	325.000
36.03500	316.000
36.05000	329.000
36.06500	314.000
36.08000	303.000
36.09500	290.000
36.11000	299.000
36.12500	314.000
36.14000	293.000
36.15500	289.000
36.17000	308.000
36.18500	301.000
36.20000	285.000
36.21500	286.000
36.23000	306.000
36.24500	286.000
36.26000	293.000
36.27500	307.000
36.29000	315.000
36.30500	305.000
36.32000	265.000
36.33500	265.000
36.35000	274.000
36.36500	288.000
36.38000	293.000
36.39500	291.000
36.41000	272.000
36.42500	283.000
36.44000	294.000
36.45500	309.000
36.47000	329.000
36.48500	348.000
36.50000	313.000
36.51500	305.000
36.53000	315.000
36.54500	271.000
36.56000	311.000
36.57500	268.000
36.59000	283.000
36.60500	304.000
36.62000	316.000
36.63500	295.000
36.65000	282.000
36.66500	287.000
36.68000	297.000
36.69500	310.000
36.71000	320.000
36.72500	297.000
36.74000	287.000
36.75500	285.000
36.77000	292.000
36.78500	308.000
36.80000	298.000
36.81500	282.000
36.83000	296.000
36.84500	316.000
36.86000	309.000
36.87500	285.000
36.89000	311.000
36.90500	313.000
36.92000	295.000
36.93500	331.000
36.95000	281.000
36.96500	292.000
36.98000	299.000
36.99500	305.000
37.01000	351.000
37.02500	317.000
37.04000	301.000
37.05500	296.000
37.07000	320.000
37.08500	300.000
37.10000	276.000
37.11500	304.000
37.13000	332.000
37.14500	304.000
37.16000	301.000
37.17500	317.000
37.19000	306.000
37.20500	323.000
37.22000	295.000
37.23500	295.000
37.25000	303.000
37.26500	308.000
37.28000	299.000
37.29500	320.000
37.31000	308.000
37.32500	301.000
37.34000	310.000
37.35500	307.000
37.37000	316.000
37.38500	326.000
37.40000	297.000
37.41500	337.000
37.43000	300.000
37.44500	300.000
37.46000	274.000
37.47500	277.000
37.49000	322.000
37.50500	324.000
37.52000	285.000
37.53500	304.000
37.55000	310.000
37.56500	314.000
37.58000	312.000
37.59500	305.000
37.61000	313.000
37.62500	292.000
37.64000	279.000
37.65500	330.000
37.67000	300.000
37.68500	280.000
37.70000	305.000
37.71500	314.000
37.73000	293.000
37.74500	288.000
37.76000	275.000
37.77500	296.000
37.79000	290.000
37.80500	288.000
37.82000	274.000
37.83500	284.000
37.85000	273.000
37.86500	269.000
37.88000	277.000
37.89500	293.000
37.91000	287.000
37.92500	265.000
37.94000	262.000
37.95500	284.000
37.97000	263.000
37.98500	258.000
38.00000	296.000
38.01500	277.000
38.03000	292.000
38.04500	302.000
38.06000	263.000
38.07500	280.000
38.09000	297.000
38.10500	262.000
38.12000	273.000
38.13500	285.000
38.15000	282.000
38.16500	269.000
38.18000	264.000
38.19500	295.000
38.21000	278.000
38.22500	291.000
38.24000	259.000
38.25500	286.000
38.27000	280.000
38.28500	262.000
38.30000	264.000
38.31500	270.000
38.33000	295.000
38.34500	296.000
38.36000	278.000
38.37500	281.000
38.39000	266.000
38.40500	280.000
38.42000	273.000
38.43500	296.000
38.45000	278.000
38.46500	279.000
38.48000	265.000
38.49500	264.000
38.51000	277.000
38.52500	265.000
38.54000	256.000
38.55500	294.000
38.57000	302.000
38.58500	297.000
38.60000	283.000
38.61500	301.000
38.63000	286.000
38.64500	294.000
38.66000	292.000
38.67500	276.000
38.69000	270.000
38.70500	299.000
38.72000	300.000
38.73500	316.000
38.75000	323.000
38.76500	334.000
38.78000	369.000
38.79500	398.000
38.81000	397.000
38.82500	384.000
38.84000	376.000
38.85500	366.000
38.87000	335.000
38.88500	299.000
38.90000	311.000
38.91500	309.000
38.93000	300.000
38.94500	290.000
38.96000	287.000
38.97500	287.000
38.99000	311.000
39.00500	302.000
39.02000	331.000
39.03500	318.000
39.05000	312.000
39.06500	300.000
39.08000	309.000
39.09500	284.000
39.11000	289.000
39.12500	269.000
39.14000	252.000
39.15500	277.000
39.17000	267.000
39.18500	278.000
39.20000	284.000
39.21500	286.000
39.23000	262.000
39.24500	261.000
39.26000	268.000
39.27500	270.000
39.29000	272.000
39.30500	281.000
39.32000	298.000
39.33500	275.000
39.35000	271.000
39.36500	263.000
39.38000	278.000
39.39500	280.000
39.41000	283.000
39.42500	288.000
39.44000	292.000
39.45500	266.000
39.47000	284.000
39.48500	278.000
39.50000	253.000
39.51500	260.000
39.53000	257.000
39.54500	277.000
39.56000	265.000
39.57500	251.000
39.59000	270.000
39.60500	241.000
39.62000	245.000
39.63500	243.000
39.65000	241.000
39.66500	253.000
39.68000	258.000
39.69500	276.000
39.71000	255.000
39.72500	247.000
39.74000	227.000
39.75500	218.000
39.77000	240.000
39.78500	251.000
39.80000	225.000
39.81500	219.000
39.83000	230.000
39.84500	248.000
39.86000	219.000
39.87500	220.000
39.89000	233.000
39.90500	235.000
39.92000	223.000
39.93500	214.000
39.95000	230.000
39.96500	236.000
39.98000	239.000
39.99500	235.000
40.01000	242.000
40.02500	225.000
40.04000	219.000
40.05500	233.000
40.07000	244.000
40.08500	222.000
40.10000	226.000
40.11500	230.000
40.13000	240.000
40.14500	222.000
40.16000	239.000
40.17500	242.000
40.19000	228.000
40.20500	248.000
40.22000	229.000
40.23500	221.000
40.25000	243.000
40.26500	243.000
40.28000	212.000
40.29500	203.000
40.31000	223.000
40.32500	222.000
40.34000	248.000
40.35500	238.000
40.37000	219.000
40.38500	237.000
40.40000	233.000
40.41500	211.000
40.43000	226.000
40.44500	239.000
40.46000	225.000
40.47500	220.000
40.49000	224.000
40.50500	232.000
40.52000	212.000
40.53500	240.000
40.55000	212.000
40.56500	243.000
40.58000	276.000
40.59500	245.000
40.61000	240.000
40.62500	247.000
40.64000	224.000
40.65500	215.000
40.67000	215.000
40.68500	229.000
40.70000	223.000
40.71500	236.000
40.73000	239.000
40.74500	257.000
40.76000	245.000
40.77500	264.000
40.79000	268.000
40.80500	274.000
40.82000	308.000
40.83500	286.000
40.85000	280.000
40.86500	244.000
40.88000	242.000
40.89500	261.000
40.91000	218.000
40.92500	212.000
40.94000	239.000
40.95500	238.000
40.97000	215.000
40.98500	230.000
41.00000	213.000
41.01500	203.000
41.03000	231.000
41.04500	236.000
41.06000	208.000
41.07500	215.000
41.09000	229.000
41.10500	233.000
41.12000	222.000
41.13500	228.000
41.15000	223.000
41.16500	196.000
41.18000	223.000
41.19500	219.000
41.21000	234.000
41.22500	241.000
41.24000	228.000
41.25500	236.000
41.27000	214.000
41.28500	226.000
41.30000	230.000
41.31500	231.000
41.33000	231.000
41.34500	202.000
41.36000	231.000
41.37500	254.000
41.39000	244.000
41.40500	224.000
41.42000	228.000
41.43500	236.000
41.45000	230.000
41.46500	231.000
41.48000	233.000
41.49500	243.000
41.51000	229.000
41.52500	217.000
41.54000	212.000
41.55500	215.000
41.57000	227.000
41.58500	247.000
41.60000	223.000
41.61500	216.000
41.63000	227.000
41.64500	212.000
41.66000	225.000
41.67500	217.000
41.69000	229.000
41.70500	242.000
41.72000	225.000
41.73500	217.000
41.75000	208.000
41.76500	230.000
41.78000	220.000
41.79500	228.000
41.81000	213.000
41.82500	214.000
41.84000	239.000
41.85500	228.000
41.87000	213.000
41.88500	229.000
41.90000	225.000
41.91500	205.000
41.93000	226.000
41.94500	223.000
41.96000	204.000
41.97500	215.000
41.99000	211.000
42.00500	228.000
42.02000	243.000
42.03500	248.000
42.05000	228.000
42.06500	220.000
42.08000	218.000
42.09500	219.000
42.11000	207.000
42.12500	230.000
42.14000	241.000
42.15500	243.000
42.17000	244.000
42.18500	225.000
42.20000	236.000
42.21500	250.000
42.23000	237.000
42.24500	237.000
42.26000	235.000
42.27500	264.000
42.29000	284.000
42.30500	252.000
42.32000	248.000
42.33500	258.000
42.35000	255.000
42.36500	264.000
42.38000	229.000
42.39500	238.000
42.41000	233.000
42.42500	214.000
42.44000	228.000
42.45500	250.000
42.47000	223.000
42.48500	215.000
42.50000	221.000
42.51500	245.000
42.53000	257.000
42.54500	230.000
42.56000	251.000
42.57500	252.000
42.59000	247.000
42.60500	241.000
42.62000	227.000
42.63500	230.000
42.65000	243.000
42.66500	244.000
42.68000	205.000
42.69500	245.000
42.71000	242.000
42.72500	239.000
42.74000	225.000
42.75500	240.000
42.77000	231.000
42.78500	238.000
42.80000	246.000
42.81500	231.000
42.83000	212.000
42.84500	237.000
42.86000	231.000
42.87500	226.000
42.89000	241.000
42.90500	238.000
42.92000	238.000
42.93500	220.000
42.95000	223.000
42.96500	224.000
42.98000	233.000
42.99500	222.000
43.01000	223.000
43.02500	226.000
43.04000	212.000
43.05500	212.000
43.07000	239.000
43.08500	248.000
43.10000	232.000
43.11500	242.000
43.13000	231.000
43.14500	238.000
43.16000	240.000
43.17500	255.000
43.19000	247.000
43.20500	233.000
43.22000	222.000
43.23500	217.000
43.25000	227.000
43.26500	244.000
43.28000	226.000
43.29500	220.000
43.31000	242.000
43.32500	250.000
43.34000	231.000
43.35500	226.000
43.37000	237.000
43.38500	234.000
43.40000	248.000
43.41500	225.000
43.43000	212.000
43.44500	210.000
43.46000	222.000
43.47500	224.000
43.49000	221.000
43.50500	206.000
43.52000	199.000
43.53500	190.000
43.55000	205.000
43.56500	209.000
43.58000	203.000
43.59500	224.000
43.61000	209.000
43.62500	221.000
43.64000	216.000
43.65500	224.000
43.67000	197.000
43.68500	202.000
43.70000	207.000
43.71500	197.000
43.73000	209.000
43.74500	194.000
43.76000	203.000
43.77500	220.000
43.79000	211.000
43.80500	188.000
43.82000	207.000
43.83500	198.000
43.85000	190.000
43.86500	205.000
43.88000	207.000
43.89500	225.000
43.91000	243.000
43.92500	230.000
43.94000	211.000
43.95500	210.000
43.97000	221.000
43.98500	198.000
44.00000	199.000
44.01500	208.000
44.03000	238.000
44.04500	214.000
44.06000	208.000
44.07500	201.000
44.09000	197.000
44.10500	216.000
44.12000	204.000
44.13500	206.000
44.15000	241.000
44.16500	232.000
44.18000	230.000
44.19500	206.000
44.21000	229.000
44.22500	244.000
44.24000	226.000
44.25500	263.000
44.27000	248.000
44.28500	235.000
44.30000	242.000
44.31500	227.000
44.33000	220.000
44.34500	203.000
44.36000	207.000
44.37500	202.000
44.39000	210.000
44.40500	224.000
44.42000	212.000
44.43500	222.000
44.45000	196.000
44.46500	187.000
44.48000	201.000
44.49500	204.000
44.51000	206.000
44.52500	205.000
44.54000	203.000
44.55500	200.000
44.57000	213.000
44.58500	225.000
44.60000	224.000
44.61500	221.000
44.63000	204.000
44.64500	244.000
44.66000	267.000
44.67500	249.000
44.69000	226.000
44.70500	220.000
44.72000	238.000
44.73500	228.000
44.75000	250.000
44.76500	219.000
44.78000	237.000
44.79500	220.000
44.81000	199.000
44.82500	234.000
44.84000	208.000
44.85500	224.000
44.87000	242.000
44.88500	225.000
44.90000	223.000
44.91500	234.000
44.93000	227.000
44.94500	236.000
44.96000	226.000
44.97500	226.000
44.99000	233.000
45.00500	230.000
45.02000	234.000
45.03500	231.000
45.05000	217.000
45.06500	220.000
45.08000	211.000
45.09500	231.000
45.11000	223.000
45.12500	219.000
45.14000	221.000
45.15500	219.000
45.17000	222.000
45.18500	210.000
45.20000	208.000
45.21500	212.000
45.23000	208.000
45.24500	237.000
45.26000	242.000
45.27500	233.000
45.29000	224.000
45.30500	221.000
45.32000	208.000
45.33500	213.000
45.35000	221.000
45.36500	216.000
45.38000	219.000
45.39500	211.000
45.41000	229.000
45.42500	232.000
45.44000	224.000
45.45500	230.000
45.47000	246.000
45.48500	234.000
45.50000	232.000
45.51500	224.000
45.53000	230.000
45.54500	220.000
45.56000	246.000
45.57500	226.000
45.59000	203.000
45.60500	215.000
45.62000	232.000
45.63500	221.000
45.65000	221.000
45.66500	229.000
45.68000	237.000
45.69500	222.000
45.71000	228.000
45.72500	215.000
45.74000	225.000
45.75500	217.000
45.77000	207.000
45.78500	216.000
45.80000	204.000
45.81500	245.000
45.83000	235.000
45.84500	234.000
45.86000	228.000
45.87500	213.000
45.89000	222.000
45.90500	231.000
45.92000	206.000
45.93500	186.000
45.95000	192.000
45.96500	210.000
45.98000	220.000
45.99500	225.000
46.01000	203.000
46.02500	195.000
46.04000	193.000
46.05500	203.000
46.07000	221.000
46.08500	209.000
46.10000	190.000
46.11500	201.000
46.13000	200.000
46.14500	213.000
46.16000	196.000
46.17500	212.000
46.19000	230.000
46.20500	225.000
46.22000	210.000
46.23500	220.000
46.25000	242.000
46.26500	240.000
46.28000	211.000
46.29500	216.000
46.31000	238.000
46.32500	208.000
46.34000	198.000
46.35500	193.000
46.37000	212.000
46.38500	197.000
46.40000	209.000
46.41500	193.000
46.43000	171.000
46.44500	196.000
46.46000	204.000
46.47500	193.000
46.49000	193.000
46.50500	208.000
46.52000	198.000
46.53500	182.000
46.55000	203.000
46.56500	207.000
46.58000	180.000
46.59500	197.000
46.61000	184.000
46.62500	196.000
46.64000	187.000
46.65500	177.000
46.67000	198.000
46.68500	195.000
46.70000	190.000
46.71500	193.000
46.73000	189.000
46.74500	188.000
46.76000	181.000
46.77500	201.000
46.79000	198.000
46.80500	201.000
46.82000	207.000
46.83500	208.000
46.85000	180.000
46.86500	180.000
46.88000	180.000
46.89500	192.000
46.91000	180.000
46.92500	202.000
46.94000	191.000
46.95500	207.000
46.97000	196.000
46.98500	208.000
47.00000	245.000
47.01500	248.000
47.03000	219.000
47.04500	227.000
47.06000	215.000
47.07500	201.000
47.09000	221.000
47.10500	215.000
47.12000	201.000
47.13500	175.000
47.15000	206.000
47.16500	200.000
47.18000	197.000
47.19500	208.000
47.21000	190.000
47.22500	185.000
47.24000	196.000
47.25500	209.000
47.27000	185.000
47.28500	177.000
47.30000	213.000
47.31500	197.000
47.33000	203.000
47.34500	204.000
47.36000	184.000
47.37500	191.000
47.39000	194.000
47.40500	200.000
47.42000	209.000
47.43500	220.000
47.45000	195.000
47.46500	194.000
47.48000	206.000
47.49500	206.000
47.51000	183.000
47.52500	202.000
47.54000	218.000
47.55500	232.000
47.57000	226.000
47.58500	218.000
47.60000	204.000
47.61500	229.000
47.63000	229.000
47.64500	229.000
47.66000	233.000
47.67500	193.000
47.69000	225.000
47.70500	208.000
47.72000	230.000
47.73500	236.000
47.75000	242.000
47.76500	230.000
47.78000	213.000
47.79500	228.000
47.81000	205.000
47.82500	203.000
47.84000	225.000
47.85500	226.000
47.87000	205.000
47.88500	216.000
47.90000	215.000
47.91500	231.000
47.93000	217.000
47.94500	217.000
47.96000	231.000
47.97500	241.000
47.99000	224.000
48.00500	204.000
48.02000	213.000
48.03500	231.000
48.05000	222.000
48.06500	218.000
48.08000	191.000
48.09500	202.000
48.11000	202.000
48.12500	218.000
48.14000	213.000
48.15500	211.000
48.17000	195.000
48.18500	184.000
48.20000	205.000
48.21500	185.000
48.23000	197.000
48.24500	206.000
48.26000	211.000
48.27500	218.000
48.29000	227.000
48.30500	209.000
48.32000	222.000
48.33500	193.000
48.35000	206.000
48.36500	213.000
48.38000	213.000
48.39500	206.000
48.41000	210.000
48.42500	210.000
48.44000	221.000
48.45500	225.000
48.47000	211.000
48.48500	216.000
48.50000	200.000
48.51500	219.000
48.53000	194.000
48.54500	183.000
48.56000	189.000
48.57500	190.000
48.59000	203.000
48.60500	212.000
48.62000	203.000
48.63500	206.000
48.65000	191.000
48.66500	189.000
48.68000	187.000
48.69500	193.000
48.71000	188.000
48.72500	201.000
48.74000	197.000
48.75500	189.000
48.77000	199.000
48.78500	195.000
48.80000	195.000
48.81500	204.000
48.83000	191.000
48.84500	187.000
48.86000	192.000
48.87500	185.000
48.89000	209.000
48.90500	211.000
48.92000	203.000
48.93500	207.000
48.95000	181.000
48.96500	186.000
48.98000	202.000
48.99500	199.000
49.01000	202.000
49.02500	220.000
49.04000	218.000
49.05500	213.000
49.07000	258.000
49.08500	239.000
49.10000	237.000
49.11500	219.000
49.13000	209.000
49.14500	206.000
49.16000	220.000
49.17500	214.000
49.19000	198.000
49.20500	179.000
49.22000	202.000
49.23500	199.000
49.25000	206.000
49.26500	214.000
49.28000	209.000
49.29500	215.000
49.31000	199.000
49.32500	222.000
49.34000	211.000
49.35500	206.000
49.37000	206.000
49.38500	222.000
49.40000	193.000
49.41500	198.000
49.43000	199.000
49.44500	194.000
49.46000	196.000
49.47500	199.000
49.49000	190.000
49.50500	190.000
49.52000	183.000
49.53500	209.000
49.55000	200.000
49.56500	189.000
49.58000	201.000
49.59500	194.000
49.61000	189.000
49.62500	172.000
49.64000	184.000
49.65500	198.000
49.67000	189.000
49.68500	198.000
49.70000	194.000
49.71500	193.000
49.73000	194.000
49.74500	177.000
49.76000	177.000
49.77500	200.000
49.79000	196.000
49.80500	208.000
49.82000	213.000
49.83500	203.000
49.85000	200.000
49.86500	194.000
49.88000	195.000
49.89500	189.000
49.91000	190.000
49.92500	196.000
49.94000	211.000
49.95500	177.000
49.97000	198.000
49.98500	194.000
50.00000	198.000
50.01500	189.000
50.03000	182.000
50.04500	179.000
50.06000	165.000
50.07500	176.000
50.09000	192.000
50.10500	185.000
50.12000	195.000
50.13500	173.000
50.15000	194.000
50.16500	187.000
50.18000	197.000
50.19500	200.000
50.21000	199.000
50.22500	174.000
50.24000	201.000
50.25500	201.000
50.27000	194.000
50.28500	192.000
50.30000	181.000
50.31500	197.000
50.33000	188.000
50.34500	188.000
50.36000	209.000
50.37500	209.000
50.39000	221.000
50.40500	205.000
50.42000	201.000
50.43500	206.000
50.45000	193.000
50.46500	170.000
50.48000	212.000
50.49500	185.000
50.51000	199.000
50.52500	195.000
50.54000	169.000
50.55500	193.000
50.57000	198.000
50.58500	196.000
50.60000	201.000
50.61500	198.000
50.63000	201.000
50.64500	210.000
50.66000	240.000
50.67500	221.000
50.69000	230.000
50.70500	206.000
50.72000	197.000
50.73500	183.000
50.75000	204.000
50.76500	193.000
50.78000	177.000
50.79500	174.000
50.81000	175.000
50.82500	172.000
50.84000	189.000
50.85500	198.000
50.87000	197.000
50.88500	211.000
50.90000	186.000
50.91500	172.000
50.93000	190.000
50.94500	183.000
50.96000	171.000
50.97500	187.000
50.99000	189.000
51.00500	161.000
51.02000	179.000
51.03500	202.000
51.05000	190.000
51.06500	169.000
51.08000	179.000
51.09500	186.000
51.11000	177.000
51.12500	186.000
51.14000	192.000
51.15500	205.000
51.17000	200.000
51.18500	208.000
51.20000	192.000
51.21500	190.000
51.23000	181.000
51.24500	179.000
51.26000	196.000
51.27500	197.000
51.29000	198.000
51.30500	204.000
51.32000	204.000
51.33500	174.000
51.35000	169.000
51.36500	177.000
51.38000	197.000
51.39500	186.000
51.41000	199.000
51.42500	188.000
51.44000	211.000
51.45500	187.000
51.47000	179.000
51.48500	195.000
51.50000	175.000
51.51500	182.000
51.53000	196.000
51.54500	216.000
51.56000	198.000
51.57500	186.000
51.59000	181.000
51.60500	182.000
51.62000	200.000
51.63500	200.000
51.65000	175.000
51.66500	219.000
51.68000	208.000
51.69500	198.000
51.71000	192.000
51.72500	206.000
51.74000	192.000
51.75500	196.000
51.77000	190.000
51.78500	197.000
51.80000	195.000
51.81500	185.000
51.83000	197.000
51.84500	201.000
51.86000	178.000
51.87500	176.000
51.89000	197.000
51.90500	203.000
51.92000	182.000
51.93500	191.000
51.95000	199.000
51.96500	198.000
51.98000	201.000
51.99500	195.000
52.01000	196.000
52.02500	204.000
52.04000	181.000
52.05500	185.000
52.07000	216.000
52.08500	193.000
52.10000	204.000
52.11500	212.000
52.13000	190.000
52.14500	199.000
52.16000	206.000
52.17500	203.000
52.19000	179.000
52.20500	182.000
52.22000	206.000
52.23500	206.000
52.25000	200.000
52.26500	224.000
52.28000	211.000
52.29500	212.000
52.31000	207.000
52.32500	201.000
52.34000	187.000
52.35500	201.000
52.37000	197.000
52.38500	194.000
52.40000	206.000
52.41500	218.000
52.43000	208.000
52.44500	199.000
52.46000	205.000
52.47500	183.000
52.49000	192.000
52.50500	199.000
52.52000	182.000
52.53500	200.000
52.55000	192.000
52.56500	192.000
52.58000	187.000
52.59500	182.000
52.61000	183.000
52.62500	196.000
52.64000	185.000
52.65500	203.000
52.67000	192.000
52.68500	192.000
52.70000	209.000
52.71500	193.000
52.73000	197.000
52.74500	198.000
52.76000	217.000
52.77500	209.000
52.79000	194.000
52.80500	209.000
52.82000	209.000
52.83500	211.000
52.85000	210.000
52.86500	198.000
52.88000	220.000
52.89500	203.000
52.91000	199.000
52.92500	193.000
52.94000	213.000
52.95500	223.000
52.97000	220.000
52.98500	230.000
53.00000	208.000
53.01500	218.000
53.03000	202.000
53.04500	208.000
53.06000	219.000
53.07500	207.000
53.09000	210.000
53.10500	197.000
53.12000	197.000
53.13500	204.000
53.15000	193.000
53.16500	199.000
53.18000	208.000
53.19500	197.000
53.21000	189.000
53.22500	195.000
53.24000	189.000
53.25500	194.000
53.27000	180.000
53.28500	190.000
53.30000	210.000
53.31500	216.000
53.33000	207.000
53.34500	229.000
53.36000	218.000
53.37500	222.000
53.39000	217.000
53.40500	225.000
53.42000	225.000
53.43500	251.000
53.45000	221.000
53.46500	210.000
53.48000	207.000
53.49500	235.000
53.51000	234.000
53.52500	217.000
53.54000	205.000
53.55500	226.000
53.57000	221.000
53.58500	222.000
53.60000	215.000
53.61500	206.000
53.63000	238.000
53.64500	196.000
53.66000	217.000
53.67500	222.000
53.69000	184.000
53.70500	211.000
53.72000	207.000
53.73500	216.000
53.75000	215.000
53.76500	201.000
53.78000	210.000
53.79500	208.000
53.81000	211.000
53.82500	212.000
53.84000	208.000
53.85500	210.000
53.87000	199.000
53.88500	205.000
53.90000	202.000
53.91500	202.000
53.93000	241.000
53.94500	243.000
53.96000	236.000
53.97500	246.000
53.99000	239.000
54.00500	241.000
54.02000	223.000
54.03500	229.000
54.05000	230.000
54.06500	221.000
54.08000	218.000
54.09500	214.000
54.11000	215.000
54.12500	220.000
54.14000	231.000
54.15500	234.000
54.17000	228.000
54.18500	216.000
54.20000	228.000
54.21500	196.000
54.23000	209.000
54.24500	212.000
54.26000	198.000
54.27500	194.000
54.29000	207.000
54.30500	217.000
54.32000	185.000
54.33500	189.000
54.35000	187.000
54.36500	187.000
54.38000	182.000
54.39500	194.000
54.41000	193.000
54.42500	189.000
54.44000	175.000
54.45500	187.000
54.47000	201.000
54.48500	200.000
54.50000	213.000
54.51500	181.000
54.53000	184.000
54.54500	209.000
54.56000	193.000
54.57500	174.000
54.59000	202.000
54.60500	212.000
54.62000	204.000
54.63500	217.000
54.65000	217.000
54.66500	218.000
54.68000	207.000
54.69500	208.000
54.71000	206.000
54.72500	217.000
54.74000	214.000
54.75500	219.000
54.77000	232.000
54.78500	230.000
54.80000	229.000
54.81500	219.000
54.83000	212.000
54.84500	213.000
54.86000	233.000
54.87500	224.000
54.89000	198.000
54.90500	202.000
54.92000	198.000
54.93500	221.000
54.95000	208.000
54.96500	198.000
54.98000	190.000
54.99500	213.000
55.01000	211.000
55.02500	220.000
55.04000	217.000
55.05500	221.000
55.07000	201.000
55.08500	194.000
55.10000	203.000
55.11500	198.000
55.13000	184.000
55.14500	197.000
55.16000	204.000
55.17500	215.000
55.19000	200.000
55.20500	220.000
55.22000	199.000
55.23500	173.000
55.25000	194.000
55.26500	212.000
55.28000	193.000
55.29500	195.000
55.31000	191.000
55.32500	185.000
55.34000	192.000
55.35500	195.000
55.37000	197.000
55.38500	204.000
55.40000	197.000
55.41500	176.000
55.43000	204.000
55.44500	197.000
55.46000	186.000
55.47500	176.000
55.49000	190.000
55.50500	199.000
55.52000	182.000
55.53500	195.000
55.55000	202.000
55.56500	193.000
55.58000	184.000
55.59500	201.000
55.61000	183.000
55.62500	176.000
55.64000	185.000
55.65500	207.000
55.67000	199.000
55.68500	200.000
55.70000	202.000
55.71500	227.000
55.73000	213.000
55.74500	196.000
55.76000	205.000
55.77500	196.000
55.79000	193.000
55.80500	209.000
55.82000	221.000
55.83500	211.000
55.85000	210.000
55.86500	190.000
55.88000	192.000
55.89500	191.000
55.91000	192.000
55.92500	182.000
55.94000	180.000
55.95500	186.000
55.97000	201.000
55.98500	195.000
56.00000	178.000
56.01500	187.000
56.03000	199.000
56.04500	203.000
56.06000	204.000
56.07500	207.000
56.09000	186.000
56.10500	193.000
56.12000	185.000
56.13500	181.000
56.15000	186.000
56.16500	201.000
56.18000	202.000
56.19500	202.000
56.21000	195.000
56.22500	194.000
56.24000	172.000
56.25500	162.000
56.27000	204.000
56.28500	174.000
56.30000	159.000
56.31500	171.000
56.33000	158.000
56.34500	176.000
56.36000	163.000
56.37500	168.000
56.39000	176.000
56.40500	180.000
56.42000	190.000
56.43500	168.000
56.45000	168.000
56.46500	194.000
56.48000	168.000
56.49500	166.000
56.51000	190.000
56.52500	198.000
56.54000	199.000
56.55500	200.000
56.57000	187.000
56.58500	180.000
56.60000	190.000
56.61500	179.000
56.63000	189.000
56.64500	183.000
56.66000	159.000
56.67500	181.000
56.69000	166.000
56.70500	166.000
56.72000	157.000
56.73500	174.000
56.75000	212.000
56.76500	202.000
56.78000	193.000
56.79500	178.000
56.81000	171.000
56.82500	173.000
56.84000	181.000
56.85500	178.000
56.87000	175.000
56.88500	176.000
56.90000	174.000
56.91500	175.000
56.93000	186.000
56.94500	198.000
56.96000	192.000
56.97500	186.000
56.99000	172.000
57.00500	176.000
57.02000	177.000
57.03500	182.000
57.05000	179.000
57.06500	168.000
57.08000	183.000
57.09500	183.000
57.11000	200.000
57.12500	166.000
57.14000	171.000
57.15500	184.000
57.17000	176.000
57.18500	169.000
57.20000	170.000
57.21500	177.000
57.23000	175.000
57.24500	163.000
57.26000	175.000
57.27500	176.000
57.29000	176.000
57.30500	169.000
57.32000	172.000
57.33500	178.000
57.35000	184.000
57.36500	162.000
57.38000	175.000
57.39500	205.000
57.41000	187.000
57.42500	185.000
57.44000	179.000
57.45500	184.000
57.47000	193.000
57.48500	191.000
57.50000	186.000
57.51500	203.000
57.53000	191.000
57.54500	193.000
57.56000	193.000
57.57500	197.000
57.59000	196.000
57.60500	186.000
57.62000	179.000
57.63500	194.000
57.65000	179.000
57.66500	216.000
57.68000	198.000
57.69500	180.000
57.71000	174.000
57.72500	192.000
57.74000	186.000
57.75500	191.000
57.77000	193.000
57.78500	198.000
57.80000	196.000
57.81500	199.000
57.83000	192.000
57.84500	191.000
57.86000	192.000
57.87500	176.000
57.89000	194.000
57.90500	192.000
57.92000	175.000
57.93500	214.000
57.95000	191.000
57.96500	185.000
57.98000	188.000
57.99500	193.000
58.01000	163.000
58.02500	196.000
58.04000	197.000
58.05500	210.000
58.07000	186.000
58.08500	193.000
58.10000	171.000
58.11500	202.000
58.13000	219.000
58.14500	188.000
58.16000	201.000
58.17500	195.000
58.19000	194.000
58.20500	199.000
58.22000	220.000
58.23500	203.000
58.25000	188.000
58.26500	191.000
58.28000	188.000
58.29500	188.000
58.31000	164.000
58.32500	173.000
58.34000	189.000
58.35500	197.000
58.37000	195.000
58.38500	189.000
58.40000	171.000
58.41500	166.000
58.43000	189.000
58.44500	188.000
58.46000	185.000
58.47500	202.000
58.49000	210.000
58.50500	202.000
58.52000	200.000
58.53500	195.000
58.55000	186.000
58.56500	176.000
58.58000	174.000
58.59500	182.000
58.61000	171.000
58.62500	190.000
58.64000	170.000
58.65500	185.000
58.67000	181.000
58.68500	190.000
58.70000	178.000
58.71500	172.000
58.73000	181.000
58.74500	178.000
58.76000	170.000
58.77500	184.000
58.79000	174.000
58.80500	163.000
58.82000	186.000
58.83500	164.000
58.85000	173.000
58.86500	160.000
58.88000	167.000
58.89500	149.000
58.91000	169.000
58.92500	166.000
58.94000	163.000
58.95500	175.000
58.97000	188.000
58.98500	172.000
59.00000	159.000
59.01500	161.000
59.03000	167.000
59.04500	165.000
59.06000	201.000
59.07500	167.000
59.09000	163.000
59.10500	159.000
59.12000	149.000
59.13500	166.000
59.15000	172.000
59.16500	170.000
59.18000	161.000
59.19500	171.000
59.21000	149.000
59.22500	174.000
59.24000	158.000
59.25500	158.000
59.27000	163.000
59.28500	154.000
59.30000	166.000
59.31500	176.000
59.33000	157.000
59.34500	165.000
59.36000	176.000
59.37500	149.000
59.39000	171.000
59.40500	166.000
59.42000	168.000
59.43500	160.000
59.45000	171.000
59.46500	168.000
59.48000	181.000
59.49500	176.000
59.51000	152.000
59.52500	166.000
59.54000	161.000
59.55500	163.000
59.57000	167.000
59.58500	169.000
59.60000	148.000
59.61500	162.000
59.63000	146.000
59.64500	142.000
59.66000	167.000
59.67500	155.000
59.69000	155.000
59.70500	156.000
59.72000	159.000
59.73500	156.000
59.75000	144.000
59.76500	185.000
59.78000	174.000
59.79500	164.000
59.81000	158.000
59.82500	164.000
59.84000	179.000
59.85500	167.000
59.87000	164.000
59.88500	165.000
59.90000	194.000
59.91500	175.000
59.93000	184.000
59.94500	163.000
59.96000	163.000
59.97500	167.000
59.99000	177.000
60.00500	138.000
60.02000	141.000
60.03500	159.000
60.05000	163.000
60.06500	160.000
60.08000	148.000
60.09500	161.000
60.11000	169.000
60.12500	162.000
60.14000	165.000
60.15500	154.000
60.17000	154.000
60.18500	170.000
60.20000	165.000
60.21500	153.000
60.23000	162.000
60.24500	154.000
60.26000	165.000
60.27500	156.000
60.29000	161.000
60.30500	148.000
60.32000	156.000
60.33500	144.000
60.35000	154.000
60.36500	165.000
60.38000	164.000
60.39500	160.000
60.41000	148.000
60.42500	145.000
60.44000	151.000
60.45500	159.000
60.47000	163.000
60.48500	171.000
60.50000	162.000
60.51500	182.000
60.53000	170.000
60.54500	154.000
60.56000	182.000
60.57500	165.000
60.59000	166.000
60.60500	144.000
60.62000	148.000
60.63500	171.000
60.65000	185.000
60.66500	151.000
60.68000	158.000
60.69500	157.000
60.71000	158.000
60.72500	154.000
60.74000	147.000
60.75500	147.000
60.77000	133.000
60.78500	145.000
60.80000	147.000
60.81500	158.000
60.83000	142.000
60.84500	160.000
60.86000	150.000
60.87500	147.000
60.89000	141.000
60.90500	148.000
60.92000	143.000
60.93500	155.000
60.95000	147.000
60.96500	152.000
60.98000	150.000
60.99500	141.000
61.01000	144.000
61.02500	144.000
61.04000	143.000
61.05500	148.000
61.07000	156.000
61.08500	173.000
61.10000	177.000
61.11500	163.000
61.13000	158.000
61.14500	166.000
61.16000	157.000
61.17500	154.000
61.19000	148.000
61.20500	142.000
61.22000	138.000
61.23500	154.000
61.25000	139.000
61.26500	153.000
61.28000	153.000
61.29500	154.000
61.31000	139.000
61.32500	154.000
61.34000	138.000
61.35500	135.000
61.37000	135.000
61.38500	142.000
61.40000	138.000
61.41500	163.000
61.43000	167.000
61.44500	159.000
61.46000	151.000
61.47500	163.000
61.49000	158.000
61.50500	153.000
61.52000	146.000
61.53500	143.000
61.55000	146.000
61.56500	145.000
61.58000	136.000
61.59500	145.000
61.61000	138.000
61.62500	164.000
61.64000	172.000
61.65500	148.000
61.67000	145.000
61.68500	140.000
61.70000	146.000
61.71500	149.000
61.73000	144.000
61.74500	148.000
61.76000	149.000
61.77500	160.000
61.79000	146.000
61.80500	164.000
61.82000	162.000
61.83500	148.000
61.85000	145.000
61.86500	160.000
61.88000	151.000
61.89500	150.000
61.91000	151.000
61.92500	149.000
61.94000	141.000
61.95500	148.000
61.97000	142.000
61.98500	156.000
