2.00000 5.000
2.01500 4.000
2.03000 2.000
2.04500 3.000
2.06000 1.000
2.07500 1.000
2.09000 4.000
2.10500 2.000
2.12000 1.000
2.13500 1.000
2.15000 1.000
2.16500 4.000
2.18000 4.000
2.19500 1.000
2.21000 0.000
2.22500 1.000
2.24000 1.000
2.25500 2.000
2.27000 1.000
2.28500 2.000
2.30000 3.000
2.31500 3.000
2.33000 1.000
2.34500 2.000
2.36000 1.000
2.37500 0.000
2.39000 2.000
2.40500 1.000
2.42000 2.000
2.43500 5.000
2.45000 4.000
2.46500 4.000
2.48000 0.000
2.49500 1.000
2.51000 4.000
2.52500 5.000
2.54000 3.000
2.55500 4.000
2.57000 3.000
2.58500 3.000
2.60000 2.000
2.61500 1.000
2.63000 1.000
2.64500 1.000
2.66000 3.000
2.67500 2.000
2.69000 3.000
2.70500 2.000
2.72000 3.000
2.73500 8.000
2.75000 13.000
2.76500 13.000
2.78000 20.000
2.79500 30.000
2.81000 29.000
2.82500 34.000
2.84000 35.000
2.85500 27.000
2.87000 37.000
2.88500 53.000
2.90000 76.000
2.91500 77.000
2.93000 78.000
2.94500 76.000
2.96000 95.000
2.97500 104.000
2.99000 100.000
3.00500 116.000
3.02000 120.000
3.03500 114.000
3.05000 111.000
3.06500 119.000
3.08000 115.000
3.09500 108.000
3.11000 111.000
3.12500 113.000
3.14000 125.000
3.15500 130.000
3.17000 109.000
3.18500 102.000
3.20000 120.000
3.21500 132.000
3.23000 141.000
3.24500 146.000
3.26000 122.000
3.27500 139.000
3.29000 144.000
3.30500 132.000
3.32000 137.000
3.33500 131.000
3.35000 131.000
3.36500 144.000
3.38000 146.000
3.39500 134.000
3.41000 139.000
3.42500 137.000
3.44000 134.000
3.45500 139.000
3.47000 140.000
3.48500 147.000
3.50000 137.000
3.51500 142.000
3.53000 160.000
3.54500 167.000
3.56000 168.000
3.57500 175.000
3.59000 177.000
3.60500 174.000
3.62000 169.000
3.63500 172.000
3.65000 158.000
3.66500 150.000
3.68000 135.000
3.69500 155.000
3.71000 167.000
3.72500 173.000
3.74000 163.000
3.75500 165.000
3.77000 175.000
3.78500 174.000
3.80000 175.000
3.81500 168.000
3.83000 173.000
3.84500 188.000
3.86000 173.000
3.87500 163.000
3.89000 175.000
3.90500 181.000
3.92000 183.000
3.93500 165.000
3.95000 177.000
3.96500 194.000
3.98000 170.000
3.99500 163.000
4.01000 169.000
4.02500 182.000
4.04000 188.000
4.05500 188.000
4.07000 201.000
4.08500 205.000
4.10000 224.000
4.11500 188.000
4.13000 183.000
4.14500 184.000
4.16000 187.000
4.17500 204.000
4.19000 194.000
4.20500 175.000
4.22000 217.000
4.23500 218.000
4.25000 204.000
4.26500 214.000
4.28000 204.000
4.29500 222.000
4.31000 219.000
4.32500 211.000
4.34000 198.000
4.35500 207.000
4.37000 216.000
4.38500 198.000
4.40000 190.000
4.41500 216.000
4.43000 212.000
4.44500 218.000
4.46000 227.000
4.47500 217.000
4.49000 213.000
4.50500 197.000
4.52000 211.000
4.53500 206.000
4.55000 226.000
4.56500 215.000
4.58000 218.000
4.59500 231.000
4.61000 231.000
4.62500 221.000
4.64000 233.000
4.65500 226.000
4.67000 229.000
4.68500 215.000
4.70000 226.000
4.71500 232.000
4.73000 222.000
4.74500 222.000
4.76000 220.000
4.77500 229.000
4.79000 234.000
4.80500 226.000
4.82000 236.000
4.83500 236.000
4.85000 213.000
4.86500 222.000
4.88000 230.000
4.89500 220.000
4.91000 231.000
4.92500 234.000
4.94000 230.000
4.95500 239.000
4.97000 228.000
4.98500 242.000
5.00000 222.000
5.01500 237.000
5.03000 240.000
5.04500 219.000
5.06000 247.000
5.07500 230.000
5.09000 221.000
5.10500 218.000
5.12000 243.000
5.13500 254.000
5.15000 263.000
5.16500 260.000
5.18000 234.000
5.19500 227.000
5.21000 234.000
5.22500 227.000
5.24000 245.000
5.25500 235.000
5.27000 251.000
5.28500 269.000
5.30000 252.000
5.31500 252.000
5.33000 235.000
5.34500 245.000
5.36000 245.000
5.37500 239.000
5.39000 244.000
5.40500 255.000
5.42000 246.000
5.43500 245.000
5.45000 229.000
5.46500 260.000
5.48000 260.000
5.49500 267.000
5.51000 273.000
5.52500 246.000
5.54000 259.000
5.55500 235.000
5.57000 238.000
5.58500 245.000
5.60000 257.000
5.61500 242.000
5.63000 248.000
5.64500 256.000
5.66000 265.000
5.67500 263.000
5.69000 261.000
5.70500 253.000
5.72000 260.000
5.73500 254.000
5.75000 224.000
5.76500 267.000
5.78000 257.000
5.79500 276.000
5.81000 275.000
5.82500 273.000
5.84000 243.000
5.85500 238.000
5.87000 269.000
5.88500 288.000
5.90000 301.000
5.91500 282.000
5.93000 275.000
5.94500 238.000
5.96000 261.000
5.97500 276.000
5.99000 252.000
6.00500 263.000
6.02000 266.000
6.03500 269.000
6.05000 262.000
6.06500 268.000
6.08000 275.000
6.09500 280.000
6.11000 275.000
6.12500 257.000
6.14000 280.000
6.15500 276.000
6.17000 276.000
6.18500 281.000
6.20000 270.000
6.21500 291.000
6.23000 272.000
6.24500 263.000
6.26000 246.000
6.27500 261.000
6.29000 261.000
6.30500 291.000
6.32000 289.000
6.33500 268.000
6.35000 266.000
6.36500 267.000
6.38000 265.000
6.39500 282.000
6.41000 278.000
6.42500 262.000
6.44000 283.000
6.45500 258.000
6.47000 251.000
6.48500 313.000
6.50000 276.000
6.51500 273.000
6.53000 251.000
6.54500 278.000
6.56000 301.000
6.57500 278.000
6.59000 288.000
6.60500 271.000
6.62000 264.000
6.63500 284.000
6.65000 296.000
6.66500 287.000
6.68000 267.000
6.69500 285.000
6.71000 256.000
6.72500 288.000
6.74000 281.000
6.75500 279.000
6.77000 293.000
6.78500 285.000
6.80000 269.000
6.81500 293.000
6.83000 261.000
6.84500 283.000
6.86000 278.000
6.87500 288.000
6.89000 283.000
6.90500 297.000
6.92000 289.000
6.93500 295.000
6.95000 295.000
6.96500 273.000
6.98000 285.000
6.99500 282.000
7.01000 278.000
7.02500 289.000
7.04000 270.000
7.05500 285.000
7.07000 282.000
7.08500 285.000
7.10000 263.000
7.11500 290.000
7.13000 305.000
7.14500 293.000
7.16000 290.000
7.17500 307.000
7.19000 304.000
7.20500 291.000
7.22000 278.000
7.23500 273.000
7.25000 271.000
7.26500 293.000
7.28000 300.000
7.29500 262.000
7.31000 289.000
7.32500 282.000
7.34000 286.000
7.35500 306.000
7.37000 309.000
7.38500 306.000
7.40000 290.000
7.41500 300.000
7.43000 314.000
7.44500 288.000
7.46000 280.000
7.47500 306.000
7.49000 297.000
7.50500 299.000
7.52000 277.000
7.53500 298.000
7.55000 278.000
7.56500 299.000
7.58000 303.000
7.59500 279.000
7.61000 308.000
7.62500 299.000
7.64000 295.000
7.65500 292.000
7.67000 295.000
7.68500 298.000
7.70000 299.000
7.71500 317.000
7.73000 309.000
7.74500 286.000
7.76000 301.000
7.77500 308.000
7.79000 312.000
7.80500 313.000
7.82000 296.000
7.83500 299.000
7.85000 276.000
7.86500 278.000
7.88000 287.000
7.89500 287.000
7.91000 308.000
7.92500 287.000
7.94000 290.000
7.95500 341.000
7.97000 320.000
7.98500 298.000
8.00000 277.000
8.01500 304.000
8.03000 311.000
8.04500 275.000
8.06000 315.000
8.07500 327.000
8.09000 286.000
8.10500 297.000
8.12000 293.000
8.13500 314.000
8.15000 306.000
8.16500 295.000
8.18000 327.000
8.19500 310.000
8.21000 291.000
8.22500 285.000
8.24000 287.000
8.25500 304.000
8.27000 316.000
8.28500 296.000
8.30000 302.000
8.31500 295.000
8.33000 288.000
8.34500 305.000
8.36000 315.000
8.37500 294.000
8.39000 287.000
8.40500 282.000
8.42000 300.000
8.43500 306.000
8.45000 320.000
8.46500 303.000
8.48000 288.000
8.49500 310.000
8.51000 292.000
8.52500 294.000
8.54000 306.000
8.55500 306.000
8.57000 294.000
8.58500 307.000
8.60000 286.000
8.61500 304.000
8.63000 301.000
8.64500 299.000
8.66000 293.000
8.67500 334.000
8.69000 304.000
8.70500 284.000
8.72000 301.000
8.73500 312.000
8.75000 330.000
8.76500 331.000
8.78000 332.000
8.79500 324.000
8.81000 309.000
8.82500 296.000
8.84000 296.000
8.85500 321.000
8.87000 324.000
8.88500 297.000
8.90000 304.000
8.91500 312.000
8.93000 318.000
8.94500 309.000
8.96000 291.000
8.97500 311.000
8.99000 318.000
9.00500 312.000
9.02000 294.000
9.03500 301.000
9.05000 339.000
9.06500 315.000
9.08000 319.000
9.09500 313.000
9.11000 293.000
9.12500 322.000
9.14000 305.000
9.15500 271.000
9.17000 312.000
9.18500 312.000
9.20000 293.000
9.21500 320.000
9.23000 289.000
9.24500 294.000
9.26000 289.000
9.27500 324.000
9.29000 302.000
9.30500 340.000
9.32000 333.000
9.33500 333.000
9.35000 317.000
9.36500 299.000
9.38000 313.000
9.39500 340.000
9.41000 336.000
9.42500 302.000
9.44000 313.000
9.45500 298.000
9.47000 314.000
9.48500 300.000
9.50000 305.000
9.51500 297.000
9.53000 331.000
9.54500 314.000
9.56000 311.000
9.57500 308.000
9.59000 332.000
9.60500 312.000
9.62000 313.000
9.63500 313.000
9.65000 294.000
9.66500 323.000
9.68000 313.000
9.69500 305.000
9.71000 302.000
9.72500 313.000
9.74000 311.000
9.75500 307.000
9.77000 269.000
9.78500 282.000
9.80000 303.000
9.81500 308.000
9.83000 309.000
9.84500 326.000
9.86000 321.000
9.87500 297.000
9.89000 309.000
9.90500 316.000
9.92000 279.000
9.93500 276.000
9.95000 301.000
9.96500 331.000
9.98000 306.000
9.99500 333.000
10.01000 336.000
10.02500 322.000
10.04000 319.000
10.05500 302.000
10.07000 291.000
10.08500 320.000
10.10000 333.000
10.11500 289.000
10.13000 308.000
10.14500 296.000
10.16000 312.000
10.17500 316.000
10.19000 319.000
10.20500 331.000
10.22000 302.000
10.23500 321.000
10.25000 326.000
10.26500 306.000
10.28000 281.000
10.29500 311.000
10.31000 302.000
10.32500 324.000
10.34000 314.000
10.35500 309.000
10.37000 275.000
10.38500 320.000
10.40000 358.000
10.41500 293.000
10.43000 304.000
10.44500 322.000
10.46000 310.000
10.47500 299.000
10.49000 315.000
10.50500 305.000
10.52000 331.000
10.53500 324.000
10.55000 309.000
10.56500 316.000
10.58000 307.000
10.59500 300.000
10.61000 299.000
10.62500 310.000
10.64000 316.000
10.65500 314.000
10.67000 295.000
10.68500 295.000
10.70000 318.000
10.71500 328.000
10.73000 333.000
10.74500 319.000
10.76000 347.000
10.77500 342.000
10.79000 323.000
10.80500 339.000
10.82000 288.000
10.83500 294.000
10.85000 306.000
10.86500 315.000
10.88000 320.000
10.89500 328.000
10.91000 330.000
10.92500 306.000
10.94000 306.000
10.95500 328.000
10.97000 344.000
10.98500 338.000
11.00000 318.000
11.01500 301.000
11.03000 298.000
11.04500 327.000
11.06000 324.000
11.07500 322.000
11.09000 307.000
11.10500 314.000
11.12000 319.000
11.13500 301.000
11.15000 301.000
11.16500 317.000
11.18000 322.000
11.19500 310.000
11.21000 325.000
11.22500 324.000
11.24000 312.000
11.25500 313.000
11.27000 307.000
11.28500 306.000
11.30000 318.000
11.31500 324.000
11.33000 329.000
11.34500 312.000
11.36000 340.000
11.37500 337.000
11.39000 316.000
11.40500 301.000
11.42000 298.000
11.43500 335.000
11.45000 295.000
11.46500 306.000
11.48000 314.000
11.49500 323.000
11.51000 340.000
11.52500 326.000
11.54000 327.000
11.55500 338.000
11.57000 323.000
11.58500 331.000
11.60000 334.000
11.61500 324.000
11.63000 308.000
11.64500 291.000
11.66000 322.000
11.67500 333.000
11.69000 328.000
11.70500 322.000
11.72000 323.000
11.73500 320.000
11.75000 305.000
11.76500 300.000
11.78000 308.000
11.79500 300.000
11.81000 325.000
11.82500 320.000
11.84000 326.000
11.85500 351.000
11.87000 317.000
11.88500 315.000
11.90000 321.000
11.91500 294.000
11.93000 302.000
11.94500 299.000
11.96000 308.000
11.97500 343.000
11.99000 328.000
12.00500 297.000
12.02000 306.000
12.03500 321.000
12.05000 334.000
12.06500 331.000
12.08000 327.000
12.09500 341.000
12.11000 368.000
12.12500 372.000
12.14000 369.000
12.15500 427.000
12.17000 423.000
12.18500 408.000
12.20000 457.000
12.21500 537.000
12.23000 536.000
12.24500 475.000
12.26000 458.000
12.27500 467.000
12.29000 431.000
12.30500 404.000
12.32000 375.000
12.33500 348.000
12.35000 324.000
12.36500 324.000
12.38000 300.000
12.39500 298.000
12.41000 324.000
12.42500 306.000
12.44000 326.000
12.45500 344.000
12.47000 328.000
12.48500 324.000
12.50000 312.000
12.51500 335.000
12.53000 326.000
12.54500 316.000
12.56000 319.000
12.57500 306.000
12.59000 313.000
12.60500 315.000
12.62000 326.000
12.63500 304.000
12.65000 310.000
12.66500 350.000
12.68000 326.000
12.69500 318.000
12.71000 347.000
12.72500 332.000
12.74000 301.000
12.75500 351.000
12.77000 296.000
12.78500 337.000
12.80000 340.000
12.81500 346.000
12.83000 343.000
12.84500 329.000
12.86000 321.000
12.87500 334.000
12.89000 333.000
12.90500 346.000
12.92000 378.000
12.93500 389.000
12.95000 412.000
12.96500 453.000
12.98000 461.000
12.99500 480.000
13.01000 508.000
13.02500 546.000
13.04000 644.000
13.05500 839.000
13.07000 1040.000
13.08500 1259.000
13.10000 1473.000
13.11500 1773.000
13.13000 2178.000
13.14500 2143.000
13.16000 1635.000
13.17500 1014.000
13.19000 611.000
13.20500 490.000
13.22000 421.000
13.23500 374.000
13.25000 372.000
13.26500 353.000
13.28000 341.000
13.29500 329.000
13.31000 312.000
13.32500 305.000
13.34000 318.000
13.35500 326.000
13.37000 366.000
13.38500 326.000
13.40000 367.000
13.41500 372.000
13.43000 372.000
13.44500 357.000
13.46000 378.000
13.47500 337.000
13.49000 345.000
13.50500 333.000
13.52000 327.000
13.53500 326.000
13.55000 326.000
13.56500 274.000
13.58000 286.000
13.59500 298.000
13.61000 329.000
13.62500 339.000
13.64000 320.000
13.65500 309.000
13.67000 323.000
13.68500 303.000
13.70000 346.000
13.71500 315.000
13.73000 315.000
13.74500 291.000
13.76000 313.000
13.77500 329.000
13.79000 322.000
13.80500 331.000
13.82000 339.000
13.83500 310.000
13.85000 302.000
13.86500 309.000
13.88000 329.000
13.89500 311.000
13.91000 317.000
13.92500 340.000
13.94000 324.000
13.95500 304.000
13.97000 316.000
13.98500 320.000
14.00000 339.000
14.01500 336.000
14.03000 317.000
14.04500 301.000
14.06000 293.000
14.07500 322.000
14.09000 327.000
14.10500 341.000
14.12000 311.000
14.13500 319.000
14.15000 347.000
14.16500 300.000
14.18000 331.000
14.19500 323.000
14.21000 309.000
14.22500 308.000
14.24000 321.000
14.25500 336.000
14.27000 326.000
14.28500 319.000
14.30000 317.000
14.31500 329.000
14.33000 291.000
14.34500 315.000
14.36000 308.000
14.37500 338.000
14.39000 340.000
14.40500 317.000
14.42000 312.000
14.43500 306.000
14.45000 315.000
14.46500 346.000
14.48000 310.000
14.49500 300.000
14.51000 331.000
14.52500 322.000
14.54000 309.000
14.55500 339.000
14.57000 322.000
14.58500 329.000
14.60000 306.000
14.61500 321.000
14.63000 327.000
14.64500 326.000
14.66000 329.000
14.67500 361.000
14.69000 349.000
14.70500 360.000
14.72000 372.000
14.73500 380.000
14.75000 433.000
14.76500 446.000
14.78000 428.000
14.79500 479.000
14.81000 559.000
14.82500 678.000
14.84000 788.000
14.85500 950.000
14.87000 1274.000
14.88500 1739.000
14.90000 1905.000
14.91500 1669.000
14.93000 1140.000
14.94500 740.000
14.96000 535.000
14.97500 447.000
14.99000 408.000
15.00500 377.000
15.02000 355.000
15.03500 335.000
15.05000 372.000
15.06500 368.000
15.08000 408.000
15.09500 379.000
15.11000 323.000
15.12500 357.000
15.14000 323.000
15.15500 299.000
15.17000 312.000
15.18500 318.000
15.20000 321.000
15.21500 316.000
15.23000 326.000
15.24500 322.000
15.26000 320.000
15.27500 314.000
15.29000 321.000
15.30500 319.000
15.32000 325.000
15.33500 337.000
15.35000 345.000
15.36500 332.000
15.38000 325.000
15.39500 312.000
15.41000 347.000
15.42500 333.000
15.44000 338.000
15.45500 341.000
15.47000 284.000
15.48500 303.000
15.50000 290.000
15.51500 291.000
15.53000 324.000
15.54500 330.000
15.56000 313.000
15.57500 313.000
15.59000 326.000
15.60500 312.000
15.62000 309.000
15.63500 312.000
15.65000 318.000
15.66500 338.000
15.68000 310.000
15.69500 333.000
15.71000 335.000
15.72500 328.000
15.74000 333.000
15.75500 303.000
15.77000 304.000
15.78500 297.000
15.80000 313.000
15.81500 317.000
15.83000 311.000
15.84500 322.000
15.86000 339.000
15.87500 321.000
15.89000 315.000
15.90500 307.000
15.92000 301.000
15.93500 315.000
15.95000 322.000
15.96500 311.000
15.98000 329.000
15.99500 315.000
16.01000 303.000
16.02500 337.000
16.04000 334.000
16.05500 346.000
16.07000 331.000
16.08500 354.000
16.10000 327.000
16.11500 294.000
16.13000 324.000
16.14500 322.000
16.16000 325.000
16.17500 336.000
16.19000 335.000
16.20500 315.000
16.22000 325.000
16.23500 290.000
16.25000 321.000
16.26500 301.000
16.28000 321.000
16.29500 339.000
16.31000 332.000
16.32500 316.000
16.34000 301.000
16.35500 327.000
16.37000 321.000
16.38500 321.000
16.40000 320.000
16.41500 340.000
16.43000 335.000
16.44500 311.000
16.46000 346.000
16.47500 361.000
16.49000 357.000
16.50500 345.000
16.52000 344.000
16.53500 340.000
16.55000 328.000
16.56500 338.000
16.58000 324.000
16.59500 297.000
16.61000 328.000
16.62500 320.000
16.64000 324.000
16.65500 335.000
16.67000 318.000
16.68500 319.000
16.70000 311.000
16.71500 312.000
16.73000 331.000
16.74500 328.000
16.76000 363.000
16.77500 325.000
16.79000 327.000
16.80500 317.000
16.82000 311.000
16.83500 329.000
16.85000 349.000
16.86500 341.000
16.88000 336.000
16.89500 339.000
16.91000 338.000
16.92500 335.000
16.94000 361.000
16.95500 342.000
16.97000 319.000
16.98500 337.000
17.00000 328.000
17.01500 340.000
17.03000 327.000
17.04500 330.000
17.06000 354.000
17.07500 334.000
17.09000 323.000
17.10500 330.000
17.12000 349.000
17.13500 333.000
17.15000 338.000
17.16500 342.000
17.18000 343.000
17.19500 340.000
17.21000 343.000
17.22500 331.000
17.24000 350.000
17.25500 337.000
17.27000 360.000
17.28500 355.000
17.30000 338.000
17.31500 406.000
17.33000 385.000
17.34500 422.000
17.36000 464.000
17.37500 473.000
17.39000 585.000
17.40500 671.000
17.42000 754.000
17.43500 953.000
17.45000 1260.000
17.46500 1645.000
17.48000 1872.000
17.49500 1659.000
17.51000 1202.000
17.52500 770.000
17.54000 639.000
17.55500 680.000
17.57000 720.000
17.58500 865.000
17.60000 1026.000
17.61500 1315.000
17.63000 1787.000
17.64500 2360.000
17.66000 3219.000
17.67500 4486.000
17.69000 6170.000
17.70500 7781.000
17.72000 7930.000
17.73500 5981.000
17.75000 3456.000
17.76500 1920.000
17.78000 1184.000
17.79500 1007.000
17.81000 1038.000
17.82500 1184.000
17.84000 1428.000
17.85500 1873.000
17.87000 2514.000
17.88500 3513.000
17.90000 4382.000
17.91500 4102.000
17.93000 2871.000
17.94500 1566.000
17.96000 845.000
17.97500 595.000
17.99000 476.000
18.00500 434.000
18.02000 427.000
18.03500 391.000
18.05000 439.000
18.06500 465.000
18.08000 524.000
18.09500 537.000
18.11000 524.000
18.12500 449.000
18.14000 405.000
18.15500 383.000
18.17000 380.000
18.18500 389.000
18.20000 345.000
18.21500 329.000
18.23000 315.000
18.24500 345.000
18.26000 331.000
18.27500 364.000
18.29000 333.000
18.30500 326.000
18.32000 305.000
18.33500 324.000
18.35000 341.000
18.36500 336.000
18.38000 333.000
18.39500 342.000
18.41000 351.000
18.42500 328.000
18.44000 345.000
18.45500 307.000
18.47000 307.000
18.48500 328.000
18.50000 346.000
18.51500 338.000
18.53000 363.000
18.54500 346.000
18.56000 322.000
18.57500 337.000
18.59000 338.000
18.60500 311.000
18.62000 333.000
18.63500 343.000
18.65000 342.000
18.66500 347.000
18.68000 309.000
18.69500 303.000
18.71000 312.000
18.72500 348.000
18.74000 363.000
18.75500 358.000
18.77000 319.000
18.78500 331.000
18.80000 347.000
18.81500 335.000
18.83000 320.000
18.84500 343.000
18.86000 343.000
18.87500 348.000
18.89000 352.000
18.90500 334.000
18.92000 352.000
18.93500 327.000
18.95000 345.000
18.96500 315.000
18.98000 333.000
18.99500 326.000
19.01000 344.000
19.02500 335.000
19.04000 330.000
19.05500 338.000
19.07000 342.000
19.08500 336.000
19.10000 341.000
19.11500 357.000
19.13000 338.000
19.14500 324.000
19.16000 328.000
19.17500 335.000
19.19000 351.000
19.20500 338.000
19.22000 319.000
19.23500 330.000
19.25000 331.000
19.26500 322.000
19.28000 308.000
19.29500 328.000
19.31000 344.000
19.32500 346.000
19.34000 362.000
19.35500 336.000
19.37000 347.000
19.38500 367.000
19.40000 358.000
19.41500 332.000
19.43000 350.000
19.44500 387.000
19.46000 383.000
19.47500 344.000
19.49000 344.000
19.50500 356.000
19.52000 351.000
19.53500 332.000
19.55000 353.000
19.56500 347.000
19.58000 378.000
19.59500 376.000
19.61000 379.000
19.62500 368.000
19.64000 361.000
19.65500 341.000
19.67000 342.000
19.68500 323.000
19.70000 293.000
19.71500 352.000
19.73000 357.000
19.74500 326.000
19.76000 332.000
19.77500 321.000
19.79000 337.000
19.80500 345.000
19.82000 338.000
19.83500 332.000
19.85000 350.000
19.86500 353.000
19.88000 333.000
19.89500 338.000
19.91000 341.000
19.92500 327.000
19.94000 332.000
19.95500 330.000
19.97000 336.000
19.98500 326.000
20.00000 347.000
20.01500 350.000
20.03000 341.000
20.04500 351.000
20.06000 342.000
20.07500 359.000
20.09000 334.000
20.10500 317.000
20.12000 293.000
20.13500 334.000
20.15000 371.000
20.16500 354.000
20.18000 335.000
20.19500 358.000
20.21000 323.000
20.22500 339.000
20.24000 324.000
20.25500 315.000
20.27000 332.000
20.28500 334.000
20.30000 348.000
20.31500 348.000
20.33000 346.000
20.34500 333.000
20.36000 353.000
20.37500 339.000
20.39000 326.000
20.40500 346.000
20.42000 339.000
20.43500 332.000
20.45000 341.000
20.46500 353.000
20.48000 367.000
20.49500 368.000
20.51000 334.000
20.52500 371.000
20.54000 344.000
20.55500 344.000
20.57000 332.000
20.58500 355.000
20.60000 337.000
20.61500 334.000
20.63000 314.000
20.64500 337.000
20.66000 325.000
20.67500 332.000
20.69000 361.000
20.70500 336.000
20.72000 354.000
20.73500 366.000
20.75000 358.000
20.76500 356.000
20.78000 359.000
20.79500 349.000
20.81000 346.000
20.82500 362.000
20.84000 391.000
20.85500 378.000
20.87000 354.000
20.88500 365.000
20.90000 360.000
20.91500 333.000
20.93000 313.000
20.94500 353.000
20.96000 369.000
20.97500 356.000
20.99000 342.000
21.00500 356.000
21.02000 338.000
21.03500 367.000
21.05000 338.000
21.06500 358.000
21.08000 365.000
21.09500 347.000
21.11000 337.000
21.12500 320.000
21.14000 329.000
21.15500 356.000
21.17000 361.000
21.18500 347.000
21.20000 368.000
21.21500 326.000
21.23000 335.000
21.24500 325.000
21.26000 330.000
21.27500 348.000
21.29000 362.000
21.30500 377.000
21.32000 396.000
21.33500 351.000
21.35000 372.000
21.36500 349.000
21.38000 362.000
21.39500 352.000
21.41000 388.000
21.42500 393.000
21.44000 420.000
21.45500 460.000
21.47000 524.000
21.48500 573.000
21.50000 695.000
21.51500 754.000
21.53000 796.000
21.54500 819.000
21.56000 852.000
21.57500 1054.000
21.59000 1278.000
21.60500 1763.000
21.62000 2293.000
21.63500 3216.000
21.65000 4522.000
21.66500 5704.000
21.68000 5727.000
21.69500 4487.000
21.71000 2929.000
21.72500 1652.000
21.74000 1013.000
21.75500 738.000
21.77000 583.000
21.78500 515.000
21.80000 467.000
21.81500 436.000
21.83000 449.000
21.84500 439.000
21.86000 411.000
21.87500 418.000
21.89000 447.000
21.90500 478.000
21.92000 500.000
21.93500 508.000
21.95000 572.000
21.96500 675.000
21.98000 808.000
21.99500 1068.000
22.01000 1414.000
22.02500 1818.000
22.04000 2505.000
22.05500 3501.000
22.07000 4336.000
22.08500 4523.000
22.10000 3704.000
22.11500 2404.000
22.13000 1508.000
22.14500 927.000
22.16000 691.000
22.17500 581.000
22.19000 550.000
22.20500 487.000
22.22000 483.000
22.23500 444.000
22.25000 439.000
22.26500 424.000
22.28000 395.000
22.29500 369.000
22.31000 362.000
22.32500 354.000
22.34000 392.000
22.35500 379.000
22.37000 351.000
22.38500 368.000
22.40000 355.000
22.41500 335.000
22.43000 365.000
22.44500 367.000
22.46000 353.000
22.47500 359.000
22.49000 365.000
22.50500 343.000
22.52000 353.000
22.53500 361.000
22.55000 341.000
22.56500 359.000
22.58000 341.000
22.59500 340.000
22.61000 364.000
22.62500 395.000
22.64000 351.000
22.65500 346.000
22.67000 350.000
22.68500 338.000
22.70000 336.000
22.71500 349.000
22.73000 323.000
22.74500 335.000
22.76000 332.000
22.77500 387.000
22.79000 338.000
22.80500 348.000
22.82000 308.000
22.83500 334.000
22.85000 337.000
22.86500 336.000
22.88000 328.000
22.89500 344.000
22.91000 369.000
22.92500 358.000
22.94000 356.000
22.95500 364.000
22.97000 396.000
22.98500 365.000
23.00000 356.000
23.01500 384.000
23.03000 387.000
23.04500 390.000
23.06000 418.000
23.07500 373.000
23.09000 387.000
23.10500 358.000
23.12000 384.000
23.13500 353.000
23.15000 376.000
23.16500 360.000
23.18000 363.000
23.19500 351.000
23.21000 367.000
23.22500 339.000
23.24000 359.000
23.25500 342.000
23.27000 356.000
23.28500 343.000
23.30000 347.000
23.31500 328.000
23.33000 319.000
23.34500 322.000
23.36000 349.000
23.37500 350.000
23.39000 341.000
23.40500 330.000
23.42000 332.000
23.43500 336.000
23.45000 343.000
23.46500 331.000
23.48000 352.000
23.49500 385.000
23.51000 347.000
23.52500 354.000
23.54000 357.000
23.55500 327.000
23.57000 352.000
23.58500 338.000
23.60000 331.000
23.61500 327.000
23.63000 347.000
23.64500 330.000
23.66000 337.000
23.67500 349.000
23.69000 346.000
23.70500 344.000
23.72000 361.000
23.73500 375.000
23.75000 380.000
23.76500 369.000
23.78000 417.000
23.79500 414.000
23.81000 381.000
23.82500 358.000
23.84000 335.000
23.85500 359.000
23.87000 353.000
23.88500 333.000
23.90000 341.000
23.91500 370.000
23.93000 364.000
23.94500 334.000
23.96000 343.000
23.97500 349.000
23.99000 357.000
24.00500 339.000
24.02000 326.000
24.03500 360.000
24.05000 354.000
24.06500 322.000
24.08000 363.000
24.09500 351.000
24.11000 335.000
24.12500 342.000
24.14000 319.000
24.15500 334.000
24.17000 330.000
24.18500 321.000
24.20000 329.000
24.21500 332.000
24.23000 347.000
24.24500 322.000
24.26000 329.000
24.27500 344.000
24.29000 326.000
24.30500 339.000
24.32000 366.000
24.33500 384.000
24.35000 364.000
24.36500 348.000
24.38000 350.000
24.39500 330.000
24.41000 344.000
24.42500 326.000
24.44000 322.000
24.45500 354.000
24.47000 353.000
24.48500 326.000
24.50000 340.000
24.51500 327.000
24.53000 369.000
24.54500 346.000
24.56000 329.000
24.57500 336.000
24.59000 349.000
24.60500 318.000
24.62000 339.000
24.63500 371.000
24.65000 334.000
24.66500 314.000
24.68000 332.000
24.69500 346.000
24.71000 332.000
24.72500 349.000
24.74000 367.000
24.75500 366.000
24.77000 324.000
24.78500 343.000
24.80000 346.000
24.81500 353.000
24.83000 350.000
24.84500 341.000
24.86000 325.000
24.87500 309.000
24.89000 335.000
24.90500 346.000
24.92000 368.000
24.93500 368.000
24.95000 341.000
24.96500 354.000
24.98000 349.000
24.99500 352.000
25.01000 319.000
25.02500 348.000
25.04000 343.000
25.05500 352.000
25.07000 360.000
25.08500 382.000
25.10000 348.000
25.11500 353.000
25.13000 349.000
25.14500 359.000
25.16000 358.000
25.17500 368.000
25.19000 349.000
25.20500 337.000
25.22000 359.000
25.23500 362.000
25.25000 358.000
25.26500 335.000
25.28000 338.000
25.29500 350.000
25.31000 340.000
25.32500 387.000
25.34000 361.000
25.35500 376.000
25.37000 387.000
25.38500 385.000
25.40000 407.000
25.41500 434.000
25.43000 470.000
25.44500 532.000
25.46000 663.000
25.47500 750.000
25.49000 820.000
25.50500 743.000
25.52000 561.000
25.53500 480.000
25.55000 388.000
25.56500 376.000
25.58000 375.000
25.59500 356.000
25.61000 358.000
25.62500 390.000
25.64000 420.000
25.65500 413.000
25.67000 454.000
25.68500 531.000
25.70000 621.000
25.71500 814.000
25.73000 1072.000
25.74500 1436.000
25.76000 2032.000
25.77500 2936.000
25.79000 3830.000
25.80500 3800.000
25.82000 2884.000
25.83500 1830.000
25.85000 1050.000
25.86500 636.000
25.88000 547.000
25.89500 495.000
25.91000 432.000
25.92500 445.000
25.94000 419.000
25.95500 445.000
25.97000 443.000
25.98500 454.000
26.00000 510.000
26.01500 564.000
26.03000 564.000
26.04500 645.000
26.06000 777.000
26.07500 917.000
26.09000 1130.000
26.10500 1502.000
26.12000 2089.000
26.13500 2919.000
26.15000 4191.000
26.16500 6089.000
26.18000 8729.000
26.19500 11203.000
26.21000 11158.000
26.22500 8774.000
26.24000 5656.000
26.25500 3198.000
26.27000 1909.000
26.28500 1299.000
26.30000 1014.000
26.31500 893.000
26.33000 792.000
26.34500 735.000
26.36000 673.000
26.37500 658.000
26.39000 640.000
26.40500 687.000
26.42000 737.000
26.43500 883.000
26.45000 754.000
26.46500 626.000
26.48000 558.000
26.49500 495.000
26.51000 424.000
26.52500 412.000
26.54000 417.000
26.55500 412.000
26.57000 392.000
26.58500 366.000
26.60000 397.000
26.61500 386.000
26.63000 407.000
26.64500 406.000
26.66000 417.000
26.67500 421.000
26.69000 404.000
26.70500 367.000
26.72000 403.000
26.73500 374.000
26.75000 375.000
26.76500 355.000
26.78000 349.000
26.79500 344.000
26.81000 360.000
26.82500 366.000
26.84000 370.000
26.85500 354.000
26.87000 360.000
26.88500 361.000
26.90000 348.000
26.91500 360.000
26.93000 381.000
26.94500 409.000
26.96000 456.000
26.97500 466.000
26.99000 545.000
27.00500 620.000
27.02000 780.000
27.03500 978.000
27.05000 1334.000
27.06500 2103.000
27.08000 3217.000
27.09500 4465.000
27.11000 5018.000
27.12500 4143.000
27.14000 2715.000
27.15500 1572.000
27.17000 927.000
27.18500 678.000
27.20000 605.000
27.21500 593.000
27.23000 699.000
27.24500 812.000
27.26000 888.000
27.27500 825.000
27.29000 691.000
27.30500 577.000
27.32000 437.000
27.33500 386.000
27.35000 389.000
27.36500 382.000
27.38000 361.000
27.39500 352.000
27.41000 337.000
27.42500 350.000
27.44000 341.000
27.45500 319.000
27.47000 352.000
27.48500 362.000
27.50000 327.000
27.51500 330.000
27.53000 320.000
27.54500 347.000
27.56000 339.000
27.57500 312.000
27.59000 327.000
27.60500 317.000
27.62000 346.000
27.63500 343.000
27.65000 339.000
27.66500 330.000
27.68000 347.000
27.69500 346.000
27.71000 356.000
27.72500 379.000
27.74000 381.000
27.75500 382.000
27.77000 444.000
27.78500 450.000
27.80000 460.000
27.81500 478.000
27.83000 442.000
27.84500 446.000
27.86000 432.000
27.87500 366.000
27.89000 369.000
27.90500 342.000
27.92000 364.000
27.93500 353.000
27.95000 344.000
27.96500 394.000
27.98000 408.000
27.99500 430.000
28.01000 433.000
28.02500 431.000
28.04000 419.000
28.05500 402.000
28.07000 407.000
28.08500 429.000
28.10000 397.000
28.11500 407.000
28.13000 405.000
28.14500 356.000
28.16000 335.000
28.17500 333.000
28.19000 308.000
28.20500 314.000
28.22000 317.000
28.23500 333.000
28.25000 319.000
28.26500 319.000
28.28000 341.000
28.29500 333.000
28.31000 331.000
28.32500 306.000
28.34000 298.000
28.35500 317.000
28.37000 320.000
28.38500 353.000
28.40000 360.000
28.41500 382.000
28.43000 374.000
28.44500 382.000
28.46000 368.000
28.47500 405.000
28.49000 374.000
28.50500 359.000
28.52000 352.000
28.53500 363.000
28.55000 382.000
28.56500 349.000
28.58000 349.000
28.59500 354.000
28.61000 374.000
28.62500 384.000
28.64000 403.000
28.65500 416.000
28.67000 412.000
28.68500 443.000
28.70000 515.000
28.71500 642.000
28.73000 792.000
28.74500 952.000
28.76000 1301.000
28.77500 1787.000
28.79000 2476.000
28.80500 3535.000
28.82000 4787.000
28.83500 5392.000
28.85000 5068.000
28.86500 3704.000
28.88000 2356.000
28.89500 1412.000
28.91000 964.000
28.92500 710.000
28.94000 554.000
28.95500 498.000
28.97000 441.000
28.98500 433.000
29.00000 413.000
29.01500 445.000
29.03000 416.000
29.04500 430.000
29.06000 454.000
29.07500 415.000
29.09000 404.000
29.10500 347.000
29.12000 357.000
29.13500 302.000
29.15000 298.000
29.16500 355.000
29.18000 341.000
29.19500 341.000
29.21000 355.000
29.22500 329.000
29.24000 335.000
29.25500 340.000
29.27000 337.000
29.28500 301.000
29.30000 319.000
29.31500 336.000
29.33000 329.000
29.34500 299.000
29.36000 327.000
29.37500 302.000
29.39000 304.000
29.40500 299.000
29.42000 340.000
29.43500 341.000
29.45000 329.000
29.46500 319.000
29.48000 346.000
29.49500 345.000
29.51000 354.000
29.52500 331.000
29.54000 320.000
29.55500 337.000
29.57000 352.000
29.58500 337.000
29.60000 342.000
29.61500 347.000
29.63000 369.000
29.64500 377.000
29.66000 390.000
29.67500 429.000
29.69000 476.000
29.70500 554.000
29.72000 682.000
29.73500 908.000
29.75000 1171.000
29.76500 1575.000
29.78000 2233.000
29.79500 3205.000
29.81000 4268.000
29.82500 4970.000
29.84000 4744.000
29.85500 3715.000
29.87000 2351.000
29.88500 1470.000
29.90000 950.000
29.91500 744.000
29.93000 644.000
29.94500 512.000
29.96000 505.000
29.97500 467.000
29.99000 410.000
30.00500 394.000
30.02000 372.000
30.03500 357.000
30.05000 325.000
30.06500 341.000
30.08000 338.000
30.09500 346.000
30.11000 330.000
30.12500 365.000
30.14000 366.000
30.15500 368.000
30.17000 379.000
30.18500 357.000
30.20000 340.000
30.21500 357.000
30.23000 355.000
30.24500 339.000
30.26000 329.000
30.27500 390.000
30.29000 402.000
30.30500 439.000
30.32000 540.000
30.33500 632.000
30.35000 655.000
30.36500 562.000
30.38000 511.000
30.39500 433.000
30.41000 379.000
30.42500 357.000
30.44000 319.000
30.45500 309.000
30.47000 288.000
30.48500 274.000
30.50000 269.000
30.51500 302.000
30.53000 283.000
30.54500 302.000
30.56000 255.000
30.57500 298.000
30.59000 293.000
30.60500 279.000
30.62000 289.000
30.63500 308.000
30.65000 309.000
30.66500 263.000
30.68000 281.000
30.69500 282.000
30.71000 273.000
30.72500 321.000
30.74000 289.000
30.75500 269.000
30.77000 290.000
30.78500 298.000
30.80000 309.000
30.81500 306.000
30.83000 295.000
30.84500 311.000
30.86000 319.000
30.87500 301.000
30.89000 300.000
30.90500 310.000
30.92000 294.000
30.93500 283.000
30.95000 271.000
30.96500 287.000
30.98000 295.000
30.99500 305.000
31.01000 271.000
31.02500 286.000
31.04000 269.000
31.05500 266.000
31.07000 269.000
31.08500 290.000
31.10000 291.000
31.11500 282.000
31.13000 285.000
31.14500 317.000
31.16000 338.000
31.17500 327.000
31.19000 336.000
31.20500 350.000
31.22000 338.000
31.23500 313.000
31.25000 274.000
31.26500 290.000
31.28000 279.000
31.29500 280.000
31.31000 277.000
31.32500 287.000
31.34000 285.000
31.35500 265.000
31.37000 271.000
31.38500 260.000
31.40000 280.000
31.41500 286.000
31.43000 257.000
31.44500 260.000
31.46000 268.000
31.47500 252.000
31.49000 273.000
31.50500 271.000
31.52000 278.000
31.53500 274.000
31.55000 264.000
31.56500 276.000
31.58000 272.000
31.59500 255.000
31.61000 271.000
31.62500 293.000
31.64000 254.000
31.65500 280.000
31.67000 284.000
31.68500 288.000
31.70000 276.000
31.71500 255.000
31.73000 265.000
31.74500 257.000
31.76000 256.000
31.77500 309.000
31.79000 279.000
31.80500 267.000
31.82000 279.000
31.83500 273.000
31.85000 242.000
31.86500 258.000
31.88000 258.000
31.89500 270.000
31.91000 266.000
31.92500 248.000
31.94000 275.000
31.95500 230.000
31.97000 237.000
31.98500 241.000
32.00000 259.000
32.01500 240.000
32.03000 245.000
32.04500 259.000
32.06000 239.000
32.07500 264.000
32.09000 290.000
32.10500 258.000
32.12000 262.000
32.13500 230.000
32.15000 246.000
32.16500 273.000
32.18000 275.000
32.19500 256.000
32.21000 267.000
32.22500 261.000
32.24000 256.000
32.25500 254.000
32.27000 245.000
32.28500 269.000
32.30000 253.000
32.31500 241.000
32.33000 248.000
32.34500 250.000
32.36000 253.000
32.37500 259.000
32.39000 275.000
32.40500 275.000
32.42000 244.000
32.43500 259.000
32.45000 251.000
32.46500 249.000
32.48000 251.000
32.49500 261.000
32.51000 266.000
32.52500 241.000
32.54000 250.000
32.55500 246.000
32.57000 251.000
32.58500 244.000
32.60000 242.000
32.61500 279.000
32.63000 263.000
32.64500 236.000
32.66000 253.000
32.67500 285.000
32.69000 241.000
32.70500 218.000
32.72000 238.000
32.73500 218.000
32.75000 237.000
32.76500 250.000
32.78000 222.000
32.79500 236.000
32.81000 240.000
32.82500 245.000
32.84000 253.000
32.85500 252.000
32.87000 253.000
32.88500 257.000
32.90000 243.000
32.91500 257.000
32.93000 255.000
32.94500 251.000
32.96000 272.000
32.97500 244.000
32.99000 248.000
33.00500 254.000
33.02000 256.000
33.03500 239.000
33.05000 245.000
33.06500 253.000
33.08000 259.000
33.09500 260.000
33.11000 246.000
33.12500 236.000
33.14000 235.000
33.15500 256.000
33.17000 240.000
33.18500 246.000
33.20000 240.000
33.21500 244.000
33.23000 269.000
33.24500 271.000
33.26000 270.000
33.27500 285.000
33.29000 277.000
33.30500 305.000
33.32000 296.000
33.33500 314.000
33.35000 394.000
33.36500 455.000
33.38000 572.000
33.39500 677.000
33.41000 734.000
33.42500 751.000
33.44000 638.000
33.45500 537.000
33.47000 461.000
33.48500 354.000
33.50000 300.000
33.51500 263.000
33.53000 268.000
33.54500 249.000
33.56000 248.000
33.57500 257.000
33.59000 273.000
33.60500 258.000
33.62000 253.000
33.63500 253.000
33.65000 255.000
33.66500 247.000
33.68000 268.000
33.69500 260.000
33.71000 251.000
33.72500 282.000
33.74000 305.000
33.75500 301.000
33.77000 329.000
33.78500 392.000
33.80000 420.000
33.81500 496.000
33.83000 577.000
33.84500 674.000
33.86000 730.000
33.87500 629.000
33.89000 509.000
33.90500 430.000
33.92000 319.000
33.93500 295.000
33.95000 276.000
33.96500 266.000
33.98000 253.000
33.99500 257.000
34.01000 268.000
34.02500 233.000
34.04000 217.000
34.05500 239.000
34.07000 240.000
34.08500 267.000
34.10000 242.000
34.11500 237.000
34.13000 226.000
34.14500 195.000
34.16000 219.000
34.17500 218.000
34.19000 212.000
34.20500 226.000
34.22000 259.000
34.23500 222.000
34.25000 233.000
34.26500 252.000
34.28000 256.000
34.29500 258.000
34.31000 292.000
34.32500 340.000
34.34000 415.000
34.35500 446.000
34.37000 465.000
34.38500 462.000
34.40000 412.000
34.41500 389.000
34.43000 336.000
34.44500 298.000
34.46000 270.000
34.47500 252.000
34.49000 239.000
34.50500 231.000
34.52000 250.000
34.53500 271.000
34.55000 246.000
34.56500 258.000
34.58000 261.000
34.59500 253.000
34.61000 236.000
34.62500 231.000
34.64000 238.000
34.65500 219.000
34.67000 203.000
34.68500 205.000
34.70000 220.000
34.71500 238.000
34.73000 242.000
34.74500 233.000
34.76000 211.000
34.77500 211.000
34.79000 196.000
34.80500 218.000
34.82000 211.000
34.83500 229.000
34.85000 236.000
34.86500 224.000
34.88000 235.000
34.89500 218.000
34.91000 226.000
34.92500 230.000
34.94000 241.000
34.95500 226.000
34.97000 254.000
34.98500 294.000
35.00000 347.000
35.01500 416.000
35.03000 483.000
35.04500 579.000
35.06000 675.000
35.07500 669.000
35.09000 556.000
35.10500 442.000
35.12000 368.000
35.13500 274.000
35.15000 266.000
35.16500 284.000
35.18000 241.000
35.19500 234.000
35.21000 211.000
35.22500 243.000
35.24000 220.000
35.25500 220.000
35.27000 226.000
35.28500 229.000
35.30000 207.000
35.31500 208.000
35.33000 217.000
35.34500 210.000
35.36000 215.000
35.37500 215.000
35.39000 215.000
35.40500 212.000
35.42000 215.000
35.43500 217.000
35.45000 207.000
35.46500 199.000
35.48000 195.000
35.49500 202.000
35.51000 201.000
35.52500 200.000
35.54000 222.000
35.55500 217.000
35.57000 202.000
35.58500 224.000
35.60000 208.000
35.61500 212.000
35.63000 223.000
35.64500 233.000
35.66000 233.000
35.67500 243.000
35.69000 255.000
35.70500 254.000
35.72000 296.000
35.73500 288.000
35.75000 338.000
35.76500 360.000
35.78000 433.000
35.79500 580.000
35.81000 743.000
35.82500 914.000
35.84000 1179.000
35.85500 1211.000
35.87000 1080.000
35.88500 818.000
35.90000 636.000
35.91500 495.000
35.93000 414.000
35.94500 359.000
35.96000 400.000
35.97500 390.000
35.99000 415.000
36.00500 350.000
36.02000 296.000
36.03500 260.000
36.05000 246.000
36.06500 233.000
36.08000 235.000
36.09500 245.000
36.11000 230.000
36.12500 248.000
36.14000 260.000
36.15500 295.000
36.17000 347.000
36.18500 385.000
36.20000 498.000
36.21500 713.000
36.23000 952.000
36.24500 1105.000
36.26000 1103.000
36.27500 905.000
36.29000 693.000
36.30500 461.000
36.32000 354.000
36.33500 293.000
36.35000 280.000
36.36500 275.000
36.38000 272.000
36.39500 268.000
36.41000 347.000
36.42500 366.000
36.44000 454.000
36.45500 632.000
36.47000 780.000
36.48500 950.000
36.50000 1048.000
36.51500 1071.000
36.53000 825.000
36.54500 571.000
36.56000 431.000
36.57500 358.000
36.59000 317.000
36.60500 353.000
36.62000 321.000
36.63500 345.000
36.65000 358.000
36.66500 336.000
36.68000 285.000
36.69500 267.000
36.71000 270.000
36.72500 264.000
36.74000 247.000
36.75500 260.000
36.77000 283.000
36.78500 309.000
36.80000 318.000
36.81500 315.000
36.83000 286.000
36.84500 253.000
36.86000 233.000
36.87500 223.000
36.89000 230.000
36.90500 225.000
36.92000 229.000
36.93500 216.000
36.95000 205.000
36.96500 199.000
36.98000 227.000
36.99500 242.000
37.01000 245.000
37.02500 232.000
37.04000 256.000
37.05500 258.000
37.07000 286.000
37.08500 344.000
37.10000 441.000
37.11500 573.000
37.13000 773.000
37.14500 966.000
37.16000 1146.000
37.17500 1288.000
37.19000 1177.000
37.20500 922.000
37.22000 645.000
37.23500 503.000
37.25000 375.000
37.26500 294.000
37.28000 258.000
37.29500 242.000
37.31000 233.000
37.32500 230.000
37.34000 212.000
37.35500 209.000
37.37000 217.000
37.38500 215.000
37.40000 196.000
37.41500 194.000
37.43000 202.000
37.44500 185.000
37.46000 194.000
37.47500 217.000
37.49000 216.000
37.50500 223.000
37.52000 221.000
37.53500 227.000
37.55000 235.000
37.56500 227.000
37.58000 231.000
37.59500 281.000
37.61000 347.000
37.62500 409.000
37.64000 490.000
37.65500 503.000
37.67000 462.000
37.68500 404.000
37.70000 340.000
37.71500 297.000
37.73000 228.000
37.74500 217.000
37.76000 214.000
37.77500 199.000
37.79000 200.000
37.80500 210.000
37.82000 203.000
37.83500 191.000
37.85000 180.000
37.86500 177.000
37.88000 181.000
37.89500 193.000
37.91000 208.000
37.92500 183.000
37.94000 199.000
37.95500 179.000
37.97000 192.000
37.98500 178.000
38.00000 182.000
38.01500 206.000
38.03000 194.000
38.04500 196.000
38.06000 181.000
38.07500 208.000
38.09000 187.000
38.10500 183.000
38.12000 192.000
38.13500 219.000
38.15000 217.000
38.16500 193.000
38.18000 217.000
38.19500 223.000
38.21000 255.000
38.22500 309.000
38.24000 366.000
38.25500 421.000
38.27000 497.000
38.28500 575.000
38.30000 648.000
38.31500 850.000
38.33000 1163.000
38.34500 1771.000
38.36000 2164.000
38.37500 2140.000
38.39000 1785.000
38.40500 1187.000
38.42000 762.000
38.43500 521.000
38.45000 351.000
38.46500 276.000
38.48000 259.000
38.49500 249.000
38.51000 236.000
38.52500 246.000
38.54000 233.000
38.55500 229.000
38.57000 223.000
38.58500 241.000
38.60000 261.000
38.61500 263.000
38.63000 290.000
38.64500 314.000
38.66000 303.000
38.67500 294.000
38.69000 266.000
38.70500 232.000
38.72000 213.000
38.73500 205.000
38.75000 189.000
38.76500 170.000
38.78000 197.000
38.79500 198.000
38.81000 187.000
38.82500 169.000
38.84000 181.000
38.85500 196.000
38.87000 191.000
38.88500 188.000
38.90000 171.000
38.91500 193.000
38.93000 192.000
38.94500 154.000
38.96000 177.000
38.97500 169.000
38.99000 168.000
39.00500 192.000
39.02000 177.000
39.03500 181.000
39.05000 186.000
39.06500 180.000
39.08000 187.000
39.09500 192.000
39.11000 200.000
39.12500 196.000
39.14000 195.000
39.15500 188.000
39.17000 186.000
39.18500 182.000
39.20000 168.000
39.21500 179.000
39.23000 170.000
39.24500 157.000
39.26000 177.000
39.27500 165.000
39.29000 167.000
39.30500 178.000
39.32000 180.000
39.33500 185.000
39.35000 153.000
39.36500 169.000
39.38000 153.000
39.39500 170.000
39.41000 186.000
39.42500 174.000
39.44000 188.000
39.45500 202.000
39.47000 200.000
39.48500 185.000
39.50000 191.000
39.51500 189.000
39.53000 200.000
39.54500 192.000
39.56000 195.000
39.57500 206.000
39.59000 235.000
39.60500 209.000
39.62000 203.000
39.63500 201.000
39.65000 211.000
39.66500 178.000
39.68000 180.000
39.69500 190.000
39.71000 188.000
39.72500 173.000
39.74000 171.000
39.75500 173.000
39.77000 183.000
39.78500 184.000
39.80000 157.000
39.81500 155.000
39.83000 168.000
39.84500 177.000
39.86000 171.000
39.87500 185.000
39.89000 192.000
39.90500 162.000
39.92000 172.000
39.93500 180.000
39.95000 194.000
39.96500 194.000
39.98000 184.000
39.99500 203.000
40.01000 179.000
40.02500 176.000
40.04000 181.000
40.05500 223.000
40.07000 210.000
40.08500 207.000
40.10000 255.000
40.11500 213.000
40.13000 217.000
40.14500 206.000
40.16000 180.000
40.17500 188.000
40.19000 198.000
40.20500 178.000
40.22000 168.000
40.23500 182.000
40.25000 182.000
40.26500 182.000
40.28000 200.000
40.29500 181.000
40.31000 184.000
40.32500 170.000
40.34000 161.000
40.35500 169.000
40.37000 171.000
40.38500 186.000
40.40000 173.000
40.41500 176.000
40.43000 181.000
40.44500 177.000
40.46000 176.000
40.47500 172.000
40.49000 187.000
40.50500 189.000
40.52000 228.000
40.53500 233.000
40.55000 236.000
40.56500 247.000
40.58000 283.000
40.59500 263.000
40.61000 238.000
40.62500 224.000
40.64000 187.000
40.65500 181.000
40.67000 179.000
40.68500 152.000
40.70000 165.000
40.71500 185.000
40.73000 166.000
40.74500 171.000
40.76000 166.000
40.77500 177.000
40.79000 167.000
40.80500 162.000
40.82000 173.000
40.83500 175.000
40.85000 152.000
40.86500 174.000
40.88000 217.000
40.89500 195.000
40.91000 183.000
40.92500 229.000
40.94000 227.000
40.95500 292.000
40.97000 381.000
40.98500 456.000
41.00000 500.000
41.01500 504.000
41.03000 412.000
41.04500 350.000
41.06000 284.000
41.07500 230.000
41.09000 206.000
41.10500 186.000
41.12000 173.000
41.13500 164.000
41.15000 175.000
41.16500 200.000
41.18000 162.000
41.19500 162.000
41.21000 186.000
41.22500 216.000
41.24000 186.000
41.25500 166.000
41.27000 168.000
41.28500 175.000
41.30000 184.000
41.31500 169.000
41.33000 155.000
41.34500 169.000
41.36000 175.000
41.37500 166.000
41.39000 166.000
41.40500 168.000
41.42000 175.000
41.43500 190.000
41.45000 181.000
41.46500 188.000
41.48000 180.000
41.49500 163.000
41.51000 187.000
41.52500 173.000
41.54000 165.000
41.55500 178.000
41.57000 159.000
41.58500 167.000
41.60000 172.000
41.61500 174.000
41.63000 176.000
41.64500 200.000
41.66000 175.000
41.67500 184.000
41.69000 209.000
41.70500 207.000
41.72000 210.000
41.73500 247.000
41.75000 276.000
41.76500 325.000
41.78000 348.000
41.79500 357.000
41.81000 367.000
41.82500 317.000
41.84000 260.000
41.85500 230.000
41.87000 223.000
41.88500 218.000
41.90000 222.000
41.91500 201.000
41.93000 207.000
41.94500 227.000
41.96000 237.000
41.97500 225.000
41.99000 221.000
42.00500 198.000
42.02000 200.000
42.03500 212.000
42.05000 181.000
42.06500 180.000
42.08000 178.000
42.09500 177.000
42.11000 176.000
42.12500 168.000
42.14000 173.000
42.15500 176.000
42.17000 159.000
42.18500 144.000
42.20000 178.000
42.21500 175.000
42.23000 175.000
42.24500 180.000
42.26000 168.000
42.27500 164.000
42.29000 164.000
42.30500 163.000
42.32000 160.000
42.33500 171.000
42.35000 192.000
42.36500 167.000
42.38000 194.000
42.39500 186.000
42.41000 176.000
42.42500 170.000
42.44000 184.000
42.45500 205.000
42.47000 208.000
42.48500 253.000
42.50000 284.000
42.51500 303.000
42.53000 311.000
42.54500 304.000
42.56000 242.000
42.57500 212.000
42.59000 207.000
42.60500 206.000
42.62000 190.000
42.63500 185.000
42.65000 164.000
42.66500 182.000
42.68000 174.000
42.69500 180.000
42.71000 160.000
42.72500 164.000
42.74000 165.000
42.75500 190.000
42.77000 174.000
42.78500 167.000
42.80000 198.000
42.81500 176.000
42.83000 158.000
42.84500 178.000
42.86000 166.000
42.87500 171.000
42.89000 172.000
42.90500 173.000
42.92000 158.000
42.93500 140.000
42.95000 166.000
42.96500 167.000
42.98000 145.000
42.99500 170.000
43.01000 179.000
43.02500 148.000
43.04000 165.000
43.05500 174.000
43.07000 159.000
43.08500 172.000
43.10000 170.000
43.11500 160.000
43.13000 163.000
43.14500 154.000
43.16000 155.000
43.17500 152.000
43.19000 162.000
43.20500 162.000
43.22000 178.000
43.23500 172.000
43.25000 154.000
43.26500 137.000
43.28000 175.000
43.29500 161.000
43.31000 167.000
43.32500 171.000
43.34000 175.000
43.35500 161.000
43.37000 179.000
43.38500 175.000
43.40000 176.000
43.41500 153.000
43.43000 144.000
43.44500 156.000
43.46000 163.000
43.47500 179.000
43.49000 180.000
43.50500 160.000
43.52000 150.000
43.53500 160.000
43.55000 150.000
43.56500 154.000
43.58000 174.000
43.59500 168.000
43.61000 173.000
43.62500 162.000
43.64000 162.000
43.65500 158.000
43.67000 156.000
43.68500 167.000
43.70000 161.000
43.71500 169.000
43.73000 165.000
43.74500 187.000
43.76000 195.000
43.77500 202.000
43.79000 226.000
43.80500 250.000
43.82000 246.000
43.83500 234.000
43.85000 202.000
43.86500 180.000
43.88000 175.000
43.89500 187.000
43.91000 185.000
43.92500 202.000
43.94000 221.000
43.95500 262.000
43.97000 302.000
43.98500 346.000
44.00000 325.000
44.01500 376.000
44.03000 378.000
44.04500 307.000
44.06000 254.000
44.07500 231.000
44.09000 200.000
44.10500 204.000
44.12000 208.000
44.13500 209.000
44.15000 209.000
44.16500 190.000
44.18000 185.000
44.19500 188.000
44.21000 175.000
44.22500 180.000
44.24000 186.000
44.25500 175.000
44.27000 164.000
44.28500 161.000
44.30000 158.000
44.31500 167.000
44.33000 172.000
44.34500 162.000
44.36000 165.000
44.37500 155.000
44.39000 162.000
44.40500 170.000
44.42000 157.000
44.43500 169.000
44.45000 151.000
44.46500 150.000
44.48000 169.000
44.49500 158.000
44.51000 190.000
44.52500 193.000
44.54000 172.000
44.55500 177.000
44.57000 168.000
44.58500 209.000
44.60000 228.000
44.61500 206.000
44.63000 196.000
44.64500 187.000
44.66000 206.000
44.67500 175.000
44.69000 190.000
44.70500 177.000
44.72000 179.000
44.73500 200.000
44.75000 196.000
44.76500 219.000
44.78000 261.000
44.79500 304.000
44.81000 403.000
44.82500 565.000
44.84000 666.000
44.85500 660.000
44.87000 598.000
44.88500 544.000
44.90000 454.000
44.91500 359.000
44.93000 296.000
44.94500 237.000
44.96000 230.000
44.97500 224.000
44.99000 246.000
45.00500 227.000
45.02000 231.000
45.03500 237.000
45.05000 214.000
45.06500 224.000
45.08000 210.000
45.09500 208.000
45.11000 194.000
45.12500 186.000
45.14000 193.000
45.15500 181.000
45.17000 176.000
45.18500 196.000
45.20000 216.000
45.21500 215.000
45.23000 211.000
45.24500 208.000
45.26000 188.000
45.27500 187.000
45.29000 179.000
45.30500 157.000
45.32000 173.000
45.33500 173.000
45.35000 163.000
45.36500 185.000
45.38000 179.000
45.39500 179.000
45.41000 172.000
45.42500 178.000
45.44000 196.000
45.45500 232.000
45.47000 234.000
45.48500 249.000
45.50000 309.000
45.51500 319.000
45.53000 310.000
45.54500 309.000
45.56000 271.000
45.57500 226.000
45.59000 219.000
45.60500 185.000
45.62000 179.000
45.63500 176.000
45.65000 195.000
45.66500 213.000
45.68000 213.000
45.69500 228.000
45.71000 242.000
45.72500 295.000
45.74000 290.000
45.75500 314.000
45.77000 302.000
45.78500 258.000
45.80000 223.000
45.81500 192.000
45.83000 182.000
45.84500 174.000
45.86000 177.000
45.87500 167.000
45.89000 173.000
45.90500 164.000
45.92000 177.000
45.93500 177.000
45.95000 167.000
45.96500 144.000
45.98000 162.000
45.99500 175.000
46.01000 163.000
46.02500 152.000
46.04000 148.000
46.05500 164.000
46.07000 160.000
46.08500 172.000
46.10000 178.000
46.11500 172.000
46.13000 161.000
46.14500 140.000
46.16000 170.000
46.17500 174.000
46.19000 169.000
46.20500 153.000
46.22000 159.000
46.23500 169.000
46.25000 191.000
46.26500 203.000
46.28000 207.000
46.29500 222.000
46.31000 210.000
46.32500 206.000
46.34000 208.000
46.35500 187.000
46.37000 185.000
46.38500 161.000
46.40000 153.000
46.41500 149.000
46.43000 166.000
46.44500 152.000
46.46000 156.000
46.47500 158.000
46.49000 166.000
46.50500 153.000
46.52000 166.000
46.53500 173.000
46.55000 164.000
46.56500 161.000
46.58000 143.000
46.59500 150.000
46.61000 161.000
46.62500 161.000
46.64000 146.000
46.65500 174.000
46.67000 168.000
46.68500 175.000
46.70000 155.000
46.71500 166.000
46.73000 186.000
46.74500 170.000
46.76000 154.000
46.77500 165.000
46.79000 172.000
46.80500 171.000
46.82000 189.000
46.83500 196.000
46.85000 196.000
46.86500 191.000
46.88000 181.000
46.89500 169.000
46.91000 178.000
46.92500 208.000
46.94000 224.000
46.95500 233.000
46.97000 267.000
46.98500 347.000
47.00000 357.000
47.01500 467.000
47.03000 546.000
47.04500 552.000
47.06000 513.000
47.07500 450.000
47.09000 355.000
47.10500 269.000
47.12000 267.000
47.13500 217.000
47.15000 188.000
47.16500 188.000
47.18000 196.000
47.19500 176.000
47.21000 166.000
47.22500 176.000
47.24000 167.000
47.25500 166.000
47.27000 171.000
47.28500 164.000
47.30000 166.000
47.31500 160.000
47.33000 154.000
47.34500 166.000
47.36000 176.000
47.37500 161.000
47.39000 172.000
47.40500 185.000
47.42000 211.000
47.43500 245.000
47.45000 230.000
47.46500 277.000
47.48000 343.000
47.49500 459.000
47.51000 664.000
47.52500 863.000
47.54000 1209.000
47.55500 1464.000
47.57000 1452.000
47.58500 1145.000
47.60000 873.000
47.61500 658.000
47.63000 444.000
47.64500 317.000
47.66000 235.000
47.67500 233.000
47.69000 213.000
47.70500 185.000
47.72000 186.000
47.73500 195.000
47.75000 183.000
47.76500 166.000
47.78000 168.000
47.79500 180.000
47.81000 167.000
47.82500 149.000
47.84000 174.000
47.85500 159.000
47.87000 167.000
47.88500 180.000
47.90000 169.000
47.91500 157.000
47.93000 155.000
47.94500 163.000
47.96000 155.000
47.97500 160.000
47.99000 167.000
48.00500 172.000
48.02000 168.000
48.03500 174.000
48.05000 162.000
48.06500 175.000
48.08000 175.000
48.09500 144.000
48.11000 169.000
48.12500 169.000
48.14000 172.000
48.15500 179.000
48.17000 192.000
48.18500 166.000
48.20000 204.000
48.21500 205.000
48.23000 246.000
48.24500 256.000
48.26000 305.000
48.27500 367.000
48.29000 436.000
48.30500 564.000
48.32000 621.000
48.33500 589.000
48.35000 495.000
48.36500 410.000
48.38000 316.000
48.39500 306.000
48.41000 246.000
48.42500 211.000
48.44000 189.000
48.45500 153.000
48.47000 164.000
48.48500 169.000
48.50000 153.000
48.51500 172.000
48.53000 181.000
48.54500 161.000
48.56000 165.000
48.57500 173.000
48.59000 150.000
48.60500 143.000
48.62000 160.000
48.63500 160.000
48.65000 145.000
48.66500 163.000
48.68000 174.000
48.69500 166.000
48.71000 149.000
48.72500 153.000
48.74000 183.000
48.75500 155.000
48.77000 152.000
48.78500 151.000
48.80000 161.000
48.81500 181.000
48.83000 158.000
48.84500 152.000
48.86000 142.000
48.87500 155.000
48.89000 158.000
48.90500 155.000
48.92000 162.000
48.93500 167.000
48.95000 158.000
48.96500 155.000
48.98000 164.000
48.99500 176.000
49.01000 179.000
49.02500 168.000
49.04000 158.000
49.05500 143.000
49.07000 144.000
49.08500 134.000
49.10000 173.000
49.11500 153.000
49.13000 149.000
49.14500 140.000
49.16000 166.000
49.17500 175.000
49.19000 145.000
49.20500 140.000
49.22000 156.000
49.23500 170.000
49.25000 161.000
49.26500 160.000
49.28000 140.000
49.29500 156.000
49.31000 152.000
49.32500 150.000
49.34000 149.000
49.35500 152.000
49.37000 150.000
49.38500 149.000
49.40000 135.000
49.41500 146.000
49.43000 149.000
49.44500 164.000
49.46000 158.000
49.47500 171.000
49.49000 178.000
49.50500 166.000
49.52000 167.000
49.53500 169.000
49.55000 173.000
49.56500 174.000
49.58000 182.000
49.59500 175.000
49.61000 205.000
49.62500 201.000
49.64000 186.000
49.65500 197.000
49.67000 172.000
49.68500 168.000
49.70000 162.000
49.71500 149.000
49.73000 165.000
49.74500 150.000
49.76000 153.000
49.77500 159.000
49.79000 138.000
49.80500 142.000
49.82000 159.000
49.83500 158.000
49.85000 150.000
49.86500 145.000
49.88000 138.000
49.89500 147.000
49.91000 160.000
49.92500 130.000
49.94000 142.000
49.95500 164.000
49.97000 151.000
49.98500 159.000
50.00000 173.000
50.01500 166.000
50.03000 176.000
50.04500 186.000
50.06000 194.000
50.07500 213.000
50.09000 228.000
50.10500 249.000
50.12000 253.000
50.13500 276.000
50.15000 253.000
50.16500 232.000
50.18000 225.000
50.19500 216.000
50.21000 226.000
50.22500 262.000
50.24000 291.000
50.25500 344.000
50.27000 364.000
50.28500 410.000
50.30000 434.000
50.31500 454.000
50.33000 463.000
50.34500 396.000
50.36000 379.000
50.37500 331.000
50.39000 325.000
50.40500 338.000
50.42000 375.000
50.43500 385.000
50.45000 352.000
50.46500 319.000
50.48000 283.000
50.49500 258.000
50.51000 201.000
50.52500 186.000
50.54000 184.000
50.55500 177.000
50.57000 169.000
50.58500 175.000
50.60000 156.000
50.61500 140.000
50.63000 153.000
50.64500 165.000
50.66000 151.000
50.67500 162.000
50.69000 143.000
50.70500 161.000
50.72000 153.000
50.73500 147.000
50.75000 138.000
50.76500 147.000
50.78000 162.000
50.79500 162.000
50.81000 152.000
50.82500 157.000
50.84000 152.000
50.85500 155.000
50.87000 174.000
50.88500 172.000
50.90000 150.000
50.91500 156.000
50.93000 179.000
50.94500 172.000
50.96000 167.000
50.97500 196.000
50.99000 161.000
51.00500 167.000
51.02000 164.000
51.03500 155.000
51.05000 142.000
51.06500 134.000
51.08000 144.000
51.09500 165.000
51.11000 172.000
51.12500 164.000
51.14000 162.000
51.15500 177.000
51.17000 189.000
51.18500 176.000
51.20000 186.000
51.21500 165.000
51.23000 177.000
51.24500 172.000
51.26000 171.000
51.27500 158.000
51.29000 172.000
51.30500 159.000
51.32000 162.000
51.33500 167.000
51.35000 164.000
51.36500 157.000
51.38000 158.000
51.39500 149.000
51.41000 144.000
51.42500 141.000
51.44000 149.000
51.45500 161.000
51.47000 169.000
51.48500 163.000
51.50000 153.000
51.51500 147.000
51.53000 161.000
51.54500 138.000
51.56000 163.000
51.57500 172.000
51.59000 173.000
51.60500 197.000
51.62000 187.000
51.63500 214.000
51.65000 253.000
51.66500 260.000
51.68000 258.000
51.69500 274.000
51.71000 267.000
51.72500 273.000
51.74000 239.000
51.75500 227.000
51.77000 211.000
51.78500 215.000
51.80000 204.000
51.81500 206.000
51.83000 230.000
51.84500 226.000
51.86000 222.000
51.87500 205.000
51.89000 206.000
51.90500 186.000
51.92000 183.000
51.93500 182.000
51.95000 144.000
51.96500 161.000
51.98000 163.000
51.99500 174.000
52.01000 158.000
52.02500 158.000
52.04000 152.000
52.05500 161.000
52.07000 169.000
52.08500 190.000
52.10000 178.000
52.11500 181.000
52.13000 187.000
52.14500 186.000
52.16000 190.000
52.17500 233.000
52.19000 233.000
52.20500 235.000
52.22000 275.000
52.23500 314.000
52.25000 335.000
52.26500 332.000
52.28000 348.000
52.29500 319.000
52.31000 288.000
52.32500 256.000
52.34000 227.000
52.35500 234.000
52.37000 195.000
52.38500 180.000
52.40000 170.000
52.41500 164.000
52.43000 192.000
52.44500 168.000
52.46000 164.000
52.47500 148.000
52.49000 185.000
52.50500 173.000
52.52000 181.000
52.53500 180.000
52.55000 169.000
52.56500 156.000
52.58000 162.000
52.59500 185.000
52.61000 173.000
52.62500 158.000
52.64000 188.000
52.65500 205.000
52.67000 213.000
52.68500 225.000
52.70000 234.000
52.71500 216.000
52.73000 210.000
52.74500 230.000
52.76000 186.000
52.77500 178.000
52.79000 203.000
52.80500 206.000
52.82000 201.000
52.83500 206.000
52.85000 220.000
52.86500 251.000
52.88000 298.000
52.89500 385.000
52.91000 439.000
52.92500 496.000
52.94000 601.000
52.95500 690.000
52.97000 751.000
52.98500 756.000
53.00000 699.000
53.01500 670.000
53.03000 636.000
53.04500 547.000
53.06000 397.000
53.07500 298.000
53.09000 277.000
53.10500 248.000
53.12000 220.000
53.13500 220.000
53.15000 177.000
53.16500 162.000
53.18000 160.000
53.19500 176.000
53.21000 176.000
53.22500 182.000
53.24000 189.000
53.25500 173.000
53.27000 152.000
53.28500 176.000
53.30000 150.000
53.31500 152.000
53.33000 148.000
53.34500 148.000
53.36000 163.000
53.37500 144.000
53.39000 155.000
53.40500 162.000
53.42000 176.000
53.43500 177.000
53.45000 157.000
53.46500 140.000
53.48000 139.000
53.49500 167.000
53.51000 169.000
53.52500 182.000
53.54000 157.000
53.55500 164.000
53.57000 179.000
53.58500 167.000
53.60000 179.000
53.61500 173.000
53.63000 182.000
53.64500 196.000
53.66000 209.000
53.67500 212.000
53.69000 211.000
53.70500 187.000
53.72000 164.000
53.73500 157.000
53.75000 168.000
53.76500 157.000
53.78000 143.000
53.79500 143.000
53.81000 164.000
53.82500 168.000
53.84000 163.000
53.85500 171.000
53.87000 164.000
53.88500 172.000
53.90000 170.000
53.91500 155.000
53.93000 170.000
53.94500 179.000
53.96000 165.000
53.97500 161.000
53.99000 159.000
54.00500 155.000
54.02000 156.000
54.03500 165.000
54.05000 146.000
54.06500 159.000
54.08000 175.000
54.09500 160.000
54.11000 163.000
54.12500 162.000
54.14000 175.000
54.15500 209.000
54.17000 226.000
54.18500 211.000
54.20000 214.000
54.21500 239.000
54.23000 246.000
54.24500 242.000
54.26000 206.000
54.27500 182.000
54.29000 176.000
54.30500 155.000
54.32000 161.000
54.33500 170.000
54.35000 164.000
54.36500 168.000
54.38000 171.000
54.39500 180.000
54.41000 191.000
54.42500 194.000
54.44000 225.000
54.45500 261.000
54.47000 265.000
54.48500 311.000
54.50000 345.000
54.51500 370.000
54.53000 350.000
54.54500 320.000
54.56000 298.000
54.57500 247.000
54.59000 213.000
54.60500 185.000
54.62000 171.000
54.63500 192.000
54.65000 201.000
54.66500 170.000
54.68000 173.000
54.69500 170.000
54.71000 182.000
54.72500 194.000
54.74000 208.000
54.75500 218.000
54.77000 269.000
54.78500 289.000
54.80000 334.000
54.81500 382.000
54.83000 422.000
54.84500 420.000
54.86000 444.000
54.87500 382.000
54.89000 357.000
54.90500 307.000
54.92000 280.000
54.93500 258.000
54.95000 235.000
54.96500 248.000
54.98000 253.000
54.99500 241.000
55.01000 243.000
55.02500 227.000
55.04000 217.000
55.05500 183.000
55.07000 199.000
55.08500 204.000
55.10000 205.000
55.11500 228.000
55.13000 238.000
55.14500 251.000
55.16000 328.000
55.17500 426.000
55.19000 439.000
55.20500 441.000
55.22000 412.000
55.23500 387.000
55.25000 325.000
55.26500 293.000
55.28000 266.000
55.29500 246.000
55.31000 257.000
55.32500 289.000
55.34000 326.000
55.35500 377.000
55.37000 437.000
55.38500 476.000
55.40000 496.000
55.41500 456.000
55.43000 423.000
55.44500 355.000
55.46000 294.000
55.47500 260.000
55.49000 244.000
55.50500 218.000
55.52000 243.000
55.53500 267.000
55.55000 287.000
55.56500 339.000
55.58000 405.000
55.59500 500.000
55.61000 606.000
55.62500 631.000
55.64000 688.000
55.65500 669.000
55.67000 701.000
55.68500 582.000
55.70000 496.000
55.71500 432.000
55.73000 333.000
55.74500 285.000
55.76000 248.000
55.77500 251.000
55.79000 225.000
55.80500 213.000
55.82000 235.000
55.83500 262.000
55.85000 297.000
55.86500 318.000
55.88000 364.000
55.89500 325.000
55.91000 307.000
55.92500 279.000
55.94000 239.000
55.95500 195.000
55.97000 192.000
55.98500 197.000
56.00000 184.000
56.01500 175.000
56.03000 165.000
56.04500 180.000
56.06000 162.000
56.07500 174.000
56.09000 168.000
56.10500 186.000
56.12000 198.000
56.13500 205.000
56.15000 241.000
56.16500 269.000
56.18000 340.000
56.19500 403.000
56.21000 437.000
56.22500 467.000
56.24000 462.000
56.25500 403.000
56.27000 321.000
56.28500 279.000
56.30000 241.000
56.31500 222.000
56.33000 190.000
56.34500 182.000
56.36000 176.000
56.37500 191.000
56.39000 188.000
56.40500 163.000
56.42000 175.000
56.43500 163.000
56.45000 136.000
56.46500 161.000
56.48000 150.000
56.49500 162.000
56.51000 145.000
56.52500 148.000
56.54000 190.000
56.55500 158.000
56.57000 144.000
56.58500 157.000
56.60000 207.000
56.61500 209.000
56.63000 227.000
56.64500 227.000
56.66000 253.000
56.67500 315.000
56.69000 302.000
56.70500 301.000
56.72000 291.000
56.73500 258.000
56.75000 214.000
56.76500 196.000
56.78000 193.000
56.79500 192.000
56.81000 181.000
56.82500 160.000
56.84000 168.000
56.85500 155.000
56.87000 142.000
56.88500 153.000
56.90000 151.000
56.91500 150.000
56.93000 145.000
56.94500 159.000
56.96000 161.000
56.97500 160.000
56.99000 152.000
57.00500 148.000
57.02000 168.000
57.03500 162.000
57.05000 168.000
57.06500 171.000
57.08000 159.000
57.09500 167.000
57.11000 207.000
57.12500 223.000
57.14000 288.000
57.15500 315.000
57.17000 340.000
57.18500 333.000
57.20000 300.000
57.21500 305.000
57.23000 283.000
57.24500 242.000
57.26000 198.000
57.27500 207.000
57.29000 178.000
57.30500 165.000
57.32000 145.000
57.33500 193.000
57.35000 178.000
57.36500 173.000
57.38000 176.000
57.39500 174.000
57.41000 171.000
57.42500 159.000
57.44000 163.000
57.45500 151.000
57.47000 162.000
57.48500 146.000
57.50000 154.000
57.51500 161.000
57.53000 148.000
57.54500 152.000
57.56000 143.000
57.57500 150.000
57.59000 161.000
57.60500 147.000
57.62000 157.000
57.63500 172.000
57.65000 166.000
57.66500 171.000
57.68000 187.000
57.69500 184.000
57.71000 200.000
57.72500 209.000
57.74000 176.000
57.75500 184.000
57.77000 178.000
57.78500 182.000
57.80000 153.000
57.81500 167.000
57.83000 165.000
57.84500 184.000
57.86000 178.000
57.87500 184.000
57.89000 170.000
57.90500 195.000
57.92000 184.000
57.93500 182.000
57.95000 158.000
57.96500 155.000
57.98000 163.000
57.99500 160.000
58.01000 148.000
58.02500 135.000
58.04000 141.000
58.05500 139.000
58.07000 153.000
58.08500 156.000
58.10000 154.000
58.11500 144.000
58.13000 153.000
58.14500 140.000
58.16000 153.000
58.17500 146.000
58.19000 138.000
58.20500 137.000
58.22000 131.000
58.23500 145.000
58.25000 150.000
58.26500 136.000
58.28000 141.000
58.29500 138.000
58.31000 141.000
58.32500 151.000
58.34000 143.000
58.35500 137.000
58.37000 136.000
58.38500 144.000
58.40000 152.000
58.41500 154.000
58.43000 149.000
58.44500 161.000
58.46000 142.000
58.47500 154.000
58.49000 163.000
58.50500 143.000
58.52000 156.000
58.53500 158.000
58.55000 144.000
58.56500 170.000
58.58000 146.000
58.59500 153.000
58.61000 152.000
58.62500 153.000
58.64000 150.000
58.65500 155.000
58.67000 164.000
58.68500 146.000
58.70000 139.000
58.71500 143.000
58.73000 151.000
58.74500 152.000
58.76000 153.000
58.77500 139.000
58.79000 142.000
58.80500 157.000
58.82000 164.000
58.83500 173.000
58.85000 173.000
58.86500 191.000
58.88000 189.000
58.89500 198.000
58.91000 181.000
58.92500 164.000
58.94000 170.000
58.95500 159.000
58.97000 159.000
58.98500 155.000
59.00000 149.000
59.01500 139.000
59.03000 135.000
59.04500 136.000
59.06000 135.000
59.07500 146.000
59.09000 174.000
59.10500 143.000
59.12000 157.000
59.13500 158.000
59.15000 158.000
59.16500 165.000
59.18000 172.000
59.19500 153.000
59.21000 174.000
59.22500 184.000
59.24000 172.000
59.25500 167.000
59.27000 182.000
59.28500 158.000
59.30000 150.000
59.31500 152.000
59.33000 154.000
59.34500 158.000
59.36000 146.000
59.37500 140.000
59.39000 152.000
59.40500 144.000
59.42000 148.000
59.43500 152.000
59.45000 148.000
59.46500 142.000
59.48000 141.000
59.49500 136.000
59.51000 123.000
59.52500 132.000
59.54000 146.000
59.55500 136.000
59.57000 143.000
59.58500 134.000
59.60000 152.000
59.61500 140.000
59.63000 145.000
59.64500 141.000
59.66000 125.000
59.67500 128.000
59.69000 130.000
59.70500 131.000
59.72000 119.000
59.73500 137.000
59.75000 122.000
59.76500 128.000
59.78000 149.000
59.79500 148.000
59.81000 144.000
59.82500 141.000
59.84000 148.000
59.85500 142.000
59.87000 155.000
59.88500 176.000
59.90000 154.000
59.91500 164.000
59.93000 167.000
59.94500 194.000
59.96000 207.000
59.97500 215.000
59.99000 216.000
60.00500 199.000
60.02000 194.000
60.03500 180.000
60.05000 187.000
60.06500 152.000
60.08000 164.000
60.09500 156.000
60.11000 148.000
60.12500 136.000
60.14000 152.000
60.15500 139.000
60.17000 147.000
60.18500 162.000
60.20000 160.000
60.21500 159.000
60.23000 140.000
60.24500 154.000
60.26000 150.000
60.27500 145.000
60.29000 146.000
60.30500 144.000
60.32000 140.000
60.33500 141.000
60.35000 146.000
60.36500 157.000
60.38000 147.000
60.39500 140.000
60.41000 147.000
60.42500 142.000
60.44000 154.000
60.45500 172.000
60.47000 145.000
60.48500 161.000
60.50000 173.000
60.51500 156.000
60.53000 171.000
60.54500 188.000
60.56000 208.000
60.57500 202.000
60.59000 225.000
60.60500 235.000
60.62000 219.000
60.63500 196.000
60.65000 194.000
60.66500 195.000
60.68000 147.000
60.69500 137.000
60.71000 130.000
60.72500 165.000
60.74000 148.000
60.75500 133.000
60.77000 131.000
60.78500 134.000
60.80000 134.000
60.81500 150.000
60.83000 145.000
60.84500 145.000
60.86000 135.000
60.87500 126.000
60.89000 137.000
60.90500 128.000
60.92000 146.000
60.93500 147.000
60.95000 139.000
60.96500 125.000
60.98000 131.000
60.99500 140.000
61.01000 146.000
61.02500 140.000
61.04000 127.000
61.05500 132.000
61.07000 126.000
61.08500 124.000
61.10000 122.000
61.11500 140.000
61.13000 135.000
61.14500 154.000
61.16000 145.000
61.17500 150.000
61.19000 141.000
61.20500 136.000
61.22000 140.000
61.23500 151.000
61.25000 139.000
61.26500 120.000
61.28000 124.000
61.29500 136.000
61.31000 140.000
61.32500 138.000
61.34000 144.000
61.35500 141.000
61.37000 138.000
61.38500 142.000
61.40000 149.000
61.41500 144.000
61.43000 135.000
61.44500 145.000
61.46000 121.000
61.47500 123.000
61.49000 117.000
61.50500 126.000
61.52000 135.000
61.53500 137.000
61.55000 140.000
61.56500 137.000
61.58000 126.000
61.59500 127.000
61.61000 130.000
61.62500 146.000
61.64000 142.000
61.65500 128.000
61.67000 140.000
61.68500 153.000
61.70000 134.000
61.71500 133.000
61.73000 129.000
61.74500 127.000
61.76000 145.000
61.77500 138.000
61.79000 124.000
61.80500 140.000
61.82000 136.000
61.83500 158.000
61.85000 160.000
61.86500 147.000
61.88000 173.000
61.89500 169.000
61.91000 220.000
61.92500 221.000
61.94000 215.000
61.95500 206.000
61.97000 206.000
61.98500 208.000
