2.0 1134.0
2.015 1110.0
2.03 1089.0
2.045 1090.0
2.06 1082.0
2.075 1037.0
2.09 1032.0
2.105 965.0
2.12 1003.0
2.135 949.0
2.15 898.0
2.165 895.0
2.18 915.0
2.195 863.0
2.21 865.0
2.225 884.0
2.24 854.0
2.255 852.0
2.27 778.0
2.285 779.0
2.3 800.0
2.315 776.0
2.33 740.0
2.345 763.0
2.36 758.0
2.375 736.0
2.39 748.0
2.405 725.0
2.42 696.0
2.435 685.0
2.45 643.0
2.465 663.0
2.48 700.0
2.495 670.0
2.51 649.0
2.525 640.0
2.54 627.0
2.555 675.0
2.57 653.0
2.585 585.0
2.6 583.0
2.615 616.0
2.63 586.0
2.645 561.0
2.66 571.0
2.675 546.0
2.69 555.0
2.705 530.0
2.72 536.0
2.735 533.0
2.75 558.0
2.765 566.0
2.78 546.0
2.795 560.0
2.81 508.0
2.825 551.0
2.84 503.0
2.855 503.0
2.87 515.0
2.885 516.0
2.9 512.0
2.915 490.0
2.93 526.0
2.945 511.0
2.96 519.0
2.975 514.0
2.99 489.0
3.005 472.0
3.02 447.0
3.035 476.0
3.05 442.0
3.065 459.0
3.08 467.0
3.095 478.0
3.11 471.0
3.125 449.0
3.14 430.0
3.155 419.0
3.17 417.0
3.185 445.0
3.2 453.0
3.215 485.0
3.23 452.0
3.245 391.0
3.26 441.0
3.275 443.0
3.29 449.0
3.305 429.0
3.32 447.0
3.335 439.0
3.35 393.0
3.365 406.0
3.38 390.0
3.395 403.0
3.41 430.0
3.425 389.0
3.44 395.0
3.455 396.0
3.47 445.0
3.485 436.0
3.5 406.0
3.515 444.0
3.53 441.0
3.545 444.0
3.56 410.0
3.575 393.0
3.59 369.0
3.605 412.0
3.62 369.0
3.635 393.0
3.65 398.0
3.665 407.0
3.68 415.0
3.695 406.0
3.71 356.0
3.725 365.0
3.74 398.0
3.755 381.0
3.77 359.0
3.785 396.0
3.8 377.0
3.815 372.0
3.83 381.0
3.845 391.0
3.86 404.0
3.875 397.0
3.89 396.0
3.905 367.0
3.92 393.0
3.935 392.0
3.95 392.0
3.965 379.0
3.98 366.0
3.995 382.0
4.01 370.0
4.025 366.0
4.04 411.0
4.055 434.0
4.07 385.0
4.085 383.0
4.1 404.0
4.115 387.0
4.13 388.0
4.145 382.0
4.16 353.0
4.175 381.0
4.19 397.0
4.205 381.0
4.22 395.0
4.235 383.0
4.25 350.0
4.265 393.0
4.28 373.0
4.295 401.0
4.31 367.0
4.325 374.0
4.34 385.0
4.355 379.0
4.37 363.0
4.385 389.0
4.4 364.0
4.415 374.0
4.43 383.0
4.445 372.0
4.46 365.0
4.475 376.0
4.49 374.0
4.505 367.0
4.52 385.0
4.535 376.0
4.55 367.0
4.565 364.0
4.58 350.0
4.595 358.0
4.61 384.0
4.625 364.0
4.64 357.0
4.655 353.0
4.67 333.0
4.685 348.0
4.7 355.0
4.715 350.0
4.73 368.0
4.745 353.0
4.76 370.0
4.775 385.0
4.79 338.0
4.805 355.0
4.82 344.0
4.835 360.0
4.85 338.0
4.865 361.0
4.88 361.0
4.895 358.0
4.91 358.0
4.925 362.0
4.94 367.0
4.955 364.0
4.97 386.0
4.985 367.0
5.0 377.0
5.015 360.0
5.03 361.0
5.045 375.0
5.06 335.0
5.075 365.0
5.09 364.0
5.105 360.0
5.12 338.0
5.135 359.0
5.15 351.0
5.165 375.0
5.18 340.0
5.195 343.0
5.21 370.0
5.225 397.0
5.24 382.0
5.255 344.0
5.27 348.0
5.285 371.0
5.3 352.0
5.315 372.0
5.33 352.0
5.345 348.0
5.36 340.0
5.375 343.0
5.39 409.0
5.405 396.0
5.42 354.0
5.435 357.0
5.45 341.0
5.465 327.0
5.48 358.0
5.495 364.0
5.51 364.0
5.525 354.0
5.54 374.0
5.555 345.0
5.57 386.0
5.585 394.0
5.6 367.0
5.615 376.0
5.63 378.0
5.645 364.0
5.66 348.0
5.675 371.0
5.69 359.0
5.705 366.0
5.72 382.0
5.735 366.0
5.75 372.0
5.765 375.0
5.78 356.0
5.795 392.0
5.81 394.0
5.825 381.0
5.84 397.0
5.855 409.0
5.87 417.0
5.885 418.0
5.9 460.0
5.915 449.0
5.93 440.0
5.945 427.0
5.96 455.0
5.975 481.0
5.99 487.0
6.005 532.0
6.02 548.0
6.035 599.0
6.05 601.0
6.065 642.0
6.08 707.0
6.095 790.0
6.11 895.0
6.125 949.0
6.14 1038.0
6.155 1095.0
6.17 979.0
6.185 770.0
6.2 587.0
6.215 507.0
6.23 475.0
6.245 408.0
6.26 391.0
6.275 392.0
6.29 396.0
6.305 395.0
6.32 379.0
6.335 340.0
6.35 360.0
6.365 370.0
6.38 395.0
6.395 388.0
6.41 359.0
6.425 362.0
6.44 361.0
6.455 360.0
6.47 350.0
6.485 366.0
6.5 361.0
6.515 383.0
6.53 364.0
6.545 372.0
6.56 344.0
6.575 346.0
6.59 362.0
6.605 368.0
6.62 380.0
6.635 362.0
6.65 383.0
6.665 356.0
6.68 350.0
6.695 374.0
6.71 361.0
6.725 388.0
6.74 363.0
6.755 339.0
6.77 340.0
6.785 358.0
6.8 330.0
6.815 355.0
6.83 351.0
6.845 364.0
6.86 370.0
6.875 328.0
6.89 324.0
6.905 330.0
6.92 346.0
6.935 361.0
6.95 391.0
6.965 351.0
6.98 357.0
6.995 354.0
7.01 390.0
7.025 380.0
7.04 374.0
7.055 352.0
7.07 371.0
7.085 391.0
7.1 364.0
7.115 356.0
7.13 326.0
7.145 340.0
7.16 356.0
7.175 370.0
7.19 356.0
7.205 350.0
7.22 351.0
7.235 409.0
7.25 371.0
7.265 385.0
7.28 377.0
7.295 366.0
7.31 348.0
7.325 356.0
7.34 361.0
7.355 369.0
7.37 350.0
7.385 374.0
7.4 386.0
7.415 347.0
7.43 348.0
7.445 340.0
7.46 332.0
7.475 347.0
7.49 335.0
7.505 319.0
7.52 352.0
7.535 350.0
7.55 360.0
7.565 337.0
7.58 369.0
7.595 379.0
7.61 364.0
7.625 358.0
7.64 366.0
7.655 362.0
7.67 364.0
7.685 373.0
7.7 365.0
7.715 377.0
7.73 373.0
7.745 346.0
7.76 356.0
7.775 386.0
7.79 364.0
7.805 366.0
7.82 365.0
7.835 342.0
7.85 341.0
7.865 325.0
7.88 365.0
7.895 347.0
7.91 361.0
7.925 345.0
7.94 352.0
7.955 349.0
7.97 352.0
7.985 372.0
8.0 358.0
8.015 372.0
8.03 367.0
8.045 370.0
8.06 384.0
8.075 369.0
8.09 377.0
8.105 346.0
8.12 336.0
8.135 348.0
8.15 331.0
8.165 357.0
8.18 359.0
8.195 350.0
8.21 342.0
8.225 374.0
8.24 352.0
8.255 341.0
8.27 346.0
8.285 370.0
8.3 363.0
8.315 361.0
8.33 372.0
8.345 360.0
8.36 360.0
8.375 355.0
8.39 341.0
8.405 348.0
8.42 376.0
8.435 364.0
8.45 350.0
8.465 344.0
8.48 349.0
8.495 370.0
8.51 376.0
8.525 357.0
8.54 359.0
8.555 354.0
8.57 364.0
8.585 377.0
8.6 387.0
8.615 362.0
8.63 361.0
8.645 349.0
8.66 324.0
8.675 353.0
8.69 351.0
8.705 355.0
8.72 360.0
8.735 366.0
8.75 349.0
8.765 368.0
8.78 348.0
8.795 322.0
8.81 352.0
8.825 362.0
8.84 361.0
8.855 373.0
8.87 358.0
8.885 376.0
8.9 372.0
8.915 370.0
8.93 355.0
8.945 351.0
8.96 344.0
8.975 369.0
8.99 378.0
9.005 370.0
9.02 349.0
9.035 340.0
9.05 343.0
9.065 343.0
9.08 380.0
9.095 381.0
9.11 375.0
9.125 372.0
9.14 358.0
9.155 373.0
9.17 357.0
9.185 350.0
9.2 346.0
9.215 363.0
9.23 331.0
9.245 338.0
9.26 353.0
9.275 361.0
9.29 379.0
9.305 357.0
9.32 379.0
9.335 353.0
9.35 350.0
9.365 343.0
9.38 351.0
9.395 380.0
9.41 353.0
9.425 365.0
9.44 346.0
9.455 362.0
9.47 377.0
9.485 375.0
9.5 357.0
9.515 373.0
9.53 365.0
9.545 359.0
9.56 341.0
9.575 373.0
9.59 342.0
9.605 353.0
9.62 362.0
9.635 362.0
9.65 331.0
9.665 364.0
9.68 349.0
9.695 354.0
9.71 359.0
9.725 354.0
9.74 334.0
9.755 353.0
9.77 365.0
9.785 348.0
9.8 366.0
9.815 363.0
9.83 365.0
9.845 370.0
9.86 361.0
9.875 349.0
9.89 353.0
9.905 381.0
9.92 375.0
9.935 369.0
9.95 381.0
9.965 371.0
9.98 365.0
9.995 379.0
10.01 366.0
10.025 353.0
10.04 357.0
10.055 370.0
10.07 348.0
10.085 361.0
10.1 361.0
10.115 372.0
10.13 344.0
10.145 347.0
10.16 375.0
10.175 366.0
10.19 355.0
10.205 366.0
10.22 378.0
10.235 384.0
10.25 398.0
10.265 378.0
10.28 364.0
10.295 376.0
10.31 353.0
10.325 375.0
10.34 366.0
10.355 372.0
10.37 370.0
10.385 345.0
10.4 370.0
10.415 368.0
10.43 387.0
10.445 389.0
10.46 364.0
10.475 329.0
10.49 336.0
10.505 353.0
10.52 344.0
10.535 372.0
10.55 394.0
10.565 367.0
10.58 385.0
10.595 388.0
10.61 399.0
10.625 391.0
10.64 356.0
10.655 343.0
10.67 377.0
10.685 384.0
10.7 382.0
10.715 387.0
10.73 386.0
10.745 373.0
10.76 389.0
10.775 363.0
10.79 381.0
10.805 385.0
10.82 385.0
10.835 374.0
10.85 354.0
10.865 362.0
10.88 392.0
10.895 380.0
10.91 371.0
10.925 393.0
10.94 415.0
10.955 401.0
10.97 377.0
10.985 386.0
11.0 362.0
11.015 391.0
11.03 413.0
11.045 388.0
11.06 377.0
11.075 393.0
11.09 385.0
11.105 377.0
11.12 392.0
11.135 390.0
11.15 394.0
11.165 419.0
11.18 406.0
11.195 405.0
11.21 398.0
11.225 387.0
11.24 393.0
11.255 417.0
11.27 384.0
11.285 371.0
11.3 387.0
11.315 402.0
11.33 370.0
11.345 389.0
11.36 381.0
11.375 362.0
11.39 368.0
11.405 396.0
11.42 419.0
11.435 401.0
11.45 370.0
11.465 380.0
11.48 361.0
11.495 366.0
11.51 379.0
11.525 381.0
11.54 415.0
11.555 397.0
11.57 376.0
11.585 382.0
11.6 402.0
11.615 380.0
11.63 375.0
11.645 359.0
11.66 393.0
11.675 392.0
11.69 377.0
11.705 375.0
11.72 385.0
11.735 397.0
11.75 409.0
11.765 395.0
11.78 418.0
11.795 415.0
11.81 413.0
11.825 400.0
11.84 409.0
11.855 419.0
11.87 436.0
11.885 437.0
11.9 392.0
11.915 403.0
11.93 452.0
11.945 469.0
11.96 431.0
11.975 440.0
11.99 477.0
12.005 493.0
12.02 534.0
12.035 571.0
12.05 534.0
12.065 587.0
12.08 635.0
12.095 688.0
12.11 795.0
12.125 910.0
12.14 932.0
12.155 1082.0
12.17 1260.0
12.185 1423.0
12.2 1608.0
12.215 1792.0
12.23 1951.0
12.245 2110.0
12.26 2249.0
12.275 2308.0
12.29 2432.0
12.305 2554.0
12.32 2531.0
12.335 2307.0
12.35 1796.0
12.365 1291.0
12.38 956.0
12.395 813.0
12.41 710.0
12.425 650.0
12.44 625.0
12.455 602.0
12.47 630.0
12.485 600.0
12.5 586.0
12.515 575.0
12.53 558.0
12.545 585.0
12.56 599.0
12.575 552.0
12.59 547.0
12.605 522.0
12.62 559.0
12.635 566.0
12.65 560.0
12.665 527.0
12.68 531.0
12.695 551.0
12.71 500.0
12.725 557.0
12.74 515.0
12.755 545.0
12.77 514.0
12.785 501.0
12.8 502.0
12.815 537.0
12.83 515.0
12.845 515.0
12.86 517.0
12.875 510.0
12.89 544.0
12.905 528.0
12.92 503.0
12.935 519.0
12.95 508.0
12.965 485.0
12.98 517.0
12.995 505.0
13.01 505.0
13.025 490.0
13.04 485.0
13.055 517.0
13.07 514.0
13.085 520.0
13.1 489.0
13.115 486.0
13.13 502.0
13.145 518.0
13.16 520.0
13.175 507.0
13.19 525.0
13.205 535.0
13.22 556.0
13.235 534.0
13.25 548.0
13.265 567.0
13.28 597.0
13.295 602.0
13.31 615.0
13.325 630.0
13.34 660.0
13.355 685.0
13.37 708.0
13.385 719.0
13.4 730.0
13.415 739.0
13.43 783.0
13.445 689.0
13.46 645.0
13.475 621.0
13.49 588.0
13.505 552.0
13.52 514.0
13.535 543.0
13.55 521.0
13.565 525.0
13.58 541.0
13.595 558.0
13.61 523.0
13.625 490.0
13.64 544.0
13.655 530.0
13.67 514.0
13.685 512.0
13.7 513.0
13.715 487.0
13.73 504.0
13.745 470.0
13.76 476.0
13.775 467.0
13.79 444.0
13.805 472.0
13.82 462.0
13.835 456.0
13.85 462.0
13.865 471.0
13.88 440.0
13.895 433.0
13.91 456.0
13.925 440.0
13.94 451.0
13.955 444.0
13.97 470.0
13.985 442.0
14.0 419.0
14.015 418.0
14.03 430.0
14.045 421.0
14.06 438.0
14.075 439.0
14.09 451.0
14.105 452.0
14.12 435.0
14.135 461.0
14.15 441.0
14.165 472.0
14.18 444.0
14.195 444.0
14.21 434.0
14.225 457.0
14.24 457.0
14.255 418.0
14.27 462.0
14.285 458.0
14.3 452.0
14.315 451.0
14.33 423.0
14.345 440.0
14.36 444.0
14.375 438.0
14.39 437.0
14.405 433.0
14.42 415.0
14.435 442.0
14.45 443.0
14.465 422.0
14.48 440.0
14.495 436.0
14.51 427.0
14.525 450.0
14.54 465.0
14.555 429.0
14.57 443.0
14.585 445.0
14.6 441.0
14.615 438.0
14.63 440.0
14.645 454.0
14.66 443.0
14.675 455.0
14.69 429.0
14.705 390.0
14.72 429.0
14.735 405.0
14.75 401.0
14.765 465.0
14.78 447.0
14.795 433.0
14.81 420.0
14.825 406.0
14.84 449.0
14.855 409.0
14.87 422.0
14.885 430.0
14.9 423.0
14.915 460.0
14.93 427.0
14.945 439.0
14.96 475.0
14.975 462.0
14.99 441.0
15.005 446.0
15.02 431.0
15.035 407.0
15.05 430.0
15.065 418.0
15.08 420.0
15.095 418.0
15.11 415.0
15.125 470.0
15.14 446.0
15.155 390.0
15.17 423.0
15.185 438.0
15.2 420.0
15.215 442.0
15.23 410.0
15.245 391.0
15.26 392.0
15.275 405.0
15.29 447.0
15.305 443.0
15.32 428.0
15.335 418.0
15.35 439.0
15.365 388.0
15.38 397.0
15.395 440.0
15.41 439.0
15.425 419.0
15.44 399.0
15.455 415.0
15.47 415.0
15.485 423.0
15.5 414.0
15.515 424.0
15.53 442.0
15.545 405.0
15.56 426.0
15.575 441.0
15.59 426.0
15.605 417.0
15.62 427.0
15.635 444.0
15.65 434.0
15.665 448.0
15.68 434.0
15.695 426.0
15.71 456.0
15.725 443.0
15.74 421.0
15.755 403.0
15.77 405.0
15.785 413.0
15.8 385.0
15.815 395.0
15.83 424.0
15.845 441.0
15.86 462.0
15.875 428.0
15.89 397.0
15.905 436.0
15.92 446.0
15.935 439.0
15.95 414.0
15.965 438.0
15.98 450.0
15.995 439.0
16.01 414.0
16.025 441.0
16.04 414.0
16.055 446.0
16.07 408.0
16.085 434.0
16.1 464.0
16.115 452.0
16.13 412.0
16.145 418.0
16.16 408.0
16.175 412.0
16.19 445.0
16.205 453.0
16.22 445.0
16.235 482.0
16.25 461.0
16.265 490.0
16.28 453.0
16.295 487.0
16.31 485.0
16.325 459.0
16.34 482.0
16.355 456.0
16.37 500.0
16.385 501.0
16.4 498.0
16.415 472.0
16.43 497.0
16.445 495.0
16.46 472.0
16.475 473.0
16.49 519.0
16.505 472.0
16.52 477.0
16.535 489.0
16.55 481.0
16.565 458.0
16.58 454.0
16.595 498.0
16.61 444.0
16.625 435.0
16.64 402.0
16.655 426.0
16.67 463.0
16.685 431.0
16.7 433.0
16.715 450.0
16.73 440.0
16.745 437.0
16.76 449.0
16.775 466.0
16.79 464.0
16.805 457.0
16.82 456.0
16.835 477.0
16.85 481.0
16.865 460.0
16.88 480.0
16.895 482.0
16.91 487.0
16.925 454.0
16.94 462.0
16.955 469.0
16.97 469.0
16.985 453.0
17.0 461.0
17.015 472.0
17.03 465.0
17.045 433.0
17.06 450.0
17.075 453.0
17.09 457.0
17.105 455.0
17.12 480.0
17.135 430.0
17.15 467.0
17.165 464.0
17.18 469.0
17.195 480.0
17.21 434.0
17.225 438.0
17.24 465.0
17.255 449.0
17.27 440.0
17.285 450.0
17.3 475.0
17.315 472.0
17.33 438.0
17.345 446.0
17.36 497.0
17.375 477.0
17.39 429.0
17.405 422.0
17.42 460.0
17.435 466.0
17.45 459.0
17.465 451.0
17.48 440.0
17.495 454.0
17.51 457.0
17.525 456.0
17.54 445.0
17.555 466.0
17.57 472.0
17.585 449.0
17.6 457.0
17.615 467.0
17.63 464.0
17.645 476.0
17.66 515.0
17.675 492.0
17.69 480.0
17.705 448.0
17.72 465.0
17.735 474.0
17.75 458.0
17.765 457.0
17.78 493.0
17.795 494.0
17.81 467.0
17.825 460.0
17.84 467.0
17.855 476.0
17.87 485.0
17.885 467.0
17.9 484.0
17.915 468.0
17.93 454.0
17.945 462.0
17.96 489.0
17.975 485.0
17.99 505.0
18.005 545.0
18.02 533.0
18.035 553.0
18.05 528.0
18.065 540.0
18.08 520.0
18.095 525.0
18.11 564.0
18.125 551.0
18.14 513.0
18.155 515.0
18.17 495.0
18.185 533.0
18.2 478.0
18.215 472.0
18.23 491.0
18.245 471.0
18.26 459.0
18.275 477.0
18.29 497.0
18.305 489.0
18.32 463.0
18.335 489.0
18.35 492.0
18.365 496.0
18.38 499.0
18.395 476.0
18.41 475.0
18.425 518.0
18.44 516.0
18.455 501.0
18.47 537.0
18.485 523.0
18.5 539.0
18.515 546.0
18.53 549.0
18.545 539.0
18.56 552.0
18.575 541.0
18.59 487.0
18.605 473.0
18.62 502.0
18.635 442.0
18.65 476.0
18.665 449.0
18.68 509.0
18.695 504.0
18.71 476.0
18.725 513.0
18.74 496.0
18.755 486.0
18.77 486.0
18.785 521.0
18.8 520.0
18.815 503.0
18.83 534.0
18.845 477.0
18.86 500.0
18.875 502.0
18.89 517.0
18.905 510.0
18.92 490.0
18.935 516.0
18.95 480.0
18.965 475.0
18.98 492.0
18.995 461.0
19.01 475.0
19.025 483.0
19.04 490.0
19.055 502.0
19.07 484.0
19.085 461.0
19.1 475.0
19.115 523.0
19.13 498.0
19.145 496.0
19.16 494.0
19.175 464.0
19.19 499.0
19.205 475.0
19.22 466.0
19.235 504.0
19.25 513.0
19.265 489.0
19.28 489.0
19.295 509.0
19.31 538.0
19.325 543.0
19.34 534.0
19.355 536.0
19.37 555.0
19.385 580.0
19.4 569.0
19.415 574.0
19.43 606.0
19.445 587.0
19.46 595.0
19.475 599.0
19.49 616.0
19.505 631.0
19.52 607.0
19.535 569.0
19.55 582.0
19.565 567.0
19.58 548.0
19.595 586.0
19.61 655.0
19.625 628.0
19.64 608.0
19.655 599.0
19.67 573.0
19.685 499.0
19.7 527.0
19.715 535.0
19.73 511.0
19.745 484.0
19.76 491.0
19.775 530.0
19.79 496.0
19.805 472.0
19.82 529.0
19.835 492.0
19.85 497.0
19.865 511.0
19.88 506.0
19.895 504.0
19.91 487.0
19.925 508.0
19.94 489.0
19.955 490.0
19.97 501.0
19.985 481.0
20.0 520.0
20.015 528.0
20.03 511.0
20.045 500.0
20.06 510.0
20.075 496.0
20.09 498.0
20.105 483.0
20.12 494.0
20.135 517.0
20.15 485.0
20.165 459.0
20.18 491.0
20.195 484.0
20.21 513.0
20.225 520.0
20.24 523.0
20.255 493.0
20.27 518.0
20.285 465.0
20.3 472.0
20.315 503.0
20.33 502.0
20.345 507.0
20.36 494.0
20.375 452.0
20.39 521.0
20.405 523.0
20.42 506.0
20.435 472.0
20.45 473.0
20.465 498.0
20.48 481.0
20.495 486.0
20.51 532.0
20.525 488.0
20.54 489.0
20.555 499.0
20.57 497.0
20.585 500.0
20.6 516.0
20.615 504.0
20.63 527.0
20.645 492.0
20.66 526.0
20.675 529.0
20.69 530.0
20.705 472.0
20.72 499.0
20.735 495.0
20.75 537.0
20.765 509.0
20.78 501.0
20.795 513.0
20.81 510.0
20.825 519.0
20.84 491.0
20.855 500.0
20.87 517.0
20.885 536.0
20.9 515.0
20.915 523.0
20.93 531.0
20.945 506.0
20.96 494.0
20.975 505.0
20.99 469.0
21.005 469.0
21.02 527.0
21.035 536.0
21.05 468.0
21.065 487.0
21.08 504.0
21.095 504.0
21.11 521.0
21.125 529.0
21.14 517.0
21.155 524.0
21.17 514.0
21.185 520.0
21.2 503.0
21.215 520.0
21.23 521.0
21.245 537.0
21.26 522.0
21.275 510.0
21.29 510.0
21.305 553.0
21.32 533.0
21.335 509.0
21.35 498.0
21.365 501.0
21.38 539.0
21.395 556.0
21.41 569.0
21.425 540.0
21.44 544.0
21.455 537.0
21.47 545.0
21.485 514.0
21.5 532.0
21.515 547.0
21.53 564.0
21.545 552.0
21.56 581.0
21.575 565.0
21.59 579.0
21.605 560.0
21.62 581.0
21.635 555.0
21.65 563.0
21.665 585.0
21.68 587.0
21.695 553.0
21.71 533.0
21.725 559.0
21.74 544.0
21.755 535.0
21.77 578.0
21.785 542.0
21.8 546.0
21.815 552.0
21.83 547.0
21.845 541.0
21.86 566.0
21.875 542.0
21.89 529.0
21.905 556.0
21.92 545.0
21.935 561.0
21.95 554.0
21.965 534.0
21.98 558.0
21.995 542.0
22.01 548.0
22.025 571.0
22.04 569.0
22.055 585.0
22.07 592.0
22.085 594.0
22.1 576.0
22.115 620.0
22.13 624.0
22.145 585.0
22.16 582.0
22.175 571.0
22.19 590.0
22.205 597.0
22.22 577.0
22.235 537.0
22.25 530.0
22.265 546.0
22.28 547.0
22.295 539.0
22.31 540.0
22.325 572.0
22.34 557.0
22.355 515.0
22.37 573.0
22.385 577.0
22.4 555.0
22.415 521.0
22.43 528.0
22.445 520.0
22.46 548.0
22.475 549.0
22.49 574.0
22.505 535.0
22.52 539.0
22.535 546.0
22.55 516.0
22.565 530.0
22.58 536.0
22.595 529.0
22.61 558.0
22.625 553.0
22.64 539.0
22.655 547.0
22.67 529.0
22.685 552.0
22.7 524.0
22.715 543.0
22.73 530.0
22.745 519.0
22.76 524.0
22.775 516.0
22.79 514.0
22.805 544.0
22.82 538.0
22.835 567.0
22.85 525.0
22.865 532.0
22.88 557.0
22.895 512.0
22.91 523.0
22.925 525.0
22.94 547.0
22.955 572.0
22.97 542.0
22.985 535.0
23.0 509.0
23.015 546.0
23.03 549.0
23.045 537.0
23.06 559.0
23.075 551.0
23.09 562.0
23.105 548.0
23.12 567.0
23.135 601.0
23.15 565.0
23.165 574.0
23.18 575.0
23.195 587.0
23.21 574.0
23.225 588.0
23.24 565.0
23.255 570.0
23.27 585.0
23.285 585.0
23.3 561.0
23.315 571.0
23.33 582.0
23.345 571.0
23.36 577.0
23.375 568.0
23.39 581.0
23.405 577.0
23.42 587.0
23.435 610.0
23.45 594.0
23.465 558.0
23.48 585.0
23.495 588.0
23.51 585.0
23.525 592.0
23.54 577.0
23.555 576.0
23.57 589.0
23.585 606.0
23.6 576.0
23.615 618.0
23.63 567.0
23.645 578.0
23.66 561.0
23.675 564.0
23.69 578.0
23.705 574.0
23.72 599.0
23.735 601.0
23.75 563.0
23.765 535.0
23.78 567.0
23.795 587.0
23.81 546.0
23.825 522.0
23.84 570.0
23.855 583.0
23.87 569.0
23.885 572.0
23.9 610.0
23.915 549.0
23.93 552.0
23.945 558.0
23.96 549.0
23.975 563.0
23.99 554.0
24.005 528.0
24.02 513.0
24.035 503.0
24.05 547.0
24.065 570.0
24.08 521.0
24.095 576.0
24.11 557.0
24.125 548.0
24.14 561.0
24.155 575.0
24.17 569.0
24.185 531.0
24.2 563.0
24.215 580.0
24.23 567.0
24.245 536.0
24.26 541.0
24.275 509.0
24.29 506.0
24.305 573.0
24.32 555.0
24.335 519.0
24.35 557.0
24.365 564.0
24.38 555.0
24.395 532.0
24.41 519.0
24.425 562.0
24.44 572.0
24.455 591.0
24.47 564.0
24.485 558.0
24.5 566.0
24.515 540.0
24.53 543.0
24.545 610.0
24.56 573.0
24.575 563.0
24.59 550.0
24.605 576.0
24.62 586.0
24.635 571.0
24.65 583.0
24.665 651.0
24.68 596.0
24.695 610.0
24.71 612.0
24.725 657.0
24.74 657.0
24.755 659.0
24.77 677.0
24.785 704.0
24.8 703.0
24.815 653.0
24.83 606.0
24.845 610.0
24.86 618.0
24.875 602.0
24.89 610.0
24.905 581.0
24.92 594.0
24.935 612.0
24.95 585.0
24.965 574.0
24.98 584.0
24.995 585.0
25.01 590.0
25.025 594.0
25.04 581.0
25.055 571.0
25.07 603.0
25.085 582.0
25.1 590.0
25.115 621.0
25.13 641.0
25.145 636.0
25.16 629.0
25.175 636.0
25.19 623.0
25.205 646.0
25.22 679.0
25.235 677.0
25.25 657.0
25.265 638.0
25.28 653.0
25.295 646.0
25.31 644.0
25.325 639.0
25.34 653.0
25.355 663.0
25.37 605.0
25.385 608.0
25.4 623.0
25.415 605.0
25.43 639.0
25.445 663.0
25.46 673.0
25.475 618.0
25.49 638.0
25.505 633.0
25.52 636.0
25.535 660.0
25.55 649.0
25.565 635.0
25.58 679.0
25.595 704.0
25.61 692.0
25.625 673.0
25.64 704.0
25.655 746.0
25.67 717.0
25.685 768.0
25.7 776.0
25.715 794.0
25.73 876.0
25.745 905.0
25.76 959.0
25.775 973.0
25.79 919.0
25.805 952.0
25.82 929.0
25.835 945.0
25.85 944.0
25.865 885.0
25.88 839.0
25.895 814.0
25.91 791.0
25.925 788.0
25.94 767.0
25.955 766.0
25.97 754.0
25.985 719.0
26.0 707.0
26.015 769.0
26.03 756.0
26.045 736.0
26.06 771.0
26.075 734.0
26.09 768.0
26.105 729.0
26.12 756.0
26.135 771.0
26.15 824.0
26.165 822.0
26.18 846.0
26.195 873.0
26.21 875.0
26.225 878.0
26.24 942.0
26.255 1002.0
26.27 995.0
26.285 1028.0
26.3 1113.0
26.315 1090.0
26.33 1146.0
26.345 1151.0
26.36 1100.0
26.375 1070.0
26.39 1030.0
26.405 1063.0
26.42 1044.0
26.435 1036.0
26.45 1007.0
26.465 951.0
26.48 946.0
26.495 989.0
26.51 968.0
26.525 919.0
26.54 929.0
26.555 956.0
26.57 954.0
26.585 975.0
26.6 981.0
26.615 986.0
26.63 963.0
26.645 969.0
26.66 1000.0
26.675 1030.0
26.69 1044.0
26.705 1030.0
26.72 1087.0
26.735 1113.0
26.75 1148.0
26.765 1090.0
26.78 1128.0
26.795 1160.0
26.81 1152.0
26.825 1201.0
26.84 1175.0
26.855 1136.0
26.87 1136.0
26.885 1078.0
26.9 1119.0
26.915 1087.0
26.93 1111.0
26.945 1120.0
26.96 1178.0
26.975 1197.0
26.99 1187.0
27.005 1246.0
27.02 1298.0
27.035 1305.0
27.05 1295.0
27.065 1324.0
27.08 1419.0
27.095 1431.0
27.11 1445.0
27.125 1443.0
27.14 1471.0
27.155 1524.0
27.17 1528.0
27.185 1416.0
27.2 1517.0
27.215 1444.0
27.23 1368.0
27.245 1371.0
27.26 1350.0
27.275 1365.0
27.29 1412.0
27.305 1350.0
27.32 1389.0
27.335 1421.0
27.35 1344.0
27.365 1311.0
27.38 1331.0
27.395 1372.0
27.41 1411.0
27.425 1385.0
27.44 1354.0
27.455 1348.0
27.47 1374.0
27.485 1371.0
27.5 1306.0
27.515 1404.0
27.53 1340.0
27.545 1366.0
27.56 1433.0
27.575 1443.0
27.59 1457.0
27.605 1420.0
27.62 1420.0
27.635 1418.0
27.65 1459.0
27.665 1494.0
27.68 1498.0
27.695 1565.0
27.71 1560.0
27.725 1496.0
27.74 1555.0
27.755 1597.0
27.77 1613.0
27.785 1676.0
27.8 1724.0
27.815 1735.0
27.83 1663.0
27.845 1639.0
27.86 1561.0
27.875 1436.0
27.89 1410.0
27.905 1368.0
27.92 1325.0
27.935 1250.0
27.95 1131.0
27.965 1137.0
27.98 1114.0
27.995 1049.0
28.01 1001.0
28.025 995.0
28.04 977.0
28.055 956.0
28.07 944.0
28.085 927.0
28.1 879.0
28.115 829.0
28.13 869.0
28.145 846.0
28.16 823.0
28.175 805.0
28.19 813.0
28.205 758.0
28.22 793.0
28.235 779.0
28.25 783.0
28.265 713.0
28.28 754.0
28.295 741.0
28.31 711.0
28.325 705.0
28.34 721.0
28.355 687.0
28.37 724.0
28.385 722.0
28.4 693.0
28.415 678.0
28.43 672.0
28.445 687.0
28.46 630.0
28.475 670.0
28.49 697.0
28.505 638.0
28.52 633.0
28.535 641.0
28.55 611.0
28.565 633.0
28.58 594.0
28.595 603.0
28.61 617.0
28.625 581.0
28.64 596.0
28.655 584.0
28.67 626.0
28.685 601.0
28.7 580.0
28.715 576.0
28.73 575.0
28.745 595.0
28.76 584.0
28.775 620.0
28.79 568.0
28.805 575.0
28.82 602.0
28.835 589.0
28.85 598.0
28.865 601.0
28.88 579.0
28.895 557.0
28.91 579.0
28.925 560.0
28.94 562.0
28.955 575.0
28.97 560.0
28.985 552.0
29.0 558.0
29.015 580.0
29.03 548.0
29.045 570.0
29.06 543.0
29.075 514.0
29.09 537.0
29.105 546.0
29.12 560.0
29.135 500.0
29.15 550.0
29.165 567.0
29.18 528.0
29.195 556.0
29.21 572.0
29.225 557.0
29.24 535.0
29.255 520.0
29.27 508.0
29.285 516.0
29.3 509.0
29.315 520.0
29.33 520.0
29.345 498.0
29.36 502.0
29.375 517.0
29.39 502.0
29.405 507.0
29.42 499.0
29.435 489.0
29.45 490.0
29.465 512.0
29.48 522.0
29.495 513.0
29.51 480.0
29.525 510.0
29.54 507.0
29.555 467.0
29.57 518.0
29.585 507.0
29.6 502.0
29.615 511.0
29.63 495.0
29.645 494.0
29.66 466.0
29.675 478.0
29.69 454.0
29.705 478.0
29.72 466.0
29.735 502.0
29.75 482.0
29.765 469.0
29.78 457.0
29.795 491.0
29.81 473.0
29.825 462.0
29.84 472.0
29.855 477.0
29.87 464.0
29.885 473.0
29.9 500.0
29.915 481.0
29.93 503.0
29.945 473.0
29.96 503.0
29.975 497.0
29.99 516.0
30.005 541.0
30.02 524.0
30.035 540.0
30.05 531.0
30.065 519.0
30.08 529.0
30.095 545.0
30.11 553.0
30.125 509.0
30.14 486.0
30.155 512.0
30.17 477.0
30.185 494.0
30.2 490.0
30.215 499.0
30.23 503.0
30.245 475.0
30.26 443.0
30.275 468.0
30.29 465.0
30.305 493.0
30.32 480.0
30.335 505.0
30.35 490.0
30.365 497.0
30.38 454.0
30.395 425.0
30.41 429.0
30.425 445.0
30.44 454.0
30.455 458.0
30.47 434.0
30.485 444.0
30.5 424.0
30.515 443.0
30.53 429.0
30.545 471.0
30.56 452.0
30.575 460.0
30.59 456.0
30.605 474.0
30.62 461.0
30.635 465.0
30.65 471.0
30.665 482.0
30.68 453.0
30.695 483.0
30.71 499.0
30.725 488.0
30.74 549.0
30.755 493.0
30.77 487.0
30.785 502.0
30.8 501.0
30.815 495.0
30.83 477.0
30.845 503.0
30.86 484.0
30.875 449.0
30.89 461.0
30.905 496.0
30.92 501.0
30.935 491.0
30.95 467.0
30.965 496.0
30.98 486.0
30.995 486.0
31.01 507.0
31.025 491.0
31.04 527.0
31.055 553.0
31.07 579.0
31.085 615.0
31.1 625.0
31.115 632.0
31.13 603.0
31.145 602.0
31.16 546.0
31.175 526.0
31.19 485.0
31.205 453.0
31.22 490.0
31.235 450.0
31.25 447.0
31.265 439.0
31.28 428.0
31.295 445.0
31.31 429.0
31.325 399.0
31.34 422.0
31.355 413.0
31.37 430.0
31.385 440.0
31.4 412.0
31.415 385.0
31.43 406.0
31.445 412.0
31.46 443.0
31.475 440.0
31.49 446.0
31.505 428.0
31.52 404.0
31.535 396.0
31.55 426.0
31.565 419.0
31.58 422.0
31.595 421.0
31.61 435.0
31.625 400.0
31.64 422.0
31.655 417.0
31.67 422.0
31.685 413.0
31.7 423.0
31.715 420.0
31.73 434.0
31.745 444.0
31.76 386.0
31.775 374.0
31.79 360.0
31.805 382.0
31.82 380.0
31.835 403.0
31.85 394.0
31.865 396.0
31.88 399.0
31.895 385.0
31.91 390.0
31.925 381.0
31.94 375.0
31.955 365.0
31.97 405.0
31.985 398.0
32.0 367.0
32.015 380.0
32.03 361.0
32.045 368.0
32.06 388.0
32.075 393.0
32.09 385.0
32.105 385.0
32.12 386.0
32.135 394.0
32.15 394.0
32.165 396.0
32.18 380.0
32.195 383.0
32.21 375.0
32.225 391.0
32.24 354.0
32.255 390.0
32.27 369.0
32.285 375.0
32.3 360.0
32.315 361.0
32.33 368.0
32.345 384.0
32.36 343.0
32.375 339.0
32.39 354.0
32.405 344.0
32.42 367.0
32.435 355.0
32.45 336.0
32.465 350.0
32.48 356.0
32.495 381.0
32.51 348.0
32.525 367.0
32.54 363.0
32.555 351.0
32.57 355.0
32.585 356.0
32.6 360.0
32.615 386.0
32.63 376.0
32.645 346.0
32.66 333.0
32.675 326.0
32.69 335.0
32.705 333.0
32.72 371.0
32.735 371.0
32.75 372.0
32.765 335.0
32.78 322.0
32.795 338.0
32.81 345.0
32.825 351.0
32.84 325.0
32.855 374.0
32.87 331.0
32.885 355.0
32.9 360.0
32.915 377.0
32.93 351.0
32.945 340.0
32.96 348.0
32.975 338.0
32.99 339.0
33.005 339.0
33.02 347.0
33.035 347.0
33.05 348.0
33.065 324.0
33.08 355.0
33.095 345.0
33.11 347.0
33.125 344.0
33.14 324.0
33.155 371.0
33.17 350.0
33.185 343.0
33.2 341.0
33.215 370.0
33.23 344.0
33.245 324.0
33.26 323.0
33.275 354.0
33.29 339.0
33.305 317.0
33.32 351.0
33.335 330.0
33.35 329.0
33.365 333.0
33.38 330.0
33.395 329.0
33.41 332.0
33.425 329.0
33.44 346.0
33.455 338.0
33.47 326.0
33.485 327.0
33.5 315.0
33.515 334.0
33.53 333.0
33.545 347.0
33.56 341.0
33.575 333.0
33.59 334.0
33.605 341.0
33.62 316.0
33.635 355.0
33.65 353.0
33.665 374.0
33.68 355.0
33.695 340.0
33.71 358.0
33.725 350.0
33.74 316.0
33.755 357.0
33.77 359.0
33.785 358.0
33.8 345.0
33.815 343.0
33.83 355.0
33.845 341.0
33.86 360.0
33.875 380.0
33.89 327.0
33.905 375.0
33.92 363.0
33.935 334.0
33.95 360.0
33.965 368.0
33.98 347.0
33.995 343.0
34.01 335.0
34.025 347.0
34.04 344.0
34.055 329.0
34.07 359.0
34.085 325.0
34.1 334.0
34.115 322.0
34.13 333.0
34.145 337.0
34.16 314.0
34.175 319.0
34.19 326.0
34.205 326.0
34.22 327.0
34.235 321.0
34.25 332.0
34.265 310.0
34.28 285.0
34.295 307.0
34.31 310.0
34.325 348.0
34.34 329.0
34.355 294.0
34.37 318.0
34.385 321.0
34.4 321.0
34.415 307.0
34.43 297.0
34.445 313.0
34.46 288.0
34.475 306.0
34.49 327.0
34.505 320.0
34.52 318.0
34.535 304.0
34.55 326.0
34.565 344.0
34.58 312.0
34.595 334.0
34.61 306.0
34.625 311.0
34.64 309.0
34.655 325.0
34.67 333.0
34.685 305.0
34.7 301.0
34.715 291.0
34.73 285.0
34.745 293.0
34.76 301.0
34.775 311.0
34.79 314.0
34.805 285.0
34.82 314.0
34.835 302.0
34.85 294.0
34.865 321.0
34.88 309.0
34.895 300.0
34.91 321.0
34.925 297.0
34.94 321.0
34.955 302.0
34.97 310.0
34.985 289.0
35.0 294.0
35.015 303.0
35.03 304.0
35.045 281.0
35.06 296.0
35.075 312.0
35.09 272.0
35.105 283.0
35.12 290.0
35.135 303.0
35.15 296.0
35.165 309.0
35.18 287.0
35.195 288.0
35.21 255.0
35.225 276.0
35.24 282.0
35.255 308.0
35.27 268.0
35.285 270.0
35.3 295.0
35.315 301.0
35.33 264.0
35.345 282.0
35.36 292.0
35.375 278.0
35.39 283.0
35.405 291.0
35.42 288.0
35.435 310.0
35.45 285.0
35.465 254.0
35.48 274.0
35.495 276.0
35.51 264.0
35.525 287.0
35.54 296.0
35.555 267.0
35.57 272.0
35.585 266.0
35.6 259.0
35.615 295.0
35.63 284.0
35.645 280.0
35.66 292.0
35.675 302.0
35.69 262.0
35.705 265.0
35.72 267.0
35.735 277.0
35.75 256.0
35.765 245.0
35.78 269.0
35.795 264.0
35.81 278.0
35.825 301.0
35.84 289.0
35.855 273.0
35.87 273.0
35.885 265.0
35.9 248.0
35.915 274.0
35.93 256.0
35.945 277.0
35.96 267.0
35.975 287.0
35.99 273.0
36.005 260.0
36.02 254.0
36.035 263.0
36.05 248.0
36.065 256.0
36.08 260.0
36.095 278.0
36.11 272.0
36.125 273.0
36.14 255.0
36.155 272.0
36.17 251.0
36.185 250.0
36.2 259.0
36.215 271.0
36.23 257.0
36.245 268.0
36.26 284.0
36.275 259.0
36.29 272.0
36.305 253.0
36.32 266.0
36.335 245.0
36.35 281.0
36.365 248.0
36.38 252.0
36.395 265.0
36.41 254.0
36.425 274.0
36.44 260.0
36.455 272.0
36.47 247.0
36.485 245.0
36.5 262.0
36.515 257.0
36.53 268.0
36.545 244.0
36.56 261.0
36.575 259.0
36.59 262.0
36.605 254.0
36.62 255.0
36.635 265.0
36.65 222.0
36.665 246.0
36.68 255.0
36.695 268.0
36.71 263.0
36.725 241.0
36.74 277.0
36.755 285.0
36.77 230.0
36.785 236.0
36.8 263.0
36.815 255.0
36.83 256.0
36.845 224.0
36.86 248.0
36.875 235.0
36.89 234.0
36.905 263.0
36.92 267.0
36.935 255.0
36.95 252.0
36.965 252.0
36.98 270.0
36.995 244.0
37.01 265.0
37.025 262.0
37.04 247.0
37.055 255.0
37.07 266.0
37.085 251.0
37.1 253.0
37.115 249.0
37.13 250.0
37.145 258.0
37.16 238.0
37.175 248.0
37.19 270.0
37.205 220.0
37.22 253.0
37.235 255.0
37.25 227.0
37.265 237.0
37.28 247.0
37.295 232.0
37.31 249.0
37.325 243.0
37.34 260.0
37.355 241.0
37.37 237.0
37.385 253.0
37.4 236.0
37.415 261.0
37.43 256.0
37.445 234.0
37.46 260.0
37.475 250.0
37.49 255.0
37.505 278.0
37.52 267.0
37.535 288.0
37.55 276.0
37.565 274.0
37.58 272.0
37.595 264.0
37.61 276.0
37.625 255.0
37.64 269.0
37.655 240.0
37.67 227.0
37.685 242.0
37.7 248.0
37.715 244.0
37.73 272.0
37.745 248.0
37.76 237.0
37.775 240.0
37.79 235.0
37.805 266.0
37.82 222.0
37.835 226.0
37.85 236.0
37.865 220.0
37.88 248.0
37.895 248.0
37.91 230.0
37.925 235.0
37.94 238.0
37.955 274.0
37.97 251.0
37.985 262.0
38.0 268.0
38.015 228.0
38.03 245.0
38.045 243.0
38.06 259.0
38.075 252.0
38.09 262.0
38.105 260.0
38.12 243.0
38.135 236.0
38.15 246.0
38.165 239.0
38.18 233.0
38.195 231.0
38.21 230.0
38.225 237.0
38.24 222.0
38.255 231.0
38.27 244.0
38.285 233.0
38.3 223.0
38.315 228.0
38.33 224.0
38.345 249.0
38.36 252.0
38.375 237.0
38.39 262.0
38.405 274.0
38.42 258.0
38.435 240.0
38.45 243.0
38.465 247.0
38.48 231.0
38.495 241.0
38.51 244.0
38.525 223.0
38.54 248.0
38.555 231.0
38.57 230.0
38.585 248.0
38.6 231.0
38.615 247.0
38.63 226.0
38.645 229.0
38.66 224.0
38.675 248.0
38.69 222.0
38.705 219.0
38.72 245.0
38.735 240.0
38.75 233.0
38.765 248.0
38.78 249.0
38.795 211.0
38.81 237.0
38.825 226.0
38.84 222.0
38.855 257.0
38.87 249.0
38.885 228.0
38.9 227.0
38.915 253.0
38.93 235.0
38.945 250.0
38.96 231.0
38.975 216.0
38.99 227.0
39.005 243.0
39.02 226.0
39.035 231.0
39.05 235.0
39.065 214.0
39.08 230.0
39.095 256.0
39.11 236.0
39.125 234.0
39.14 241.0
39.155 265.0
39.17 248.0
39.185 248.0
39.2 250.0
39.215 228.0
39.23 219.0
39.245 225.0
39.26 239.0
39.275 236.0
39.29 230.0
39.305 219.0
39.32 219.0
39.335 214.0
39.35 227.0
39.365 238.0
39.38 238.0
39.395 247.0
39.41 241.0
39.425 222.0
39.44 229.0
39.455 235.0
39.47 237.0
39.485 230.0
39.5 250.0
39.515 241.0
39.53 244.0
39.545 201.0
39.56 214.0
39.575 229.0
39.59 259.0
39.605 232.0
39.62 225.0
39.635 224.0
39.65 230.0
39.665 237.0
39.68 233.0
39.695 256.0
39.71 221.0
39.725 218.0
39.74 232.0
39.755 257.0
39.77 248.0
39.785 249.0
39.8 244.0
39.815 229.0
39.83 236.0
39.845 240.0
39.86 240.0
39.875 228.0
39.89 212.0
39.905 222.0
39.92 267.0
39.935 280.0
39.95 259.0
39.965 233.0
39.98 250.0
39.995 245.0
40.01 238.0
40.025 235.0
40.04 232.0
40.055 235.0
40.07 226.0
40.085 231.0
40.1 238.0
40.115 220.0
40.13 225.0
40.145 232.0
40.16 233.0
40.175 254.0
40.19 246.0
40.205 253.0
40.22 248.0
40.235 240.0
40.25 264.0
40.265 232.0
40.28 231.0
40.295 266.0
40.31 272.0
40.325 260.0
40.34 252.0
40.355 255.0
40.37 249.0
40.385 239.0
40.4 248.0
40.415 252.0
40.43 245.0
40.445 246.0
40.46 243.0
40.475 250.0
40.49 233.0
40.505 254.0
40.52 262.0
40.535 251.0
40.55 248.0
40.565 247.0
40.58 251.0
40.595 269.0
40.61 250.0
40.625 260.0
40.64 244.0
40.655 245.0
40.67 247.0
40.685 249.0
40.7 235.0
40.715 240.0
40.73 252.0
40.745 259.0
40.76 261.0
40.775 252.0
40.79 254.0
40.805 250.0
40.82 231.0
40.835 240.0
40.85 256.0
40.865 235.0
40.88 259.0
40.895 252.0
40.91 255.0
40.925 242.0
40.94 270.0
40.955 242.0
40.97 240.0
40.985 262.0
41.0 252.0
41.015 245.0
41.03 241.0
41.045 255.0
41.06 248.0
41.075 257.0
41.09 218.0
41.105 239.0
41.12 252.0
41.135 259.0
41.15 292.0
41.165 275.0
41.18 267.0
41.195 249.0
41.21 247.0
41.225 243.0
41.24 260.0
41.255 256.0
41.27 255.0
41.285 258.0
41.3 232.0
41.315 242.0
41.33 245.0
41.345 255.0
41.36 251.0
41.375 239.0
41.39 244.0
41.405 234.0
41.42 247.0
41.435 224.0
41.45 204.0
41.465 223.0
41.48 233.0
41.495 220.0
41.51 204.0
41.525 237.0
41.54 243.0
41.555 229.0
41.57 236.0
41.585 243.0
41.6 252.0
41.615 237.0
41.63 226.0
41.645 214.0
41.66 225.0
41.675 255.0
41.69 238.0
41.705 245.0
41.72 225.0
41.735 218.0
41.75 234.0
41.765 242.0
41.78 234.0
41.795 246.0
41.81 228.0
41.825 222.0
41.84 216.0
41.855 227.0
41.87 246.0
41.885 222.0
41.9 223.0
41.915 246.0
41.93 226.0
41.945 256.0
41.96 253.0
41.975 266.0
41.99 231.0
42.005 248.0
42.02 235.0
42.035 255.0
42.05 236.0
42.065 206.0
42.08 242.0
42.095 227.0
42.11 237.0
42.125 236.0
42.14 249.0
42.155 246.0
42.17 237.0
42.185 214.0
42.2 220.0
42.215 231.0
42.23 240.0
42.245 248.0
42.26 246.0
42.275 246.0
42.29 220.0
42.305 252.0
42.32 258.0
42.335 228.0
42.35 237.0
42.365 225.0
42.38 222.0
42.395 224.0
42.41 238.0
42.425 268.0
42.44 224.0
42.455 218.0
42.47 231.0
42.485 249.0
42.5 231.0
42.515 228.0
42.53 239.0
42.545 246.0
42.56 223.0
42.575 227.0
42.59 252.0
42.605 237.0
42.62 241.0
42.635 234.0
42.65 208.0
42.665 245.0
42.68 223.0
42.695 225.0
42.71 256.0
42.725 281.0
42.74 270.0
42.755 264.0
42.77 247.0
42.785 246.0
42.8 228.0
42.815 243.0
42.83 233.0
42.845 242.0
42.86 244.0
42.875 239.0
42.89 240.0
42.905 242.0
42.92 243.0
42.935 227.0
42.95 216.0
42.965 236.0
42.98 228.0
42.995 225.0
43.01 216.0
43.025 224.0
43.04 248.0
43.055 233.0
43.07 216.0
43.085 238.0
43.1 208.0
43.115 223.0
43.13 241.0
43.145 244.0
43.16 241.0
43.175 243.0
43.19 224.0
43.205 225.0
43.22 242.0
43.235 236.0
43.25 240.0
43.265 215.0
43.28 227.0
43.295 229.0
43.31 254.0
43.325 233.0
43.34 230.0
43.355 221.0
43.37 230.0
43.385 211.0
43.4 226.0
43.415 247.0
43.43 239.0
43.445 219.0
43.46 216.0
43.475 247.0
43.49 229.0
43.505 206.0
43.52 219.0
43.535 253.0
43.55 229.0
43.565 236.0
43.58 203.0
43.595 232.0
43.61 261.0
43.625 237.0
43.64 226.0
43.655 232.0
43.67 224.0
43.685 228.0
43.7 241.0
43.715 230.0
43.73 227.0
43.745 235.0
43.76 227.0
43.775 233.0
43.79 230.0
43.805 230.0
43.82 233.0
43.835 217.0
43.85 227.0
43.865 247.0
43.88 233.0
43.895 219.0
43.91 236.0
43.925 254.0
43.94 240.0
43.955 230.0
43.97 252.0
43.985 236.0
44.0 243.0
44.015 235.0
44.03 239.0
44.045 257.0
44.06 251.0
44.075 259.0
44.09 257.0
44.105 263.0
44.12 235.0
44.135 252.0
44.15 237.0
44.165 237.0
44.18 249.0
44.195 256.0
44.21 265.0
44.225 244.0
44.24 241.0
44.255 258.0
44.27 243.0
44.285 234.0
44.3 217.0
44.315 253.0
44.33 247.0
44.345 249.0
44.36 254.0
44.375 266.0
44.39 244.0
44.405 228.0
44.42 254.0
44.435 244.0
44.45 235.0
44.465 250.0
44.48 257.0
44.495 244.0
44.51 245.0
44.525 213.0
44.54 229.0
44.555 246.0
44.57 257.0
44.585 262.0
44.6 268.0
44.615 254.0
44.63 238.0
44.645 246.0
44.66 234.0
44.675 237.0
44.69 208.0
44.705 228.0
44.72 221.0
44.735 243.0
44.75 235.0
44.765 239.0
44.78 253.0
44.795 253.0
44.81 243.0
44.825 239.0
44.84 237.0
44.855 253.0
44.87 229.0
44.885 236.0
44.9 258.0
44.915 250.0
44.93 230.0
44.945 246.0
44.96 248.0
44.975 223.0
44.99 250.0
45.005 241.0
45.02 242.0
45.035 242.0
45.05 250.0
45.065 234.0
45.08 245.0
45.095 251.0
45.11 237.0
45.125 248.0
45.14 235.0
45.155 219.0
45.17 218.0
45.185 205.0
45.2 208.0
45.215 233.0
45.23 226.0
45.245 234.0
45.26 223.0
45.275 231.0
45.29 244.0
45.305 248.0
45.32 246.0
45.335 233.0
45.35 231.0
45.365 212.0
45.38 197.0
45.395 205.0
45.41 228.0
45.425 229.0
45.44 240.0
45.455 214.0
45.47 219.0
45.485 222.0
45.5 206.0
45.515 225.0
45.53 217.0
45.545 236.0
45.56 228.0
45.575 235.0
45.59 205.0
45.605 191.0
45.62 243.0
45.635 233.0
45.65 228.0
45.665 223.0
45.68 209.0
45.695 207.0
45.71 203.0
45.725 216.0
45.74 236.0
45.755 225.0
45.77 230.0
45.785 241.0
45.8 234.0
45.815 230.0
45.83 222.0
45.845 235.0
45.86 226.0
45.875 218.0
45.89 236.0
45.905 232.0
45.92 227.0
45.935 226.0
45.95 231.0
45.965 259.0
45.98 211.0
45.995 226.0
46.01 234.0
46.025 222.0
46.04 230.0
46.055 218.0
46.07 228.0
46.085 218.0
46.1 201.0
46.115 204.0
46.13 231.0
46.145 240.0
46.16 222.0
46.175 222.0
46.19 259.0
46.205 226.0
46.22 237.0
46.235 239.0
46.25 237.0
46.265 225.0
46.28 220.0
46.295 222.0
46.31 227.0
46.325 223.0
46.34 223.0
46.355 226.0
46.37 221.0
46.385 233.0
46.4 219.0
46.415 203.0
46.43 232.0
46.445 220.0
46.46 236.0
46.475 232.0
46.49 229.0
46.505 202.0
46.52 208.0
46.535 216.0
46.55 224.0
46.565 221.0
46.58 222.0
46.595 226.0
46.61 233.0
46.625 212.0
46.64 221.0
46.655 230.0
46.67 211.0
46.685 226.0
46.7 217.0
46.715 221.0
46.73 237.0
46.745 226.0
46.76 222.0
46.775 227.0
46.79 237.0
46.805 224.0
46.82 242.0
46.835 243.0
46.85 227.0
46.865 226.0
46.88 244.0
46.895 234.0
46.91 231.0
46.925 232.0
46.94 228.0
46.955 254.0
46.97 242.0
46.985 229.0
47.0 213.0
47.015 222.0
47.03 231.0
47.045 242.0
47.06 250.0
47.075 215.0
47.09 216.0
47.105 230.0
47.12 195.0
47.135 208.0
47.15 221.0
47.165 214.0
47.18 223.0
47.195 218.0
47.21 216.0
47.225 222.0
47.24 209.0
47.255 225.0
47.27 209.0
47.285 203.0
47.3 200.0
47.315 182.0
47.33 230.0
47.345 228.0
47.36 230.0
47.375 218.0
47.39 218.0
47.405 217.0
47.42 199.0
47.435 203.0
47.45 190.0
47.465 223.0
47.48 223.0
47.495 233.0
47.51 204.0
47.525 217.0
47.54 217.0
47.555 229.0
47.57 205.0
47.585 220.0
47.6 213.0
47.615 208.0
47.63 205.0
47.645 207.0
47.66 206.0
47.675 196.0
47.69 207.0
47.705 201.0
47.72 201.0
47.735 204.0
47.75 218.0
47.765 223.0
47.78 208.0
47.795 221.0
47.81 201.0
47.825 213.0
47.84 200.0
47.855 230.0
47.87 211.0
47.885 192.0
47.9 199.0
47.915 201.0
47.93 212.0
47.945 224.0
47.96 201.0
47.975 177.0
47.99 195.0
48.005 196.0
48.02 196.0
48.035 194.0
48.05 211.0
48.065 200.0
48.08 199.0
48.095 202.0
48.11 190.0
48.125 189.0
48.14 196.0
48.155 214.0
48.17 222.0
48.185 189.0
48.2 200.0
48.215 203.0
48.23 191.0
48.245 213.0
48.26 193.0
48.275 199.0
48.29 201.0
48.305 195.0
48.32 211.0
48.335 204.0
48.35 203.0
48.365 197.0
48.38 177.0
48.395 196.0
48.41 213.0
48.425 193.0
48.44 191.0
48.455 183.0
48.47 191.0
48.485 181.0
48.5 192.0
48.515 211.0
48.53 197.0
48.545 195.0
48.56 212.0
48.575 214.0
48.59 182.0
48.605 180.0
48.62 184.0
48.635 200.0
48.65 195.0
48.665 220.0
48.68 207.0
48.695 220.0
48.71 196.0
48.725 202.0
48.74 204.0
48.755 227.0
48.77 212.0
48.785 174.0
48.8 180.0
48.815 178.0
48.83 189.0
48.845 191.0
48.86 194.0
48.875 211.0
48.89 202.0
48.905 199.0
48.92 188.0
48.935 181.0
48.95 209.0
48.965 202.0
48.98 182.0
48.995 219.0
49.01 199.0
49.025 215.0
49.04 197.0
49.055 193.0
49.07 202.0
49.085 219.0
49.1 215.0
49.115 208.0
49.13 200.0
49.145 199.0
49.16 203.0
49.175 212.0
49.19 194.0
49.205 188.0
49.22 214.0
49.235 204.0
49.25 212.0
49.265 226.0
49.28 203.0
49.295 209.0
49.31 203.0
49.325 208.0
49.34 209.0
49.355 234.0
49.37 208.0
49.385 199.0
49.4 217.0
49.415 192.0
49.43 204.0
49.445 202.0
49.46 205.0
49.475 205.0
49.49 218.0
49.505 205.0
49.52 210.0
49.535 220.0
49.55 224.0
49.565 196.0
49.58 208.0
49.595 218.0
49.61 211.0
49.625 222.0
49.64 205.0
49.655 193.0
49.67 219.0
49.685 206.0
49.7 204.0
49.715 204.0
49.73 196.0
49.745 188.0
49.76 214.0
49.775 189.0
49.79 177.0
49.805 214.0
49.82 201.0
49.835 215.0
49.85 197.0
49.865 176.0
49.88 198.0
49.895 204.0
49.91 193.0
49.925 182.0
49.94 187.0
49.955 188.0
49.97 206.0
49.985 199.0
50.0 182.0
50.015 199.0
50.03 197.0
50.045 210.0
50.06 219.0
50.075 192.0
50.09 192.0
50.105 206.0
50.12 198.0
50.135 194.0
50.15 192.0
50.165 181.0
50.18 192.0
50.195 208.0
50.21 199.0
50.225 192.0
50.24 216.0
50.255 193.0
50.27 174.0
50.285 196.0
50.3 209.0
50.315 207.0
50.33 196.0
50.345 196.0
50.36 190.0
50.375 198.0
50.39 181.0
50.405 205.0
50.42 196.0
50.435 175.0
50.45 189.0
50.465 192.0
50.48 189.0
50.495 214.0
50.51 221.0
50.525 201.0
50.54 199.0
50.555 181.0
50.57 189.0
50.585 194.0
50.6 195.0
50.615 170.0
50.63 170.0
50.645 208.0
50.66 202.0
50.675 195.0
50.69 193.0
50.705 195.0
50.72 192.0
50.735 194.0
50.75 192.0
50.765 184.0
50.78 197.0
50.795 186.0
50.81 188.0
50.825 196.0
50.84 197.0
50.855 200.0
50.87 168.0
50.885 185.0
50.9 177.0
50.915 201.0
50.93 201.0
50.945 187.0
50.96 190.0
50.975 188.0
50.99 212.0
51.005 205.0
51.02 209.0
51.035 195.0
51.05 194.0
51.065 200.0
51.08 189.0
51.095 181.0
51.11 189.0
51.125 188.0
51.14 181.0
51.155 195.0
51.17 179.0
51.185 197.0
51.2 193.0
51.215 189.0
51.23 208.0
51.245 185.0
51.26 195.0
51.275 170.0
51.29 200.0
51.305 196.0
51.32 198.0
51.335 205.0
51.35 181.0
51.365 194.0
51.38 191.0
51.395 226.0
51.41 203.0
51.425 198.0
51.44 186.0
51.455 182.0
51.47 193.0
51.485 213.0
51.5 203.0
51.515 202.0
51.53 196.0
51.545 190.0
51.56 170.0
51.575 186.0
51.59 165.0
51.605 184.0
51.62 197.0
51.635 183.0
51.65 183.0
51.665 186.0
51.68 206.0
51.695 186.0
51.71 200.0
51.725 202.0
51.74 205.0
51.755 172.0
51.77 178.0
51.785 179.0
51.8 191.0
51.815 216.0
51.83 198.0
51.845 199.0
51.86 198.0
51.875 203.0
51.89 212.0
51.905 203.0
51.92 197.0
51.935 187.0
51.95 173.0
51.965 202.0
51.98 188.0
51.995 208.0
52.01 202.0
52.025 200.0
52.04 213.0
52.055 214.0
52.07 207.0
52.085 208.0
52.1 220.0
52.115 207.0
52.13 188.0
52.145 212.0
52.16 214.0
52.175 203.0
52.19 187.0
52.205 181.0
52.22 191.0
52.235 190.0
52.25 184.0
52.265 193.0
52.28 196.0
52.295 207.0
52.31 206.0
52.325 186.0
52.34 204.0
52.355 198.0
52.37 185.0
52.385 181.0
52.4 176.0
52.415 188.0
52.43 191.0
52.445 183.0
52.46 186.0
52.475 190.0
52.49 191.0
52.505 182.0
52.52 178.0
52.535 193.0
52.55 205.0
52.565 203.0
52.58 166.0
52.595 188.0
52.61 213.0
52.625 168.0
52.64 195.0
52.655 193.0
52.67 170.0
52.685 178.0
52.7 198.0
52.715 191.0
52.73 206.0
52.745 225.0
52.76 190.0
52.775 187.0
52.79 182.0
52.805 187.0
52.82 213.0
52.835 208.0
52.85 186.0
52.865 210.0
52.88 213.0
52.895 180.0
52.91 180.0
52.925 187.0
52.94 184.0
52.955 179.0
52.97 209.0
52.985 178.0
53.0 183.0
53.015 200.0
53.03 208.0
53.045 209.0
53.06 206.0
53.075 203.0
53.09 220.0
53.105 189.0
53.12 196.0
53.135 202.0
53.15 197.0
53.165 188.0
53.18 202.0
53.195 202.0
53.21 185.0
53.225 197.0
53.24 196.0
53.255 207.0
53.27 208.0
53.285 221.0
53.3 193.0
53.315 197.0
53.33 209.0
53.345 217.0
53.36 219.0
53.375 205.0
53.39 206.0
53.405 213.0
53.42 211.0
53.435 213.0
53.45 195.0
53.465 187.0
53.48 187.0
53.495 173.0
53.51 174.0
53.525 200.0
53.54 178.0
53.555 168.0
53.57 202.0
53.585 196.0
53.6 180.0
53.615 205.0
53.63 197.0
53.645 205.0
53.66 194.0
53.675 192.0
53.69 198.0
53.705 200.0
53.72 190.0
53.735 191.0
53.75 188.0
53.765 190.0
53.78 198.0
53.795 194.0
53.81 197.0
53.825 191.0
53.84 186.0
53.855 185.0
53.87 182.0
53.885 197.0
53.9 203.0
53.915 203.0
53.93 197.0
53.945 182.0
53.96 188.0
53.975 179.0
53.99 189.0
54.005 179.0
54.02 183.0
54.035 184.0
54.05 189.0
54.065 188.0
54.08 182.0
54.095 192.0
54.11 208.0
54.125 184.0
54.14 196.0
54.155 187.0
54.17 210.0
54.185 206.0
54.2 200.0
54.215 198.0
54.23 196.0
54.245 196.0
54.26 174.0
54.275 167.0
54.29 183.0
54.305 176.0
54.32 209.0
54.335 205.0
54.35 201.0
54.365 189.0
54.38 191.0
54.395 199.0
54.41 192.0
54.425 190.0
54.44 207.0
54.455 198.0
54.47 184.0
54.485 188.0
54.5 192.0
54.515 196.0
54.53 195.0
54.545 183.0
54.56 212.0
54.575 214.0
54.59 203.0
54.605 197.0
54.62 217.0
54.635 216.0
54.65 193.0
54.665 195.0
54.68 192.0
54.695 191.0
54.71 198.0
54.725 183.0
54.74 209.0
54.755 209.0
54.77 223.0
54.785 208.0
54.8 203.0
54.815 222.0
54.83 215.0
54.845 212.0
54.86 206.0
54.875 188.0
54.89 192.0
54.905 197.0
54.92 188.0
54.935 186.0
54.95 206.0
54.965 199.0
54.98 208.0
54.995 216.0
55.01 206.0
55.025 219.0
55.04 189.0
55.055 195.0
55.07 215.0
55.085 188.0
55.1 187.0
55.115 200.0
55.13 186.0
55.145 189.0
55.16 202.0
55.175 202.0
55.19 189.0
55.205 186.0
55.22 207.0
55.235 198.0
55.25 212.0
55.265 206.0
55.28 189.0
55.295 201.0
55.31 187.0
55.325 182.0
55.34 198.0
55.355 196.0
55.37 205.0
55.385 178.0
55.4 198.0
55.415 192.0
55.43 204.0
55.445 194.0
55.46 211.0
55.475 200.0
55.49 208.0
55.505 182.0
55.52 166.0
55.535 200.0
55.55 203.0
55.565 176.0
55.58 206.0
55.595 208.0
55.61 216.0
55.625 194.0
55.64 182.0
55.655 204.0
55.67 201.0
55.685 187.0
55.7 201.0
55.715 216.0
55.73 200.0
55.745 191.0
55.76 212.0
55.775 197.0
55.79 201.0
55.805 196.0
55.82 186.0
55.835 198.0
55.85 195.0
55.865 175.0
55.88 186.0
55.895 186.0
55.91 198.0
55.925 188.0
55.94 206.0
55.955 217.0
55.97 194.0
55.985 181.0
56.0 184.0
56.015 203.0
56.03 200.0
56.045 184.0
56.06 187.0
56.075 203.0
56.09 210.0
56.105 201.0
56.12 170.0
56.135 175.0
56.15 208.0
56.165 228.0
56.18 209.0
56.195 186.0
56.21 195.0
56.225 198.0
56.24 197.0
56.255 192.0
56.27 187.0
56.285 167.0
56.3 178.0
56.315 195.0
56.33 192.0
56.345 210.0
56.36 202.0
56.375 192.0
56.39 185.0
56.405 182.0
56.42 181.0
56.435 190.0
56.45 198.0
56.465 198.0
56.48 187.0
56.495 196.0
56.51 195.0
56.525 211.0
56.54 197.0
56.555 194.0
56.57 211.0
56.585 213.0
56.6 192.0
56.615 194.0
56.63 189.0
56.645 180.0
56.66 186.0
56.675 214.0
56.69 216.0
56.705 218.0
56.72 188.0
56.735 213.0
56.75 196.0
56.765 187.0
56.78 195.0
56.795 207.0
56.81 192.0
56.825 203.0
56.84 202.0
56.855 189.0
56.87 195.0
56.885 179.0
56.9 188.0
56.915 183.0
56.93 200.0
56.945 206.0
56.96 217.0
56.975 209.0
56.99 198.0
57.005 212.0
57.02 205.0
57.035 205.0
57.05 185.0
57.065 180.0
57.08 191.0
57.095 184.0
57.11 203.0
57.125 199.0
57.14 200.0
57.155 190.0
57.17 189.0
57.185 194.0
57.2 194.0
57.215 173.0
57.23 172.0
57.245 197.0
57.26 182.0
57.275 207.0
57.29 186.0
57.305 190.0
57.32 165.0
57.335 193.0
57.35 188.0
57.365 190.0
57.38 199.0
57.395 192.0
57.41 190.0
57.425 181.0
57.44 183.0
57.455 188.0
57.47 192.0
57.485 204.0
57.5 176.0
57.515 179.0
57.53 188.0
57.545 200.0
57.56 187.0
57.575 179.0
57.59 193.0
57.605 191.0
57.62 179.0
57.635 184.0
57.65 183.0
57.665 170.0
57.68 156.0
57.695 193.0
57.71 174.0
57.725 181.0
57.74 178.0
57.755 198.0
57.77 189.0
57.785 185.0
57.8 176.0
57.815 193.0
57.83 161.0
57.845 191.0
57.86 194.0
57.875 177.0
57.89 176.0
57.905 182.0
57.92 172.0
57.935 188.0
57.95 178.0
57.965 207.0
57.98 192.0
57.995 181.0
58.01 172.0
58.025 178.0
58.04 186.0
58.055 175.0
58.07 160.0
58.085 174.0
58.1 174.0
58.115 171.0
58.13 167.0
58.145 188.0
58.16 177.0
58.175 176.0
58.19 199.0
58.205 170.0
58.22 178.0
58.235 176.0
58.25 165.0
58.265 179.0
58.28 189.0
58.295 170.0
58.31 168.0
58.325 189.0
58.34 180.0
58.355 182.0
58.37 165.0
58.385 165.0
58.4 162.0
58.415 166.0
58.43 181.0
58.445 171.0
58.46 161.0
58.475 170.0
58.49 175.0
58.505 190.0
58.52 196.0
58.535 185.0
58.55 166.0
58.565 160.0
58.58 163.0
58.595 163.0
58.61 171.0
58.625 165.0
58.64 158.0
58.655 179.0
58.67 165.0
58.685 161.0
58.7 151.0
58.715 167.0
58.73 183.0
58.745 156.0
58.76 175.0
58.775 164.0
58.79 172.0
58.805 156.0
58.82 147.0
58.835 158.0
58.85 162.0
58.865 180.0
58.88 166.0
58.895 142.0
58.91 163.0
58.925 159.0
58.94 184.0
58.955 172.0
58.97 174.0
58.985 178.0
59.0 190.0
59.015 183.0
59.03 176.0
59.045 157.0
59.06 163.0
59.075 181.0
59.09 179.0
59.105 179.0
59.12 161.0
59.135 163.0
59.15 164.0
59.165 179.0
59.18 174.0
59.195 175.0
59.21 156.0
59.225 173.0
59.24 157.0
59.255 159.0
59.27 154.0
59.285 157.0
59.3 174.0
59.315 175.0
59.33 164.0
59.345 168.0
59.36 163.0
59.375 186.0
59.39 175.0
59.405 163.0
59.42 169.0
59.435 176.0
59.45 148.0
59.465 160.0
59.48 168.0
59.495 169.0
59.51 182.0
59.525 172.0
59.54 174.0
59.555 174.0
59.57 162.0
59.585 159.0
59.6 156.0
59.615 145.0
59.63 139.0
59.645 154.0
59.66 161.0
59.675 158.0
59.69 164.0
59.705 170.0
59.72 170.0
59.735 169.0
59.75 140.0
59.765 148.0
59.78 151.0
59.795 161.0
59.81 142.0
59.825 163.0
59.84 166.0
59.855 167.0
59.87 178.0
59.885 157.0
59.9 165.0
59.915 179.0
59.93 167.0
59.945 164.0
59.96 182.0
59.975 170.0
59.99 171.0
60.005 148.0
60.02 147.0
60.035 160.0
60.05 152.0
60.065 153.0
60.08 150.0
60.095 176.0
60.11 166.0
60.125 160.0
60.14 171.0
60.155 185.0
60.17 156.0
60.185 165.0
60.2 154.0
60.215 155.0
60.23 158.0
60.245 180.0
60.26 165.0
60.275 182.0
60.29 189.0
60.305 163.0
60.32 165.0
60.335 157.0
60.35 154.0
60.365 149.0
60.38 151.0
60.395 152.0
60.41 159.0
60.425 169.0
60.44 162.0
60.455 156.0
60.47 163.0
60.485 180.0
60.5 155.0
60.515 166.0
60.53 158.0
60.545 144.0
60.56 153.0
60.575 168.0
60.59 175.0
60.605 154.0
60.62 157.0
60.635 146.0
60.65 156.0
60.665 155.0
60.68 163.0
60.695 153.0
60.71 176.0
60.725 171.0
60.74 157.0
60.755 173.0
60.77 163.0
60.785 163.0
60.8 174.0
60.815 160.0
60.83 148.0
60.845 151.0
60.86 150.0
60.875 155.0
60.89 148.0
60.905 175.0
60.92 173.0
60.935 163.0
60.95 163.0
60.965 162.0
60.98 161.0
60.995 160.0
61.01 173.0
61.025 156.0
61.04 162.0
61.055 160.0
61.07 153.0
61.085 146.0
61.1 149.0
61.115 170.0
61.13 168.0
61.145 150.0
61.16 149.0
61.175 154.0
61.19 150.0
61.205 145.0
61.22 151.0
61.235 172.0
61.25 170.0
61.265 157.0
61.28 172.0
61.295 156.0
61.31 158.0
61.325 156.0
61.34 154.0
61.355 162.0
61.37 167.0
61.385 162.0
61.4 143.0
61.415 164.0
61.43 164.0
61.445 153.0
61.46 144.0
61.475 168.0
61.49 152.0
61.505 155.0
61.52 147.0
61.535 177.0
61.55 147.0
61.565 146.0
61.58 154.0
61.595 178.0
61.61 165.0
61.625 150.0
61.64 162.0
61.655 160.0
61.67 156.0
61.685 148.0
61.7 154.0
61.715 150.0
61.73 151.0
61.745 151.0
61.76 149.0
61.775 163.0
61.79 164.0
61.805 177.0
61.82 157.0
61.835 163.0
61.85 172.0
61.865 149.0
61.88 167.0
61.895 146.0
61.91 131.0
61.925 148.0
61.94 151.0
61.955 147.0
61.97 168.0
61.985 169.0
