2.0 1098.0
2.015 1125.0
2.03 1057.0
2.045 1124.0
2.06 1076.0
2.075 1066.0
2.09 1079.0
2.105 970.0
2.12 975.0
2.135 1032.0
2.15 968.0
2.165 938.0
2.18 950.0
2.195 899.0
2.21 830.0
2.225 916.0
2.24 893.0
2.255 845.0
2.27 811.0
2.285 840.0
2.3 901.0
2.315 821.0
2.33 819.0
2.345 727.0
2.36 776.0
2.375 787.0
2.39 729.0
2.405 801.0
2.42 795.0
2.435 756.0
2.45 749.0
2.465 704.0
2.48 699.0
2.495 721.0
2.51 726.0
2.525 707.0
2.54 688.0
2.555 690.0
2.57 746.0
2.585 685.0
2.6 690.0
2.615 672.0
2.63 678.0
2.645 673.0
2.66 653.0
2.675 641.0
2.69 609.0
2.705 628.0
2.72 664.0
2.735 615.0
2.75 587.0
2.765 623.0
2.78 576.0
2.795 598.0
2.81 618.0
2.825 608.0
2.84 641.0
2.855 621.0
2.87 619.0
2.885 690.0
2.9 677.0
2.915 583.0
2.93 589.0
2.945 592.0
2.96 561.0
2.975 582.0
2.99 606.0
3.005 569.0
3.02 652.0
3.035 607.0
3.05 560.0
3.065 566.0
3.08 558.0
3.095 568.0
3.11 591.0
3.125 555.0
3.14 535.0
3.155 580.0
3.17 563.0
3.185 533.0
3.2 589.0
3.215 575.0
3.23 558.0
3.245 592.0
3.26 570.0
3.275 575.0
3.29 537.0
3.305 573.0
3.32 557.0
3.335 517.0
3.35 567.0
3.365 544.0
3.38 558.0
3.395 524.0
3.41 500.0
3.425 545.0
3.44 541.0
3.455 503.0
3.47 535.0
3.485 539.0
3.5 514.0
3.515 526.0
3.53 514.0
3.545 554.0
3.56 555.0
3.575 569.0
3.59 549.0
3.605 568.0
3.62 512.0
3.635 507.0
3.65 569.0
3.665 539.0
3.68 569.0
3.695 501.0
3.71 572.0
3.725 544.0
3.74 520.0
3.755 520.0
3.77 522.0
3.785 530.0
3.8 510.0
3.815 502.0
3.83 505.0
3.845 557.0
3.86 528.0
3.875 504.0
3.89 526.0
3.905 563.0
3.92 511.0
3.935 529.0
3.95 475.0
3.965 511.0
3.98 539.0
3.995 532.0
4.01 580.0
4.025 560.0
4.04 511.0
4.055 488.0
4.07 477.0
4.085 561.0
4.1 519.0
4.115 520.0
4.13 530.0
4.145 538.0
4.16 510.0
4.175 502.0
4.19 517.0
4.205 516.0
4.22 521.0
4.235 498.0
4.25 520.0
4.265 491.0
4.28 521.0
4.295 535.0
4.31 512.0
4.325 550.0
4.34 554.0
4.355 492.0
4.37 514.0
4.385 541.0
4.4 528.0
4.415 575.0
4.43 560.0
4.445 510.0
4.46 539.0
4.475 545.0
4.49 540.0
4.505 532.0
4.52 503.0
4.535 534.0
4.55 520.0
4.565 546.0
4.58 537.0
4.595 533.0
4.61 545.0
4.625 518.0
4.64 513.0
4.655 538.0
4.67 544.0
4.685 549.0
4.7 548.0
4.715 542.0
4.73 554.0
4.745 566.0
4.76 520.0
4.775 518.0
4.79 545.0
4.805 543.0
4.82 516.0
4.835 508.0
4.85 584.0
4.865 558.0
4.88 558.0
4.895 587.0
4.91 546.0
4.925 479.0
4.94 506.0
4.955 488.0
4.97 555.0
4.985 562.0
5.0 524.0
5.015 514.0
5.03 526.0
5.045 494.0
5.06 508.0
5.075 557.0
5.09 516.0
5.105 507.0
5.12 539.0
5.135 525.0
5.15 571.0
5.165 548.0
5.18 496.0
5.195 502.0
5.21 525.0
5.225 573.0
5.24 536.0
5.255 535.0
5.27 513.0
5.285 560.0
5.3 569.0
5.315 510.0
5.33 493.0
5.345 521.0
5.36 573.0
5.375 567.0
5.39 507.0
5.405 487.0
5.42 509.0
5.435 527.0
5.45 525.0
5.465 540.0
5.48 507.0
5.495 544.0
5.51 547.0
5.525 504.0
5.54 490.0
5.555 527.0
5.57 517.0
5.585 590.0
5.6 547.0
5.615 539.0
5.63 540.0
5.645 539.0
5.66 572.0
5.675 556.0
5.69 527.0
5.705 494.0
5.72 511.0
5.735 521.0
5.75 505.0
5.765 562.0
5.78 561.0
5.795 566.0
5.81 545.0
5.825 514.0
5.84 497.0
5.855 540.0
5.87 556.0
5.885 508.0
5.9 564.0
5.915 548.0
5.93 534.0
5.945 572.0
5.96 571.0
5.975 555.0
5.99 555.0
6.005 563.0
6.02 547.0
6.035 558.0
6.05 537.0
6.065 512.0
6.08 486.0
6.095 500.0
6.11 518.0
6.125 511.0
6.14 509.0
6.155 521.0
6.17 511.0
6.185 514.0
6.2 506.0
6.215 524.0
6.23 518.0
6.245 486.0
6.26 511.0
6.275 504.0
6.29 516.0
6.305 522.0
6.32 530.0
6.335 539.0
6.35 551.0
6.365 538.0
6.38 506.0
6.395 508.0
6.41 529.0
6.425 540.0
6.44 534.0
6.455 536.0
6.47 499.0
6.485 547.0
6.5 560.0
6.515 542.0
6.53 516.0
6.545 505.0
6.56 552.0
6.575 522.0
6.59 532.0
6.605 514.0
6.62 505.0
6.635 503.0
6.65 519.0
6.665 532.0
6.68 496.0
6.695 546.0
6.71 553.0
6.725 577.0
6.74 501.0
6.755 570.0
6.77 500.0
6.785 482.0
6.8 513.0
6.815 490.0
6.83 528.0
6.845 536.0
6.86 515.0
6.875 514.0
6.89 535.0
6.905 524.0
6.92 496.0
6.935 518.0
6.95 522.0
6.965 505.0
6.98 524.0
6.995 526.0
7.01 579.0
7.025 507.0
7.04 494.0
7.055 479.0
7.07 503.0
7.085 575.0
7.1 532.0
7.115 495.0
7.13 460.0
7.145 502.0
7.16 511.0
7.175 494.0
7.19 547.0
7.205 536.0
7.22 491.0
7.235 516.0
7.25 507.0
7.265 529.0
7.28 523.0
7.295 528.0
7.31 520.0
7.325 500.0
7.34 507.0
7.355 495.0
7.37 493.0
7.385 496.0
7.4 502.0
7.415 450.0
7.43 485.0
7.445 470.0
7.46 513.0
7.475 512.0
7.49 524.0
7.505 529.0
7.52 510.0
7.535 496.0
7.55 496.0
7.565 535.0
7.58 533.0
7.595 512.0
7.61 540.0
7.625 525.0
7.64 505.0
7.655 530.0
7.67 555.0
7.685 605.0
7.7 501.0
7.715 501.0
7.73 545.0
7.745 516.0
7.76 539.0
7.775 522.0
7.79 516.0
7.805 512.0
7.82 483.0
7.835 509.0
7.85 524.0
7.865 475.0
7.88 510.0
7.895 533.0
7.91 546.0
7.925 513.0
7.94 505.0
7.955 513.0
7.97 503.0
7.985 532.0
8.0 510.0
8.015 505.0
8.03 511.0
8.045 523.0
8.06 525.0
8.075 509.0
8.09 526.0
8.105 540.0
8.12 492.0
8.135 446.0
8.15 537.0
8.165 543.0
8.18 493.0
8.195 538.0
8.21 557.0
8.225 574.0
8.24 511.0
8.255 503.0
8.27 525.0
8.285 509.0
8.3 493.0
8.315 471.0
8.33 487.0
8.345 541.0
8.36 524.0
8.375 516.0
8.39 514.0
8.405 479.0
8.42 499.0
8.435 522.0
8.45 490.0
8.465 528.0
8.48 513.0
8.495 510.0
8.51 501.0
8.525 460.0
8.54 487.0
8.555 508.0
8.57 506.0
8.585 547.0
8.6 530.0
8.615 490.0
8.63 492.0
8.645 527.0
8.66 509.0
8.675 585.0
8.69 522.0
8.705 501.0
8.72 523.0
8.735 521.0
8.75 496.0
8.765 504.0
8.78 492.0
8.795 500.0
8.81 524.0
8.825 516.0
8.84 502.0
8.855 549.0
8.87 501.0
8.885 530.0
8.9 546.0
8.915 547.0
8.93 493.0
8.945 535.0
8.96 545.0
8.975 504.0
8.99 500.0
9.005 486.0
9.02 476.0
9.035 481.0
9.05 489.0
9.065 501.0
9.08 549.0
9.095 577.0
9.11 500.0
9.125 506.0
9.14 542.0
9.155 516.0
9.17 503.0
9.185 494.0
9.2 527.0
9.215 519.0
9.23 554.0
9.245 556.0
9.26 527.0
9.275 532.0
9.29 502.0
9.305 502.0
9.32 542.0
9.335 516.0
9.35 532.0
9.365 486.0
9.38 502.0
9.395 537.0
9.41 532.0
9.425 509.0
9.44 535.0
9.455 514.0
9.47 500.0
9.485 528.0
9.5 476.0
9.515 480.0
9.53 544.0
9.545 510.0
9.56 477.0
9.575 483.0
9.59 484.0
9.605 528.0
9.62 510.0
9.635 481.0
9.65 512.0
9.665 521.0
9.68 523.0
9.695 529.0
9.71 517.0
9.725 510.0
9.74 513.0
9.755 491.0
9.77 516.0
9.785 501.0
9.8 516.0
9.815 508.0
9.83 516.0
9.845 491.0
9.86 469.0
9.875 511.0
9.89 498.0
9.905 498.0
9.92 525.0
9.935 504.0
9.95 503.0
9.965 506.0
9.98 508.0
9.995 494.0
10.01 505.0
10.025 496.0
10.04 531.0
10.055 490.0
10.07 494.0
10.085 557.0
10.1 515.0
10.115 477.0
10.13 475.0
10.145 479.0
10.16 549.0
10.175 530.0
10.19 539.0
10.205 493.0
10.22 493.0
10.235 527.0
10.25 495.0
10.265 488.0
10.28 470.0
10.295 522.0
10.31 511.0
10.325 579.0
10.34 555.0
10.355 507.0
10.37 532.0
10.385 496.0
10.4 484.0
10.415 478.0
10.43 536.0
10.445 553.0
10.46 514.0
10.475 560.0
10.49 502.0
10.505 491.0
10.52 520.0
10.535 552.0
10.55 493.0
10.565 517.0
10.58 524.0
10.595 491.0
10.61 506.0
10.625 502.0
10.64 515.0
10.655 486.0
10.67 489.0
10.685 504.0
10.7 498.0
10.715 481.0
10.73 478.0
10.745 481.0
10.76 505.0
10.775 525.0
10.79 567.0
10.805 532.0
10.82 502.0
10.835 498.0
10.85 511.0
10.865 547.0
10.88 536.0
10.895 502.0
10.91 519.0
10.925 527.0
10.94 512.0
10.955 507.0
10.97 483.0
10.985 532.0
11.0 535.0
11.015 544.0
11.03 526.0
11.045 516.0
11.06 475.0
11.075 525.0
11.09 553.0
11.105 588.0
11.12 565.0
11.135 573.0
11.15 547.0
11.165 495.0
11.18 528.0
11.195 533.0
11.21 533.0
11.225 574.0
11.24 524.0
11.255 527.0
11.27 504.0
11.285 467.0
11.3 513.0
11.315 497.0
11.33 501.0
11.345 480.0
11.36 496.0
11.375 526.0
11.39 506.0
11.405 548.0
11.42 509.0
11.435 501.0
11.45 506.0
11.465 509.0
11.48 516.0
11.495 516.0
11.51 540.0
11.525 537.0
11.54 527.0
11.555 510.0
11.57 549.0
11.585 543.0
11.6 532.0
11.615 556.0
11.63 521.0
11.645 537.0
11.66 538.0
11.675 582.0
11.69 586.0
11.705 562.0
11.72 565.0
11.735 599.0
11.75 608.0
11.765 691.0
11.78 670.0
11.795 665.0
11.81 686.0
11.825 745.0
11.84 890.0
11.855 988.0
11.87 1057.0
11.885 1261.0
11.9 1433.0
11.915 1638.0
11.93 1945.0
11.945 2486.0
11.96 3103.0
11.975 3883.0
11.99 4278.0
12.005 4281.0
12.02 3864.0
12.035 3435.0
12.05 3015.0
12.065 2941.0
12.08 2862.0
12.095 2641.0
12.11 2403.0
12.125 2053.0
12.14 1533.0
12.155 1179.0
12.17 1027.0
12.185 880.0
12.2 797.0
12.215 750.0
12.23 711.0
12.245 748.0
12.26 692.0
12.275 708.0
12.29 696.0
12.305 710.0
12.32 687.0
12.335 662.0
12.35 680.0
12.365 700.0
12.38 699.0
12.395 622.0
12.41 624.0
12.425 667.0
12.44 689.0
12.455 619.0
12.47 634.0
12.485 617.0
12.5 654.0
12.515 641.0
12.53 629.0
12.545 636.0
12.56 618.0
12.575 630.0
12.59 649.0
12.605 637.0
12.62 591.0
12.635 606.0
12.65 617.0
12.665 596.0
12.68 600.0
12.695 583.0
12.71 584.0
12.725 566.0
12.74 657.0
12.755 620.0
12.77 546.0
12.785 589.0
12.8 622.0
12.815 598.0
12.83 555.0
12.845 574.0
12.86 580.0
12.875 585.0
12.89 589.0
12.905 621.0
12.92 599.0
12.935 589.0
12.95 579.0
12.965 529.0
12.98 569.0
12.995 559.0
13.01 548.0
13.025 547.0
13.04 570.0
13.055 584.0
13.07 583.0
13.085 559.0
13.1 598.0
13.115 609.0
13.13 555.0
13.145 566.0
13.16 557.0
13.175 587.0
13.19 577.0
13.205 535.0
13.22 569.0
13.235 553.0
13.25 534.0
13.265 533.0
13.28 614.0
13.295 550.0
13.31 564.0
13.325 589.0
13.34 546.0
13.355 571.0
13.37 582.0
13.385 575.0
13.4 561.0
13.415 532.0
13.43 571.0
13.445 561.0
13.46 526.0
13.475 575.0
13.49 537.0
13.505 527.0
13.52 547.0
13.535 523.0
13.55 510.0
13.565 520.0
13.58 516.0
13.595 545.0
13.61 515.0
13.625 616.0
13.64 574.0
13.655 530.0
13.67 551.0
13.685 538.0
13.7 565.0
13.715 546.0
13.73 591.0
13.745 547.0
13.76 595.0
13.775 537.0
13.79 548.0
13.805 550.0
13.82 561.0
13.835 548.0
13.85 572.0
13.865 528.0
13.88 523.0
13.895 561.0
13.91 569.0
13.925 547.0
13.94 551.0
13.955 569.0
13.97 524.0
13.985 531.0
14.0 518.0
14.015 515.0
14.03 528.0
14.045 547.0
14.06 494.0
14.075 512.0
14.09 565.0
14.105 508.0
14.12 526.0
14.135 551.0
14.15 589.0
14.165 545.0
14.18 514.0
14.195 526.0
14.21 581.0
14.225 549.0
14.24 571.0
14.255 528.0
14.27 558.0
14.285 527.0
14.3 493.0
14.315 529.0
14.33 573.0
14.345 544.0
14.36 526.0
14.375 517.0
14.39 546.0
14.405 578.0
14.42 564.0
14.435 558.0
14.45 564.0
14.465 521.0
14.48 569.0
14.495 570.0
14.51 564.0
14.525 554.0
14.54 543.0
14.555 518.0
14.57 518.0
14.585 603.0
14.6 594.0
14.615 551.0
14.63 580.0
14.645 524.0
14.66 514.0
14.675 533.0
14.69 551.0
14.705 548.0
14.72 528.0
14.735 538.0
14.75 559.0
14.765 556.0
14.78 572.0
14.795 547.0
14.81 547.0
14.825 547.0
14.84 549.0
14.855 603.0
14.87 507.0
14.885 524.0
14.9 557.0
14.915 577.0
14.93 563.0
14.945 530.0
14.96 497.0
14.975 482.0
14.99 557.0
15.005 524.0
15.02 530.0
15.035 552.0
15.05 525.0
15.065 530.0
15.08 516.0
15.095 525.0
15.11 593.0
15.125 563.0
15.14 541.0
15.155 535.0
15.17 523.0
15.185 564.0
15.2 542.0
15.215 595.0
15.23 622.0
15.245 560.0
15.26 502.0
15.275 533.0
15.29 559.0
15.305 514.0
15.32 547.0
15.335 560.0
15.35 545.0
15.365 551.0
15.38 558.0
15.395 540.0
15.41 536.0
15.425 521.0
15.44 567.0
15.455 591.0
15.47 589.0
15.485 532.0
15.5 551.0
15.515 571.0
15.53 576.0
15.545 552.0
15.56 560.0
15.575 583.0
15.59 531.0
15.605 565.0
15.62 537.0
15.635 537.0
15.65 564.0
15.665 572.0
15.68 510.0
15.695 567.0
15.71 609.0
15.725 607.0
15.74 596.0
15.755 569.0
15.77 547.0
15.785 544.0
15.8 537.0
15.815 550.0
15.83 531.0
15.845 529.0
15.86 593.0
15.875 547.0
15.89 545.0
15.905 598.0
15.92 550.0
15.935 555.0
15.95 564.0
15.965 579.0
15.98 589.0
15.995 568.0
16.01 593.0
16.025 588.0
16.04 571.0
16.055 567.0
16.07 574.0
16.085 625.0
16.1 568.0
16.115 560.0
16.13 530.0
16.145 562.0
16.16 603.0
16.175 592.0
16.19 560.0
16.205 587.0
16.22 614.0
16.235 576.0
16.25 576.0
16.265 544.0
16.28 541.0
16.295 550.0
16.31 574.0
16.325 591.0
16.34 581.0
16.355 606.0
16.37 579.0
16.385 609.0
16.4 630.0
16.415 572.0
16.43 580.0
16.445 573.0
16.46 597.0
16.475 608.0
16.49 600.0
16.505 561.0
16.52 557.0
16.535 575.0
16.55 619.0
16.565 580.0
16.58 574.0
16.595 580.0
16.61 613.0
16.625 608.0
16.64 571.0
16.655 616.0
16.67 578.0
16.685 608.0
16.7 611.0
16.715 585.0
16.73 523.0
16.745 580.0
16.76 622.0
16.775 600.0
16.79 568.0
16.805 580.0
16.82 570.0
16.835 621.0
16.85 573.0
16.865 568.0
16.88 636.0
16.895 610.0
16.91 610.0
16.925 590.0
16.94 649.0
16.955 651.0
16.97 586.0
16.985 579.0
17.0 550.0
17.015 573.0
17.03 616.0
17.045 617.0
17.06 651.0
17.075 595.0
17.09 585.0
17.105 602.0
17.12 616.0
17.135 555.0
17.15 594.0
17.165 646.0
17.18 663.0
17.195 636.0
17.21 587.0
17.225 596.0
17.24 619.0
17.255 645.0
17.27 662.0
17.285 616.0
17.3 629.0
17.315 630.0
17.33 666.0
17.345 665.0
17.36 596.0
17.375 630.0
17.39 610.0
17.405 633.0
17.42 664.0
17.435 710.0
17.45 624.0
17.465 636.0
17.48 648.0
17.495 687.0
17.51 666.0
17.525 610.0
17.54 656.0
17.555 678.0
17.57 652.0
17.585 648.0
17.6 719.0
17.615 662.0
17.63 646.0
17.645 654.0
17.66 707.0
17.675 710.0
17.69 692.0
17.705 701.0
17.72 712.0
17.735 689.0
17.75 742.0
17.765 849.0
17.78 781.0
17.795 836.0
17.81 857.0
17.825 802.0
17.84 846.0
17.855 906.0
17.87 951.0
17.885 949.0
17.9 989.0
17.915 1010.0
17.93 950.0
17.945 984.0
17.96 1039.0
17.975 950.0
17.99 991.0
18.005 1003.0
18.02 974.0
18.035 981.0
18.05 1023.0
18.065 992.0
18.08 917.0
18.095 952.0
18.11 922.0
18.125 945.0
18.14 922.0
18.155 833.0
18.17 848.0
18.185 810.0
18.2 805.0
18.215 814.0
18.23 815.0
18.245 746.0
18.26 799.0
18.275 815.0
18.29 794.0
18.305 840.0
18.32 782.0
18.335 778.0
18.35 746.0
18.365 726.0
18.38 742.0
18.395 716.0
18.41 688.0
18.425 692.0
18.44 693.0
18.455 685.0
18.47 695.0
18.485 745.0
18.5 673.0
18.515 702.0
18.53 703.0
18.545 628.0
18.56 659.0
18.575 618.0
18.59 707.0
18.605 673.0
18.62 690.0
18.635 681.0
18.65 686.0
18.665 660.0
18.68 700.0
18.695 640.0
18.71 700.0
18.725 627.0
18.74 668.0
18.755 661.0
18.77 680.0
18.785 671.0
18.8 656.0
18.815 638.0
18.83 645.0
18.845 631.0
18.86 676.0
18.875 716.0
18.89 702.0
18.905 652.0
18.92 694.0
18.935 691.0
18.95 654.0
18.965 670.0
18.98 666.0
18.995 730.0
19.01 678.0
19.025 665.0
19.04 663.0
19.055 618.0
19.07 617.0
19.085 618.0
19.1 654.0
19.115 702.0
19.13 669.0
19.145 637.0
19.16 678.0
19.175 687.0
19.19 659.0
19.205 634.0
19.22 698.0
19.235 650.0
19.25 622.0
19.265 661.0
19.28 692.0
19.295 640.0
19.31 630.0
19.325 609.0
19.34 661.0
19.355 637.0
19.37 639.0
19.385 681.0
19.4 673.0
19.415 642.0
19.43 675.0
19.445 657.0
19.46 663.0
19.475 685.0
19.49 634.0
19.505 726.0
19.52 670.0
19.535 682.0
19.55 698.0
19.565 660.0
19.58 677.0
19.595 663.0
19.61 636.0
19.625 626.0
19.64 663.0
19.655 683.0
19.67 646.0
19.685 646.0
19.7 694.0
19.715 673.0
19.73 682.0
19.745 702.0
19.76 682.0
19.775 678.0
19.79 699.0
19.805 650.0
19.82 688.0
19.835 686.0
19.85 674.0
19.865 669.0
19.88 695.0
19.895 713.0
19.91 730.0
19.925 748.0
19.94 702.0
19.955 714.0
19.97 690.0
19.985 725.0
20.0 692.0
20.015 706.0
20.03 723.0
20.045 722.0
20.06 674.0
20.075 745.0
20.09 732.0
20.105 739.0
20.12 751.0
20.135 706.0
20.15 736.0
20.165 729.0
20.18 677.0
20.195 745.0
20.21 766.0
20.225 688.0
20.24 717.0
20.255 737.0
20.27 692.0
20.285 674.0
20.3 742.0
20.315 716.0
20.33 737.0
20.345 708.0
20.36 715.0
20.375 752.0
20.39 740.0
20.405 746.0
20.42 794.0
20.435 764.0
20.45 751.0
20.465 766.0
20.48 764.0
20.495 735.0
20.51 725.0
20.525 744.0
20.54 776.0
20.555 760.0
20.57 817.0
20.585 819.0
20.6 742.0
20.615 704.0
20.63 770.0
20.645 819.0
20.66 937.0
20.675 882.0
20.69 924.0
20.705 950.0
20.72 1078.0
20.735 1134.0
20.75 1280.0
20.765 1417.0
20.78 1429.0
20.795 1572.0
20.81 1546.0
20.825 1506.0
20.84 1564.0
20.855 1524.0
20.87 1419.0
20.885 1386.0
20.9 1424.0
20.915 1391.0
20.93 1360.0
20.945 1241.0
20.96 1276.0
20.975 1166.0
20.99 1107.0
21.005 1035.0
21.02 964.0
21.035 950.0
21.05 868.0
21.065 909.0
21.08 870.0
21.095 899.0
21.11 892.0
21.125 864.0
21.14 862.0
21.155 830.0
21.17 874.0
21.185 843.0
21.2 795.0
21.215 788.0
21.23 823.0
21.245 763.0
21.26 758.0
21.275 834.0
21.29 849.0
21.305 779.0
21.32 778.0
21.335 782.0
21.35 729.0
21.365 760.0
21.38 800.0
21.395 751.0
21.41 792.0
21.425 813.0
21.44 784.0
21.455 799.0
21.47 761.0
21.485 772.0
21.5 772.0
21.515 822.0
21.53 788.0
21.545 702.0
21.56 768.0
21.575 793.0
21.59 802.0
21.605 771.0
21.62 768.0
21.635 756.0
21.65 740.0
21.665 779.0
21.68 797.0
21.695 798.0
21.71 800.0
21.725 793.0
21.74 773.0
21.755 776.0
21.77 789.0
21.785 741.0
21.8 781.0
21.815 791.0
21.83 790.0
21.845 815.0
21.86 802.0
21.875 841.0
21.89 827.0
21.905 838.0
21.92 808.0
21.935 778.0
21.95 748.0
21.965 793.0
21.98 808.0
21.995 733.0
22.01 772.0
22.025 774.0
22.04 786.0
22.055 770.0
22.07 745.0
22.085 780.0
22.1 797.0
22.115 774.0
22.13 766.0
22.145 749.0
22.16 757.0
22.175 793.0
22.19 767.0
22.205 794.0
22.22 797.0
22.235 744.0
22.25 783.0
22.265 740.0
22.28 797.0
22.295 822.0
22.31 790.0
22.325 828.0
22.34 859.0
22.355 805.0
22.37 810.0
22.385 803.0
22.4 842.0
22.415 747.0
22.43 728.0
22.445 780.0
22.46 792.0
22.475 862.0
22.49 776.0
22.505 768.0
22.52 779.0
22.535 799.0
22.55 814.0
22.565 860.0
22.58 818.0
22.595 770.0
22.61 767.0
22.625 829.0
22.64 767.0
22.655 804.0
22.67 806.0
22.685 820.0
22.7 821.0
22.715 775.0
22.73 806.0
22.745 850.0
22.76 833.0
22.775 812.0
22.79 808.0
22.805 834.0
22.82 808.0
22.835 798.0
22.85 830.0
22.865 786.0
22.88 814.0
22.895 840.0
22.91 780.0
22.925 789.0
22.94 776.0
22.955 795.0
22.97 794.0
22.985 766.0
23.0 821.0
23.015 863.0
23.03 879.0
23.045 887.0
23.06 819.0
23.075 773.0
23.09 820.0
23.105 839.0
23.12 840.0
23.135 859.0
23.15 818.0
23.165 821.0
23.18 796.0
23.195 788.0
23.21 857.0
23.225 838.0
23.24 826.0
23.255 816.0
23.27 781.0
23.285 877.0
23.3 864.0
23.315 858.0
23.33 770.0
23.345 810.0
23.36 851.0
23.375 839.0
23.39 831.0
23.405 818.0
23.42 819.0
23.435 831.0
23.45 833.0
23.465 883.0
23.48 833.0
23.495 829.0
23.51 829.0
23.525 860.0
23.54 853.0
23.555 866.0
23.57 835.0
23.585 873.0
23.6 860.0
23.615 814.0
23.63 788.0
23.645 788.0
23.66 828.0
23.675 881.0
23.69 863.0
23.705 790.0
23.72 812.0
23.735 844.0
23.75 840.0
23.765 847.0
23.78 782.0
23.795 825.0
23.81 845.0
23.825 872.0
23.84 867.0
23.855 858.0
23.87 928.0
23.885 920.0
23.9 940.0
23.915 908.0
23.93 885.0
23.945 851.0
23.96 840.0
23.975 879.0
23.99 920.0
24.005 895.0
24.02 870.0
24.035 912.0
24.05 897.0
24.065 941.0
24.08 918.0
24.095 918.0
24.11 1051.0
24.125 1075.0
24.14 1097.0
24.155 1081.0
24.17 1106.0
24.185 1119.0
24.2 1102.0
24.215 1167.0
24.23 1098.0
24.245 1098.0
24.26 1190.0
24.275 1209.0
24.29 1243.0
24.305 1174.0
24.32 1157.0
24.335 1093.0
24.35 1058.0
24.365 1045.0
24.38 1037.0
24.395 977.0
24.41 991.0
24.425 1039.0
24.44 981.0
24.455 975.0
24.47 956.0
24.485 974.0
24.5 913.0
24.515 920.0
24.53 1029.0
24.545 1017.0
24.56 953.0
24.575 997.0
24.59 993.0
24.605 1039.0
24.62 1096.0
24.635 1090.0
24.65 1129.0
24.665 1194.0
24.68 1175.0
24.695 1160.0
24.71 1210.0
24.725 1211.0
24.74 1282.0
24.755 1259.0
24.77 1291.0
24.785 1403.0
24.8 1314.0
24.815 1407.0
24.83 1354.0
24.845 1383.0
24.86 1353.0
24.875 1393.0
24.89 1486.0
24.905 1435.0
24.92 1484.0
24.935 1537.0
24.95 1517.0
24.965 1408.0
24.98 1392.0
24.995 1373.0
25.01 1396.0
25.025 1414.0
25.04 1365.0
25.055 1317.0
25.07 1315.0
25.085 1227.0
25.1 1237.0
25.115 1231.0
25.13 1215.0
25.145 1129.0
25.16 1114.0
25.175 1113.0
25.19 1090.0
25.205 1058.0
25.22 1027.0
25.235 1011.0
25.25 1051.0
25.265 1047.0
25.28 1024.0
25.295 1014.0
25.31 960.0
25.325 971.0
25.34 986.0
25.355 986.0
25.37 963.0
25.385 955.0
25.4 953.0
25.415 918.0
25.43 946.0
25.445 946.0
25.46 932.0
25.475 917.0
25.49 992.0
25.505 963.0
25.52 973.0
25.535 918.0
25.55 844.0
25.565 891.0
25.58 910.0
25.595 966.0
25.61 886.0
25.625 905.0
25.64 919.0
25.655 885.0
25.67 926.0
25.685 1012.0
25.7 986.0
25.715 893.0
25.73 919.0
25.745 865.0
25.76 907.0
25.775 827.0
25.79 862.0
25.805 954.0
25.82 949.0
25.835 939.0
25.85 884.0
25.865 908.0
25.88 915.0
25.895 946.0
25.91 937.0
25.925 927.0
25.94 926.0
25.955 954.0
25.97 955.0
25.985 986.0
26.0 942.0
26.015 949.0
26.03 1031.0
26.045 985.0
26.06 958.0
26.075 960.0
26.09 993.0
26.105 934.0
26.12 964.0
26.135 995.0
26.15 994.0
26.165 986.0
26.18 959.0
26.195 955.0
26.21 1004.0
26.225 1037.0
26.24 995.0
26.255 971.0
26.27 987.0
26.285 1023.0
26.3 1031.0
26.315 1001.0
26.33 1020.0
26.345 994.0
26.36 1017.0
26.375 1023.0
26.39 1102.0
26.405 1064.0
26.42 1065.0
26.435 1037.0
26.45 1045.0
26.465 1107.0
26.48 1050.0
26.495 1061.0
26.51 1129.0
26.525 1143.0
26.54 1165.0
26.555 1072.0
26.57 1186.0
26.585 1295.0
26.6 1214.0
26.615 1257.0
26.63 1241.0
26.645 1292.0
26.66 1262.0
26.675 1315.0
26.69 1285.0
26.705 1362.0
26.72 1356.0
26.735 1423.0
26.75 1434.0
26.765 1552.0
26.78 1562.0
26.795 1552.0
26.81 1675.0
26.825 1687.0
26.84 1677.0
26.855 1911.0
26.87 1908.0
26.885 2041.0
26.9 2100.0
26.915 2202.0
26.93 2218.0
26.945 2361.0
26.96 2547.0
26.975 2577.0
26.99 2664.0
27.005 2648.0
27.02 2723.0
27.035 2873.0
27.05 2797.0
27.065 2686.0
27.08 2626.0
27.095 2595.0
27.11 2584.0
27.125 2447.0
27.14 2311.0
27.155 2206.0
27.17 2194.0
27.185 2160.0
27.2 2104.0
27.215 2023.0
27.23 2042.0
27.245 2045.0
27.26 2027.0
27.275 1928.0
27.29 1901.0
27.305 1962.0
27.32 1878.0
27.335 1962.0
27.35 1943.0
27.365 1863.0
27.38 1945.0
27.395 1970.0
27.41 1957.0
27.425 1985.0
27.44 2017.0
27.455 2034.0
27.47 2146.0
27.485 2188.0
27.5 2176.0
27.515 2271.0
27.53 2375.0
27.545 2442.0
27.56 2455.0
27.575 2514.0
27.59 2584.0
27.605 2599.0
27.62 2648.0
27.635 2820.0
27.65 2919.0
27.665 2901.0
27.68 2997.0
27.695 3024.0
27.71 2940.0
27.725 2911.0
27.74 2953.0
27.755 2875.0
27.77 2874.0
27.785 2800.0
27.8 2829.0
27.815 2619.0
27.83 2415.0
27.845 2460.0
27.86 2324.0
27.875 2255.0
27.89 2202.0
27.905 2013.0
27.92 1979.0
27.935 1906.0
27.95 1805.0
27.965 1723.0
27.98 1692.0
27.995 1742.0
28.01 1673.0
28.025 1595.0
28.04 1508.0
28.055 1546.0
28.07 1472.0
28.085 1383.0
28.1 1447.0
28.115 1361.0
28.13 1321.0
28.145 1319.0
28.16 1222.0
28.175 1295.0
28.19 1184.0
28.205 1172.0
28.22 1145.0
28.235 1148.0
28.25 1164.0
28.265 1187.0
28.28 1169.0
28.295 1136.0
28.31 1069.0
28.325 1094.0
28.34 1145.0
28.355 1088.0
28.37 1042.0
28.385 1141.0
28.4 1065.0
28.415 1028.0
28.43 984.0
28.445 1032.0
28.46 993.0
28.475 1013.0
28.49 1070.0
28.505 980.0
28.52 999.0
28.535 993.0
28.55 987.0
28.565 939.0
28.58 968.0
28.595 970.0
28.61 926.0
28.625 905.0
28.64 908.0
28.655 946.0
28.67 932.0
28.685 944.0
28.7 921.0
28.715 998.0
28.73 937.0
28.745 867.0
28.76 947.0
28.775 935.0
28.79 957.0
28.805 938.0
28.82 848.0
28.835 938.0
28.85 886.0
28.865 860.0
28.88 926.0
28.895 910.0
28.91 959.0
28.925 957.0
28.94 983.0
28.955 941.0
28.97 916.0
28.985 928.0
29.0 938.0
29.015 941.0
29.03 934.0
29.045 892.0
29.06 904.0
29.075 997.0
29.09 911.0
29.105 906.0
29.12 914.0
29.135 924.0
29.15 994.0
29.165 972.0
29.18 928.0
29.195 933.0
29.21 904.0
29.225 989.0
29.24 1013.0
29.255 1041.0
29.27 974.0
29.285 992.0
29.3 971.0
29.315 1015.0
29.33 1057.0
29.345 995.0
29.36 1029.0
29.375 990.0
29.39 1008.0
29.405 1005.0
29.42 1077.0
29.435 1112.0
29.45 1148.0
29.465 1056.0
29.48 1069.0
29.495 1176.0
29.51 1139.0
29.525 1142.0
29.54 1149.0
29.555 1134.0
29.57 1164.0
29.585 1186.0
29.6 1204.0
29.615 1219.0
29.63 1196.0
29.645 1170.0
29.66 1255.0
29.675 1235.0
29.69 1194.0
29.705 1159.0
29.72 1174.0
29.735 1136.0
29.75 1123.0
29.765 1211.0
29.78 1161.0
29.795 1098.0
29.81 1085.0
29.825 1016.0
29.84 1017.0
29.855 1040.0
29.87 996.0
29.885 1001.0
29.9 1013.0
29.915 1027.0
29.93 972.0
29.945 898.0
29.96 947.0
29.975 918.0
29.99 851.0
30.005 851.0
30.02 830.0
30.035 854.0
30.05 830.0
30.065 811.0
30.08 792.0
30.095 802.0
30.11 748.0
30.125 819.0
30.14 787.0
30.155 770.0
30.17 719.0
30.185 733.0
30.2 720.0
30.215 756.0
30.23 742.0
30.245 693.0
30.26 668.0
30.275 734.0
30.29 697.0
30.305 705.0
30.32 712.0
30.335 667.0
30.35 680.0
30.365 627.0
30.38 691.0
30.395 660.0
30.41 697.0
30.425 694.0
30.44 744.0
30.455 687.0
30.47 681.0
30.485 691.0
30.5 649.0
30.515 639.0
30.53 711.0
30.545 691.0
30.56 661.0
30.575 649.0
30.59 688.0
30.605 668.0
30.62 650.0
30.635 713.0
30.65 666.0
30.665 636.0
30.68 714.0
30.695 632.0
30.71 629.0
30.725 707.0
30.74 669.0
30.755 633.0
30.77 634.0
30.785 644.0
30.8 629.0
30.815 646.0
30.83 619.0
30.845 646.0
30.86 645.0
30.875 636.0
30.89 652.0
30.905 625.0
30.92 620.0
30.935 618.0
30.95 631.0
30.965 655.0
30.98 657.0
30.995 686.0
31.01 645.0
31.025 605.0
31.04 592.0
31.055 611.0
31.07 635.0
31.085 663.0
31.1 613.0
31.115 646.0
31.13 624.0
31.145 619.0
31.16 679.0
31.175 618.0
31.19 608.0
31.205 621.0
31.22 635.0
31.235 621.0
31.25 637.0
31.265 633.0
31.28 586.0
31.295 617.0
31.31 587.0
31.325 602.0
31.34 639.0
31.355 609.0
31.37 578.0
31.385 612.0
31.4 575.0
31.415 648.0
31.43 629.0
31.445 584.0
31.46 583.0
31.475 600.0
31.49 624.0
31.505 583.0
31.52 592.0
31.535 594.0
31.55 586.0
31.565 620.0
31.58 602.0
31.595 625.0
31.61 612.0
31.625 643.0
31.64 584.0
31.655 603.0
31.67 624.0
31.685 605.0
31.7 569.0
31.715 623.0
31.73 625.0
31.745 621.0
31.76 596.0
31.775 616.0
31.79 605.0
31.805 640.0
31.82 597.0
31.835 625.0
31.85 628.0
31.865 668.0
31.88 640.0
31.895 683.0
31.91 741.0
31.925 754.0
31.94 792.0
31.955 843.0
31.97 928.0
31.985 991.0
32.0 958.0
32.015 986.0
32.03 1032.0
32.045 998.0
32.06 940.0
32.075 908.0
32.09 1007.0
32.105 966.0
32.12 995.0
32.135 1002.0
32.15 992.0
32.165 979.0
32.18 1006.0
32.195 1050.0
32.21 1076.0
32.225 1062.0
32.24 1023.0
32.255 1023.0
32.27 1006.0
32.285 943.0
32.3 928.0
32.315 953.0
32.33 940.0
32.345 843.0
32.36 863.0
32.375 829.0
32.39 766.0
32.405 754.0
32.42 660.0
32.435 683.0
32.45 671.0
32.465 643.0
32.48 637.0
32.495 629.0
32.51 615.0
32.525 674.0
32.54 595.0
32.555 613.0
32.57 609.0
32.585 585.0
32.6 629.0
32.615 621.0
32.63 583.0
32.645 575.0
32.66 576.0
32.675 565.0
32.69 585.0
32.705 572.0
32.72 594.0
32.735 550.0
32.75 545.0
32.765 584.0
32.78 550.0
32.795 566.0
32.81 582.0
32.825 565.0
32.84 607.0
32.855 576.0
32.87 560.0
32.885 584.0
32.9 560.0
32.915 592.0
32.93 592.0
32.945 529.0
32.96 549.0
32.975 548.0
32.99 552.0
33.005 566.0
33.02 591.0
33.035 543.0
33.05 572.0
33.065 580.0
33.08 598.0
33.095 544.0
33.11 530.0
33.125 529.0
33.14 531.0
33.155 573.0
33.17 566.0
33.185 551.0
33.2 518.0
33.215 520.0
33.23 556.0
33.245 548.0
33.26 586.0
33.275 593.0
33.29 539.0
33.305 497.0
33.32 515.0
33.335 496.0
33.35 489.0
33.365 494.0
33.38 526.0
33.395 504.0
33.41 527.0
33.425 541.0
33.44 530.0
33.455 504.0
33.47 537.0
33.485 537.0
33.5 530.0
33.515 527.0
33.53 525.0
33.545 531.0
33.56 580.0
33.575 526.0
33.59 503.0
33.605 509.0
33.62 503.0
33.635 504.0
33.65 493.0
33.665 506.0
33.68 527.0
33.695 528.0
33.71 522.0
33.725 499.0
33.74 525.0
33.755 571.0
33.77 553.0
33.785 520.0
33.8 531.0
33.815 524.0
33.83 475.0
33.845 467.0
33.86 507.0
33.875 514.0
33.89 501.0
33.905 471.0
33.92 509.0
33.935 542.0
33.95 514.0
33.965 492.0
33.98 506.0
33.995 512.0
34.01 533.0
34.025 491.0
34.04 494.0
34.055 500.0
34.07 503.0
34.085 471.0
34.1 507.0
34.115 514.0
34.13 512.0
34.145 531.0
34.16 522.0
34.175 500.0
34.19 509.0
34.205 520.0
34.22 507.0
34.235 510.0
34.25 546.0
34.265 505.0
34.28 525.0
34.295 522.0
34.31 522.0
34.325 534.0
34.34 519.0
34.355 560.0
34.37 516.0
34.385 585.0
34.4 565.0
34.415 511.0
34.43 543.0
34.445 540.0
34.46 480.0
34.475 545.0
34.49 542.0
34.505 513.0
34.52 508.0
34.535 519.0
34.55 530.0
34.565 543.0
34.58 514.0
34.595 506.0
34.61 485.0
34.625 553.0
34.64 546.0
34.655 547.0
34.67 561.0
34.685 559.0
34.7 521.0
34.715 527.0
34.73 550.0
34.745 561.0
34.76 583.0
34.775 583.0
34.79 567.0
34.805 553.0
34.82 546.0
34.835 566.0
34.85 548.0
34.865 575.0
34.88 573.0
34.895 619.0
34.91 584.0
34.925 578.0
34.94 573.0
34.955 567.0
34.97 606.0
34.985 635.0
35.0 565.0
35.015 585.0
35.03 632.0
35.045 605.0
35.06 591.0
35.075 572.0
35.09 619.0
35.105 619.0
35.12 573.0
35.135 576.0
35.15 601.0
35.165 600.0
35.18 587.0
35.195 594.0
35.21 576.0
35.225 506.0
35.24 493.0
35.255 529.0
35.27 505.0
35.285 501.0
35.3 505.0
35.315 469.0
35.33 486.0
35.345 505.0
35.36 515.0
35.375 498.0
35.39 474.0
35.405 508.0
35.42 475.0
35.435 482.0
35.45 453.0
35.465 478.0
35.48 451.0
35.495 469.0
35.51 462.0
35.525 430.0
35.54 485.0
35.555 495.0
35.57 462.0
35.585 453.0
35.6 430.0
35.615 419.0
35.63 474.0
35.645 463.0
35.66 472.0
35.675 480.0
35.69 494.0
35.705 450.0
35.72 494.0
35.735 460.0
35.75 460.0
35.765 472.0
35.78 420.0
35.795 438.0
35.81 484.0
35.825 469.0
35.84 475.0
35.855 457.0
35.87 433.0
35.885 469.0
35.9 446.0
35.915 422.0
35.93 444.0
35.945 412.0
35.96 469.0
35.975 465.0
35.99 451.0
36.005 445.0
36.02 432.0
36.035 414.0
36.05 389.0
36.065 439.0
36.08 432.0
36.095 468.0
36.11 465.0
36.125 428.0
36.14 431.0
36.155 411.0
36.17 428.0
36.185 414.0
36.2 467.0
36.215 447.0
36.23 408.0
36.245 416.0
36.26 426.0
36.275 412.0
36.29 461.0
36.305 494.0
36.32 486.0
36.335 417.0
36.35 421.0
36.365 417.0
36.38 446.0
36.395 444.0
36.41 416.0
36.425 427.0
36.44 438.0
36.455 452.0
36.47 454.0
36.485 472.0
36.5 470.0
36.515 502.0
36.53 481.0
36.545 442.0
36.56 449.0
36.575 434.0
36.59 464.0
36.605 419.0
36.62 402.0
36.635 414.0
36.65 455.0
36.665 442.0
36.68 452.0
36.695 430.0
36.71 457.0
36.725 452.0
36.74 437.0
36.755 419.0
36.77 447.0
36.785 458.0
36.8 463.0
36.815 441.0
36.83 408.0
36.845 395.0
36.86 384.0
36.875 419.0
36.89 435.0
36.905 443.0
36.92 415.0
36.935 415.0
36.95 454.0
36.965 437.0
36.98 382.0
36.995 438.0
37.01 419.0
37.025 401.0
37.04 414.0
37.055 405.0
37.07 371.0
37.085 415.0
37.1 394.0
37.115 400.0
37.13 388.0
37.145 436.0
37.16 413.0
37.175 381.0
37.19 395.0
37.205 383.0
37.22 380.0
37.235 376.0
37.25 360.0
37.265 389.0
37.28 385.0
37.295 399.0
37.31 392.0
37.325 409.0
37.34 409.0
37.355 389.0
37.37 387.0
37.385 407.0
37.4 404.0
37.415 361.0
37.43 355.0
37.445 386.0
37.46 362.0
37.475 368.0
37.49 381.0
37.505 404.0
37.52 391.0
37.535 420.0
37.55 424.0
37.565 370.0
37.58 404.0
37.595 415.0
37.61 438.0
37.625 398.0
37.64 370.0
37.655 381.0
37.67 389.0
37.685 365.0
37.7 377.0
37.715 397.0
37.73 415.0
37.745 392.0
37.76 395.0
37.775 423.0
37.79 373.0
37.805 352.0
37.82 361.0
37.835 367.0
37.85 385.0
37.865 411.0
37.88 394.0
37.895 429.0
37.91 362.0
37.925 362.0
37.94 392.0
37.955 366.0
37.97 390.0
37.985 434.0
38.0 389.0
38.015 341.0
38.03 379.0
38.045 371.0
38.06 388.0
38.075 370.0
38.09 418.0
38.105 362.0
38.12 399.0
38.135 373.0
38.15 394.0
38.165 345.0
38.18 398.0
38.195 377.0
38.21 375.0
38.225 415.0
38.24 369.0
38.255 351.0
38.27 386.0
38.285 378.0
38.3 380.0
38.315 404.0
38.33 359.0
38.345 350.0
38.36 379.0
38.375 426.0
38.39 368.0
38.405 385.0
38.42 394.0
38.435 398.0
38.45 399.0
38.465 379.0
38.48 400.0
38.495 415.0
38.51 394.0
38.525 378.0
38.54 356.0
38.555 368.0
38.57 372.0
38.585 396.0
38.6 391.0
38.615 393.0
38.63 350.0
38.645 352.0
38.66 402.0
38.675 387.0
38.69 385.0
38.705 388.0
38.72 400.0
38.735 392.0
38.75 357.0
38.765 363.0
38.78 316.0
38.795 336.0
38.81 342.0
38.825 373.0
38.84 416.0
38.855 387.0
38.87 377.0
38.885 341.0
38.9 376.0
38.915 392.0
38.93 420.0
38.945 418.0
38.96 405.0
38.975 375.0
38.99 394.0
39.005 382.0
39.02 368.0
39.035 431.0
39.05 411.0
39.065 389.0
39.08 411.0
39.095 429.0
39.11 397.0
39.125 379.0
39.14 385.0
39.155 383.0
39.17 363.0
39.185 406.0
39.2 421.0
39.215 367.0
39.23 330.0
39.245 402.0
39.26 377.0
39.275 389.0
39.29 364.0
39.305 418.0
39.32 423.0
39.335 387.0
39.35 423.0
39.365 402.0
39.38 398.0
39.395 418.0
39.41 397.0
39.425 410.0
39.44 440.0
39.455 420.0
39.47 417.0
39.485 417.0
39.5 407.0
39.515 428.0
39.53 430.0
39.545 440.0
39.56 459.0
39.575 427.0
39.59 443.0
39.605 477.0
39.62 454.0
39.635 446.0
39.65 469.0
39.665 454.0
39.68 470.0
39.695 509.0
39.71 478.0
39.725 474.0
39.74 511.0
39.755 541.0
39.77 511.0
39.785 486.0
39.8 484.0
39.815 521.0
39.83 447.0
39.845 464.0
39.86 476.0
39.875 423.0
39.89 454.0
39.905 451.0
39.92 420.0
39.935 419.0
39.95 418.0
39.965 436.0
39.98 419.0
39.995 386.0
40.01 449.0
40.025 439.0
40.04 380.0
40.055 386.0
40.07 390.0
40.085 404.0
40.1 395.0
40.115 399.0
40.13 368.0
40.145 410.0
40.16 388.0
40.175 378.0
40.19 356.0
40.205 363.0
40.22 406.0
40.235 400.0
40.25 400.0
40.265 362.0
40.28 409.0
40.295 390.0
40.31 362.0
40.325 358.0
40.34 356.0
40.355 372.0
40.37 387.0
40.385 377.0
40.4 349.0
40.415 344.0
40.43 377.0
40.445 353.0
40.46 339.0
40.475 331.0
40.49 388.0
40.505 322.0
40.52 371.0
40.535 387.0
40.55 385.0
40.565 348.0
40.58 350.0
40.595 353.0
40.61 383.0
40.625 352.0
40.64 341.0
40.655 343.0
40.67 357.0
40.685 366.0
40.7 373.0
40.715 362.0
40.73 350.0
40.745 386.0
40.76 354.0
40.775 348.0
40.79 341.0
40.805 323.0
40.82 384.0
40.835 356.0
40.85 391.0
40.865 373.0
40.88 389.0
40.895 381.0
40.91 342.0
40.925 357.0
40.94 404.0
40.955 347.0
40.97 366.0
40.985 363.0
41.0 372.0
41.015 356.0
41.03 345.0
41.045 338.0
41.06 372.0
41.075 363.0
41.09 408.0
41.105 373.0
41.12 364.0
41.135 399.0
41.15 384.0
41.165 382.0
41.18 398.0
41.195 375.0
41.21 361.0
41.225 379.0
41.24 379.0
41.255 404.0
41.27 421.0
41.285 392.0
41.3 376.0
41.315 399.0
41.33 376.0
41.345 356.0
41.36 391.0
41.375 388.0
41.39 395.0
41.405 383.0
41.42 385.0
41.435 396.0
41.45 364.0
41.465 375.0
41.48 353.0
41.495 351.0
41.51 403.0
41.525 382.0
41.54 353.0
41.555 373.0
41.57 363.0
41.585 368.0
41.6 358.0
41.615 365.0
41.63 413.0
41.645 405.0
41.66 380.0
41.675 357.0
41.69 381.0
41.705 377.0
41.72 368.0
41.735 352.0
41.75 365.0
41.765 376.0
41.78 380.0
41.795 410.0
41.81 382.0
41.825 398.0
41.84 360.0
41.855 375.0
41.87 361.0
41.885 367.0
41.9 369.0
41.915 365.0
41.93 387.0
41.945 346.0
41.96 384.0
41.975 379.0
41.99 381.0
42.005 390.0
42.02 390.0
42.035 376.0
42.05 390.0
42.065 434.0
42.08 413.0
42.095 389.0
42.11 392.0
42.125 400.0
42.14 417.0
42.155 448.0
42.17 441.0
42.185 419.0
42.2 429.0
42.215 498.0
42.23 516.0
42.245 513.0
42.26 512.0
42.275 519.0
42.29 573.0
42.305 558.0
42.32 539.0
42.335 512.0
42.35 492.0
42.365 435.0
42.38 466.0
42.395 470.0
42.41 463.0
42.425 469.0
42.44 475.0
42.455 501.0
42.47 480.0
42.485 457.0
42.5 430.0
42.515 489.0
42.53 475.0
42.545 494.0
42.56 511.0
42.575 511.0
42.59 546.0
42.605 504.0
42.62 537.0
42.635 545.0
42.65 547.0
42.665 514.0
42.68 556.0
42.695 530.0
42.71 542.0
42.725 474.0
42.74 526.0
42.755 487.0
42.77 466.0
42.785 499.0
42.8 465.0
42.815 430.0
42.83 417.0
42.845 388.0
42.86 399.0
42.875 397.0
42.89 442.0
42.905 430.0
42.92 454.0
42.935 449.0
42.95 430.0
42.965 433.0
42.98 423.0
42.995 414.0
43.01 397.0
43.025 409.0
43.04 418.0
43.055 437.0
43.07 420.0
43.085 436.0
43.1 404.0
43.115 404.0
43.13 418.0
43.145 400.0
43.16 404.0
43.175 387.0
43.19 363.0
43.205 382.0
43.22 391.0
43.235 407.0
43.25 406.0
43.265 391.0
43.28 366.0
43.295 406.0
43.31 370.0
43.325 397.0
43.34 404.0
43.355 401.0
43.37 399.0
43.385 427.0
43.4 385.0
43.415 397.0
43.43 378.0
43.445 366.0
43.46 373.0
43.475 381.0
43.49 387.0
43.505 382.0
43.52 391.0
43.535 369.0
43.55 383.0
43.565 383.0
43.58 399.0
43.595 384.0
43.61 387.0
43.625 387.0
43.64 380.0
43.655 374.0
43.67 419.0
43.685 425.0
43.7 421.0
43.715 389.0
43.73 424.0
43.745 357.0
43.76 359.0
43.775 343.0
43.79 394.0
43.805 407.0
43.82 392.0
43.835 369.0
43.85 393.0
43.865 426.0
43.88 398.0
43.895 448.0
43.91 409.0
43.925 417.0
43.94 402.0
43.955 455.0
43.97 408.0
43.985 423.0
44.0 435.0
44.015 398.0
44.03 409.0
44.045 449.0
44.06 445.0
44.075 430.0
44.09 448.0
44.105 435.0
44.12 465.0
44.135 448.0
44.15 452.0
44.165 474.0
44.18 473.0
44.195 455.0
44.21 472.0
44.225 517.0
44.24 490.0
44.255 533.0
44.27 542.0
44.285 582.0
44.3 594.0
44.315 582.0
44.33 628.0
44.345 666.0
44.36 659.0
44.375 649.0
44.39 663.0
44.405 693.0
44.42 617.0
44.435 614.0
44.45 634.0
44.465 589.0
44.48 589.0
44.495 621.0
44.51 592.0
44.525 602.0
44.54 605.0
44.555 664.0
44.57 640.0
44.585 616.0
44.6 617.0
44.615 654.0
44.63 651.0
44.645 641.0
44.66 654.0
44.675 680.0
44.69 649.0
44.705 694.0
44.72 679.0
44.735 623.0
44.75 637.0
44.765 653.0
44.78 667.0
44.795 659.0
44.81 697.0
44.825 705.0
44.84 719.0
44.855 743.0
44.87 698.0
44.885 684.0
44.9 709.0
44.915 691.0
44.93 676.0
44.945 703.0
44.96 726.0
44.975 671.0
44.99 722.0
45.005 668.0
45.02 659.0
45.035 646.0
45.05 595.0
45.065 570.0
45.08 582.0
45.095 590.0
45.11 546.0
45.125 573.0
45.14 516.0
45.155 499.0
45.17 503.0
45.185 521.0
45.2 514.0
45.215 513.0
45.23 444.0
45.245 472.0
45.26 433.0
45.275 459.0
45.29 445.0
45.305 458.0
45.32 419.0
45.335 422.0
45.35 406.0
45.365 391.0
45.38 402.0
45.395 420.0
45.41 415.0
45.425 396.0
45.44 397.0
45.455 396.0
45.47 377.0
45.485 365.0
45.5 415.0
45.515 386.0
45.53 372.0
45.545 388.0
45.56 377.0
45.575 354.0
45.59 359.0
45.605 364.0
45.62 387.0
45.635 378.0
45.65 382.0
45.665 380.0
45.68 343.0
45.695 356.0
45.71 396.0
45.725 350.0
45.74 376.0
45.755 379.0
45.77 363.0
45.785 350.0
45.8 374.0
45.815 375.0
45.83 376.0
45.845 365.0
45.86 354.0
45.875 368.0
45.89 358.0
45.905 368.0
45.92 352.0
45.935 350.0
45.95 365.0
45.965 372.0
45.98 382.0
45.995 358.0
46.01 402.0
46.025 381.0
46.04 383.0
46.055 376.0
46.07 371.0
46.085 366.0
46.1 368.0
46.115 364.0
46.13 356.0
46.145 376.0
46.16 332.0
46.175 378.0
46.19 375.0
46.205 375.0
46.22 349.0
46.235 383.0
46.25 405.0
46.265 374.0
46.28 366.0
46.295 382.0
46.31 371.0
46.325 401.0
46.34 389.0
46.355 410.0
46.37 417.0
46.385 391.0
46.4 406.0
46.415 404.0
46.43 407.0
46.445 393.0
46.46 419.0
46.475 402.0
46.49 399.0
46.505 395.0
46.52 377.0
46.535 395.0
46.55 374.0
46.565 359.0
46.58 391.0
46.595 379.0
46.61 402.0
46.625 381.0
46.64 403.0
46.655 399.0
46.67 446.0
46.685 416.0
46.7 370.0
46.715 356.0
46.73 402.0
46.745 407.0
46.76 366.0
46.775 399.0
46.79 404.0
46.805 396.0
46.82 368.0
46.835 391.0
46.85 410.0
46.865 377.0
46.88 372.0
46.895 362.0
46.91 332.0
46.925 358.0
46.94 340.0
46.955 404.0
46.97 373.0
46.985 362.0
47.0 356.0
47.015 356.0
47.03 367.0
47.045 345.0
47.06 383.0
47.075 380.0
47.09 346.0
47.105 342.0
47.12 348.0
47.135 364.0
47.15 342.0
47.165 329.0
47.18 309.0
47.195 318.0
47.21 327.0
47.225 345.0
47.24 320.0
47.255 330.0
47.27 326.0
47.285 356.0
47.3 362.0
47.315 338.0
47.33 339.0
47.345 330.0
47.36 325.0
47.375 348.0
47.39 313.0
47.405 343.0
47.42 295.0
47.435 342.0
47.45 317.0
47.465 309.0
47.48 352.0
47.495 348.0
47.51 339.0
47.525 326.0
47.54 339.0
47.555 365.0
47.57 347.0
47.585 349.0
47.6 293.0
47.615 335.0
47.63 344.0
47.645 330.0
47.66 341.0
47.675 335.0
47.69 300.0
47.705 300.0
47.72 341.0
47.735 343.0
47.75 323.0
47.765 306.0
47.78 313.0
47.795 309.0
47.81 301.0
47.825 318.0
47.84 313.0
47.855 284.0
47.87 300.0
47.885 304.0
47.9 308.0
47.915 302.0
47.93 326.0
47.945 317.0
47.96 328.0
47.975 303.0
47.99 319.0
48.005 337.0
48.02 325.0
48.035 322.0
48.05 327.0
48.065 315.0
48.08 293.0
48.095 304.0
48.11 326.0
48.125 334.0
48.14 335.0
48.155 304.0
48.17 313.0
48.185 321.0
48.2 301.0
48.215 295.0
48.23 310.0
48.245 319.0
48.26 300.0
48.275 327.0
48.29 321.0
48.305 297.0
48.32 321.0
48.335 319.0
48.35 324.0
48.365 314.0
48.38 323.0
48.395 314.0
48.41 304.0
48.425 294.0
48.44 312.0
48.455 307.0
48.47 305.0
48.485 285.0
48.5 287.0
48.515 304.0
48.53 275.0
48.545 307.0
48.56 314.0
48.575 324.0
48.59 300.0
48.605 341.0
48.62 307.0
48.635 293.0
48.65 302.0
48.665 328.0
48.68 326.0
48.695 323.0
48.71 331.0
48.725 309.0
48.74 324.0
48.755 349.0
48.77 324.0
48.785 351.0
48.8 312.0
48.815 327.0
48.83 330.0
48.845 308.0
48.86 281.0
48.875 292.0
48.89 314.0
48.905 308.0
48.92 320.0
48.935 307.0
48.95 304.0
48.965 308.0
48.98 301.0
48.995 309.0
49.01 309.0
49.025 298.0
49.04 320.0
49.055 312.0
49.07 313.0
49.085 304.0
49.1 289.0
49.115 296.0
49.13 325.0
49.145 309.0
49.16 319.0
49.175 315.0
49.19 329.0
49.205 316.0
49.22 338.0
49.235 297.0
49.25 319.0
49.265 331.0
49.28 292.0
49.295 322.0
49.31 349.0
49.325 321.0
49.34 322.0
49.355 313.0
49.37 328.0
49.385 349.0
49.4 318.0
49.415 305.0
49.43 313.0
49.445 305.0
49.46 318.0
49.475 335.0
49.49 327.0
49.505 339.0
49.52 313.0
49.535 306.0
49.55 292.0
49.565 273.0
49.58 317.0
49.595 346.0
49.61 308.0
49.625 315.0
49.64 300.0
49.655 352.0
49.67 310.0
49.685 299.0
49.7 298.0
49.715 298.0
49.73 325.0
49.745 332.0
49.76 303.0
49.775 284.0
49.79 294.0
49.805 306.0
49.82 306.0
49.835 298.0
49.85 299.0
49.865 292.0
49.88 304.0
49.895 322.0
49.91 310.0
49.925 304.0
49.94 278.0
49.955 326.0
49.97 329.0
49.985 294.0
50.0 325.0
50.015 326.0
50.03 343.0
50.045 315.0
50.06 350.0
50.075 268.0
50.09 293.0
50.105 326.0
50.12 348.0
50.135 321.0
50.15 293.0
50.165 288.0
50.18 261.0
50.195 330.0
50.21 347.0
50.225 364.0
50.24 350.0
50.255 348.0
50.27 291.0
50.285 280.0
50.3 284.0
50.315 313.0
50.33 326.0
50.345 300.0
50.36 293.0
50.375 331.0
50.39 334.0
50.405 369.0
50.42 336.0
50.435 322.0
50.45 318.0
50.465 328.0
50.48 331.0
50.495 283.0
50.51 314.0
50.525 333.0
50.54 355.0
50.555 356.0
50.57 330.0
50.585 356.0
50.6 334.0
50.615 356.0
50.63 307.0
50.645 306.0
50.66 323.0
50.675 334.0
50.69 326.0
50.705 305.0
50.72 294.0
50.735 310.0
50.75 342.0
50.765 352.0
50.78 289.0
50.795 328.0
50.81 321.0
50.825 350.0
50.84 333.0
50.855 332.0
50.87 348.0
50.885 324.0
50.9 340.0
50.915 309.0
50.93 351.0
50.945 320.0
50.96 318.0
50.975 310.0
50.99 315.0
51.005 338.0
51.02 324.0
51.035 343.0
51.05 340.0
51.065 313.0
51.08 314.0
51.095 342.0
51.11 347.0
51.125 362.0
51.14 323.0
51.155 340.0
51.17 298.0
51.185 296.0
51.2 289.0
51.215 291.0
51.23 321.0
51.245 350.0
51.26 317.0
51.275 303.0
51.29 293.0
51.305 325.0
51.32 322.0
51.335 350.0
51.35 342.0
51.365 332.0
51.38 336.0
51.395 315.0
51.41 294.0
51.425 284.0
51.44 311.0
51.455 329.0
51.47 310.0
51.485 298.0
51.5 288.0
51.515 298.0
51.53 327.0
51.545 315.0
51.56 289.0
51.575 286.0
51.59 305.0
51.605 283.0
51.62 280.0
51.635 293.0
51.65 349.0
51.665 302.0
51.68 279.0
51.695 299.0
51.71 317.0
51.725 296.0
51.74 303.0
51.755 284.0
51.77 307.0
51.785 339.0
51.8 302.0
51.815 311.0
51.83 321.0
51.845 297.0
51.86 289.0
51.875 310.0
51.89 292.0
51.905 317.0
51.92 311.0
51.935 319.0
51.95 293.0
51.965 316.0
51.98 304.0
51.995 296.0
52.01 315.0
52.025 301.0
52.04 294.0
52.055 291.0
52.07 281.0
52.085 281.0
52.1 313.0
52.115 263.0
52.13 264.0
52.145 296.0
52.16 334.0
52.175 314.0
52.19 288.0
52.205 285.0
52.22 350.0
52.235 332.0
52.25 293.0
52.265 291.0
52.28 305.0
52.295 307.0
52.31 317.0
52.325 267.0
52.34 290.0
52.355 328.0
52.37 293.0
52.385 294.0
52.4 281.0
52.415 256.0
52.43 281.0
52.445 300.0
52.46 302.0
52.475 290.0
52.49 337.0
52.505 335.0
52.52 307.0
52.535 281.0
52.55 297.0
52.565 280.0
52.58 284.0
52.595 309.0
52.61 327.0
52.625 334.0
52.64 319.0
52.655 338.0
52.67 295.0
52.685 309.0
52.7 320.0
52.715 313.0
52.73 344.0
52.745 365.0
52.76 310.0
52.775 305.0
52.79 300.0
52.805 311.0
52.82 305.0
52.835 331.0
52.85 279.0
52.865 271.0
52.88 311.0
52.895 316.0
52.91 300.0
52.925 298.0
52.94 297.0
52.955 301.0
52.97 296.0
52.985 316.0
53.0 307.0
53.015 304.0
53.03 302.0
53.045 338.0
53.06 331.0
53.075 296.0
53.09 305.0
53.105 313.0
53.12 327.0
53.135 322.0
53.15 311.0
53.165 303.0
53.18 316.0
53.195 316.0
53.21 284.0
53.225 300.0
53.24 307.0
53.255 302.0
53.27 303.0
53.285 298.0
53.3 261.0
53.315 281.0
53.33 268.0
53.345 288.0
53.36 313.0
53.375 267.0
53.39 308.0
53.405 311.0
53.42 293.0
53.435 291.0
53.45 285.0
53.465 279.0
53.48 289.0
53.495 306.0
53.51 295.0
53.525 274.0
53.54 259.0
53.555 310.0
53.57 272.0
53.585 311.0
53.6 321.0
53.615 285.0
53.63 275.0
53.645 294.0
53.66 295.0
53.675 283.0
53.69 284.0
53.705 274.0
53.72 294.0
53.735 309.0
53.75 294.0
53.765 287.0
53.78 303.0
53.795 278.0
53.81 271.0
53.825 320.0
53.84 319.0
53.855 290.0
53.87 296.0
53.885 293.0
53.9 318.0
53.915 309.0
53.93 305.0
53.945 312.0
53.96 314.0
53.975 324.0
53.99 323.0
54.005 316.0
54.02 323.0
54.035 326.0
54.05 328.0
54.065 322.0
54.08 312.0
54.095 316.0
54.11 308.0
54.125 321.0
54.14 299.0
54.155 317.0
54.17 302.0
54.185 325.0
54.2 338.0
54.215 343.0
54.23 332.0
54.245 339.0
54.26 345.0
54.275 339.0
54.29 327.0
54.305 343.0
54.32 332.0
54.335 304.0
54.35 325.0
54.365 296.0
54.38 297.0
54.395 314.0
54.41 313.0
54.425 315.0
54.44 307.0
54.455 319.0
54.47 295.0
54.485 304.0
54.5 327.0
54.515 325.0
54.53 348.0
54.545 352.0
54.56 308.0
54.575 314.0
54.59 324.0
54.605 325.0
54.62 330.0
54.635 306.0
54.65 304.0
54.665 336.0
54.68 324.0
54.695 307.0
54.71 284.0
54.725 290.0
54.74 302.0
54.755 305.0
54.77 318.0
54.785 305.0
54.8 299.0
54.815 307.0
54.83 308.0
54.845 283.0
54.86 314.0
54.875 308.0
54.89 278.0
54.905 291.0
54.92 301.0
54.935 297.0
54.95 270.0
54.965 268.0
54.98 272.0
54.995 312.0
55.01 290.0
55.025 308.0
55.04 315.0
55.055 300.0
55.07 315.0
55.085 284.0
55.1 280.0
55.115 314.0
55.13 284.0
55.145 314.0
55.16 306.0
55.175 315.0
55.19 292.0
55.205 312.0
55.22 292.0
55.235 332.0
55.25 324.0
55.265 326.0
55.28 311.0
55.295 295.0
55.31 285.0
55.325 273.0
55.34 291.0
55.355 307.0
55.37 288.0
55.385 303.0
55.4 314.0
55.415 297.0
55.43 300.0
55.445 293.0
55.46 309.0
55.475 306.0
55.49 312.0
55.505 290.0
55.52 318.0
55.535 329.0
55.55 326.0
55.565 345.0
55.58 320.0
55.595 335.0
55.61 314.0
55.625 333.0
55.64 359.0
55.655 319.0
55.67 315.0
55.685 333.0
55.7 329.0
55.715 332.0
55.73 372.0
55.745 376.0
55.76 327.0
55.775 351.0
55.79 366.0
55.805 396.0
55.82 372.0
55.835 385.0
55.85 388.0
55.865 345.0
55.88 394.0
55.895 375.0
55.91 378.0
55.925 421.0
55.94 406.0
55.955 368.0
55.97 418.0
55.985 408.0
56.0 393.0
56.015 431.0
56.03 433.0
56.045 422.0
56.06 410.0
56.075 407.0
56.09 419.0
56.105 400.0
56.12 402.0
56.135 401.0
56.15 395.0
56.165 408.0
56.18 419.0
56.195 434.0
56.21 396.0
56.225 403.0
56.24 426.0
56.255 364.0
56.27 406.0
56.285 440.0
56.3 473.0
56.315 441.0
56.33 390.0
56.345 383.0
56.36 389.0
56.375 376.0
56.39 374.0
56.405 373.0
56.42 428.0
56.435 418.0
56.45 401.0
56.465 379.0
56.48 405.0
56.495 403.0
56.51 412.0
56.525 412.0
56.54 359.0
56.555 392.0
56.57 365.0
56.585 386.0
56.6 376.0
56.615 371.0
56.63 339.0
56.645 361.0
56.66 358.0
56.675 354.0
56.69 373.0
56.705 345.0
56.72 385.0
56.735 393.0
56.75 353.0
56.765 330.0
56.78 348.0
56.795 336.0
56.81 345.0
56.825 329.0
56.84 345.0
56.855 338.0
56.87 336.0
56.885 334.0
56.9 343.0
56.915 320.0
56.93 373.0
56.945 344.0
56.96 335.0
56.975 343.0
56.99 350.0
57.005 332.0
57.02 354.0
57.035 349.0
57.05 335.0
57.065 355.0
57.08 333.0
57.095 365.0
57.11 362.0
57.125 347.0
57.14 337.0
57.155 324.0
57.17 336.0
57.185 365.0
57.2 368.0
57.215 375.0
57.23 372.0
57.245 378.0
57.26 309.0
57.275 322.0
57.29 333.0
57.305 359.0
57.32 330.0
57.335 343.0
57.35 345.0
57.365 331.0
57.38 339.0
57.395 341.0
57.41 340.0
57.425 323.0
57.44 337.0
57.455 353.0
57.47 330.0
57.485 352.0
57.5 334.0
57.515 331.0
57.53 311.0
57.545 318.0
57.56 338.0
57.575 332.0
57.59 313.0
57.605 287.0
57.62 326.0
57.635 318.0
57.65 322.0
57.665 308.0
57.68 322.0
57.695 280.0
57.71 323.0
57.725 309.0
57.74 301.0
57.755 321.0
57.77 308.0
57.785 320.0
57.8 305.0
57.815 295.0
57.83 298.0
57.845 292.0
57.86 276.0
57.875 303.0
57.89 304.0
57.905 310.0
57.92 295.0
57.935 309.0
57.95 279.0
57.965 277.0
57.98 305.0
57.995 285.0
58.01 286.0
58.025 301.0
58.04 274.0
58.055 284.0
58.07 269.0
58.085 285.0
58.1 283.0
58.115 323.0
58.13 294.0
58.145 289.0
58.16 282.0
58.175 284.0
58.19 297.0
58.205 309.0
58.22 289.0
58.235 248.0
58.25 284.0
58.265 276.0
58.28 243.0
58.295 259.0
58.31 284.0
58.325 304.0
58.34 260.0
58.355 285.0
58.37 314.0
58.385 288.0
58.4 285.0
58.415 288.0
58.43 292.0
58.445 291.0
58.46 281.0
58.475 293.0
58.49 290.0
58.505 249.0
58.52 242.0
58.535 275.0
58.55 266.0
58.565 295.0
58.58 288.0
58.595 275.0
58.61 294.0
58.625 274.0
58.64 276.0
58.655 286.0
58.67 294.0
58.685 297.0
58.7 287.0
58.715 270.0
58.73 254.0
58.745 270.0
58.76 269.0
58.775 279.0
58.79 264.0
58.805 272.0
58.82 250.0
58.835 280.0
58.85 305.0
58.865 301.0
58.88 289.0
58.895 314.0
58.91 280.0
58.925 291.0
58.94 306.0
58.955 303.0
58.97 305.0
58.985 283.0
59.0 310.0
59.015 296.0
59.03 270.0
59.045 268.0
59.06 273.0
59.075 295.0
59.09 282.0
59.105 296.0
59.12 266.0
59.135 284.0
59.15 287.0
59.165 298.0
59.18 283.0
59.195 267.0
59.21 257.0
59.225 284.0
59.24 276.0
59.255 279.0
59.27 291.0
59.285 293.0
59.3 276.0
59.315 287.0
59.33 312.0
59.345 301.0
59.36 270.0
59.375 256.0
59.39 281.0
59.405 264.0
59.42 289.0
59.435 281.0
59.45 272.0
59.465 280.0
59.48 266.0
59.495 296.0
59.51 276.0
59.525 262.0
59.54 268.0
59.555 250.0
59.57 274.0
59.585 291.0
59.6 306.0
59.615 294.0
59.63 275.0
59.645 261.0
59.66 276.0
59.675 285.0
59.69 279.0
59.705 285.0
59.72 278.0
59.735 286.0
59.75 266.0
59.765 256.0
59.78 241.0
59.795 240.0
59.81 268.0
59.825 286.0
59.84 309.0
59.855 302.0
59.87 281.0
59.885 291.0
59.9 294.0
59.915 288.0
59.93 268.0
59.945 258.0
59.96 284.0
59.975 263.0
59.99 318.0
60.005 279.0
60.02 259.0
60.035 293.0
60.05 227.0
60.065 281.0
60.08 260.0
60.095 260.0
60.11 283.0
60.125 254.0
60.14 282.0
60.155 270.0
60.17 288.0
60.185 288.0
60.2 247.0
60.215 273.0
60.23 284.0
60.245 247.0
60.26 275.0
60.275 283.0
60.29 281.0
60.305 280.0
60.32 247.0
60.335 294.0
60.35 305.0
60.365 296.0
60.38 285.0
60.395 284.0
60.41 271.0
60.425 279.0
60.44 260.0
60.455 270.0
60.47 285.0
60.485 293.0
60.5 281.0
60.515 277.0
60.53 262.0
60.545 282.0
60.56 284.0
60.575 276.0
60.59 281.0
60.605 276.0
60.62 282.0
60.635 312.0
60.65 285.0
60.665 298.0
60.68 294.0
60.695 272.0
60.71 256.0
60.725 275.0
60.74 322.0
60.755 293.0
60.77 258.0
60.785 294.0
60.8 269.0
60.815 252.0
60.83 280.0
60.845 284.0
60.86 280.0
60.875 266.0
60.89 276.0
60.905 260.0
60.92 269.0
60.935 266.0
60.95 272.0
60.965 237.0
60.98 285.0
60.995 242.0
61.01 269.0
61.025 255.0
61.04 231.0
61.055 261.0
61.07 266.0
61.085 324.0
61.1 259.0
61.115 262.0
61.13 277.0
61.145 297.0
61.16 278.0
61.175 263.0
61.19 267.0
61.205 276.0
61.22 244.0
61.235 244.0
61.25 278.0
61.265 307.0
61.28 291.0
61.295 285.0
61.31 317.0
61.325 305.0
61.34 321.0
61.355 305.0
61.37 298.0
61.385 251.0
61.4 252.0
61.415 290.0
61.43 276.0
61.445 272.0
61.46 290.0
61.475 279.0
61.49 288.0
61.505 261.0
61.52 265.0
61.535 264.0
61.55 278.0
61.565 266.0
61.58 272.0
61.595 270.0
61.61 259.0
61.625 264.0
61.64 276.0
61.655 266.0
61.67 282.0
61.685 269.0
61.7 248.0
61.715 293.0
61.73 303.0
61.745 308.0
61.76 277.0
61.775 257.0
61.79 262.0
61.805 259.0
61.82 259.0
61.835 281.0
61.85 285.0
61.865 261.0
61.88 270.0
61.895 274.0
61.91 281.0
61.925 290.0
61.94 301.0
61.955 267.0
61.97 253.0
61.985 253.0
