2.00000 6.000
2.01500 3.000
2.03000 3.000
2.04500 3.000
2.06000 5.000
2.07500 6.000
2.09000 7.000
2.10500 5.000
2.12000 5.000
2.13500 5.000
2.15000 6.000
2.16500 3.000
2.18000 1.000
2.19500 3.000
2.21000 5.000
2.22500 4.000
2.24000 3.000
2.25500 6.000
2.27000 3.000
2.28500 4.000
2.30000 3.000
2.31500 5.000
2.33000 7.000
2.34500 3.000
2.36000 2.000
2.37500 6.000
2.39000 6.000
2.40500 4.000
2.42000 3.000
2.43500 5.000
2.45000 5.000
2.46500 4.000
2.48000 8.000
2.49500 4.000
2.51000 4.000
2.52500 4.000
2.54000 6.000
2.55500 5.000
2.57000 3.000
2.58500 3.000
2.60000 5.000
2.61500 6.000
2.63000 5.000
2.64500 2.000
2.66000 1.000
2.67500 3.000
2.69000 4.000
2.70500 4.000
2.72000 5.000
2.73500 8.000
2.75000 5.000
2.76500 3.000
2.78000 6.000
2.79500 6.000
2.81000 4.000
2.82500 3.000
2.84000 3.000
2.85500 3.000
2.87000 7.000
2.88500 4.000
2.90000 6.000
2.91500 6.000
2.93000 6.000
2.94500 3.000
2.96000 5.000
2.97500 5.000
2.99000 5.000
3.00500 4.000
3.02000 5.000
3.03500 7.000
3.05000 7.000
3.06500 7.000
3.08000 11.000
3.09500 25.000
3.11000 29.000
3.12500 37.000
3.14000 48.000
3.15500 89.000
3.17000 122.000
3.18500 166.000
3.20000 254.000
3.21500 295.000
3.23000 343.000
3.24500 408.000
3.26000 454.000
3.27500 466.000
3.29000 428.000
3.30500 430.000
3.32000 462.000
3.33500 454.000
3.35000 411.000
3.36500 438.000
3.38000 429.000
3.39500 432.000
3.41000 437.000
3.42500 414.000
3.44000 413.000
3.45500 446.000
3.47000 419.000
3.48500 417.000
3.50000 405.000
3.51500 398.000
3.53000 407.000
3.54500 408.000
3.56000 391.000
3.57500 401.000
3.59000 387.000
3.60500 399.000
3.62000 404.000
3.63500 387.000
3.65000 436.000
3.66500 417.000
3.68000 396.000
3.69500 396.000
3.71000 395.000
3.72500 385.000
3.74000 418.000
3.75500 397.000
3.77000 349.000
3.78500 373.000
3.80000 399.000
3.81500 408.000
3.83000 376.000
3.84500 407.000
3.86000 382.000
3.87500 396.000
3.89000 384.000
3.90500 364.000
3.92000 369.000
3.93500 391.000
3.95000 383.000
3.96500 399.000
3.98000 358.000
3.99500 384.000
4.01000 393.000
4.02500 368.000
4.04000 383.000
4.05500 398.000
4.07000 378.000
4.08500 370.000
4.10000 378.000
4.11500 354.000
4.13000 363.000
4.14500 345.000
4.16000 359.000
4.17500 386.000
4.19000 407.000
4.20500 411.000
4.22000 387.000
4.23500 403.000
4.25000 381.000
4.26500 368.000
4.28000 350.000
4.29500 344.000
4.31000 359.000
4.32500 381.000
4.34000 382.000
4.35500 357.000
4.37000 373.000
4.38500 381.000
4.40000 380.000
4.41500 386.000
4.43000 399.000
4.44500 388.000
4.46000 388.000
4.47500 383.000
4.49000 395.000
4.50500 361.000
4.52000 362.000
4.53500 377.000
4.55000 374.000
4.56500 395.000
4.58000 368.000
4.59500 382.000
4.61000 395.000
4.62500 363.000
4.64000 347.000
4.65500 376.000
4.67000 394.000
4.68500 372.000
4.70000 363.000
4.71500 368.000
4.73000 353.000
4.74500 364.000
4.76000 401.000
4.77500 396.000
4.79000 354.000
4.80500 369.000
4.82000 394.000
4.83500 366.000
4.85000 339.000
4.86500 367.000
4.88000 364.000
4.89500 366.000
4.91000 386.000
4.92500 401.000
4.94000 398.000
4.95500 390.000
4.97000 396.000
4.98500 386.000
5.00000 366.000
5.01500 346.000
5.03000 384.000
5.04500 392.000
5.06000 364.000
5.07500 397.000
5.09000 390.000
5.10500 358.000
5.12000 360.000
5.13500 374.000
5.15000 361.000
5.16500 381.000
5.18000 362.000
5.19500 396.000
5.21000 377.000
5.22500 357.000
5.24000 362.000
5.25500 359.000
5.27000 357.000
5.28500 390.000
5.30000 357.000
5.31500 379.000
5.33000 396.000
5.34500 368.000
5.36000 379.000
5.37500 382.000
5.39000 410.000
5.40500 395.000
5.42000 403.000
5.43500 399.000
5.45000 363.000
5.46500 401.000
5.48000 401.000
5.49500 398.000
5.51000 365.000
5.52500 360.000
5.54000 375.000
5.55500 395.000
5.57000 393.000
5.58500 428.000
5.60000 399.000
5.61500 394.000
5.63000 403.000
5.64500 414.000
5.66000 413.000
5.67500 360.000
5.69000 373.000
5.70500 396.000
5.72000 413.000
5.73500 401.000
5.75000 421.000
5.76500 388.000
5.78000 387.000
5.79500 395.000
5.81000 398.000
5.82500 405.000
5.84000 389.000
5.85500 397.000
5.87000 393.000
5.88500 386.000
5.90000 424.000
5.91500 393.000
5.93000 430.000
5.94500 417.000
5.96000 404.000
5.97500 424.000
5.99000 405.000
6.00500 403.000
6.02000 382.000
6.03500 358.000
6.05000 383.000
6.06500 364.000
6.08000 370.000
6.09500 373.000
6.11000 412.000
6.12500 423.000
6.14000 393.000
6.15500 381.000
6.17000 415.000
6.18500 399.000
6.20000 387.000
6.21500 401.000
6.23000 413.000
6.24500 376.000
6.26000 403.000
6.27500 417.000
6.29000 406.000
6.30500 404.000
6.32000 401.000
6.33500 377.000
6.35000 387.000
6.36500 419.000
6.38000 405.000
6.39500 419.000
6.41000 415.000
6.42500 408.000
6.44000 391.000
6.45500 377.000
6.47000 394.000
6.48500 416.000
6.50000 428.000
6.51500 450.000
6.53000 410.000
6.54500 389.000
6.56000 413.000
6.57500 424.000
6.59000 432.000
6.60500 411.000
6.62000 407.000
6.63500 393.000
6.65000 395.000
6.66500 401.000
6.68000 412.000
6.69500 430.000
6.71000 406.000
6.72500 438.000
6.74000 408.000
6.75500 396.000
6.77000 402.000
6.78500 396.000
6.80000 403.000
6.81500 394.000
6.83000 388.000
6.84500 394.000
6.86000 390.000
6.87500 394.000
6.89000 402.000
6.90500 409.000
6.92000 402.000
6.93500 439.000
6.95000 410.000
6.96500 423.000
6.98000 439.000
6.99500 404.000
7.01000 406.000
7.02500 419.000
7.04000 406.000
7.05500 437.000
7.07000 406.000
7.08500 433.000
7.10000 428.000
7.11500 424.000
7.13000 411.000
7.14500 417.000
7.16000 438.000
7.17500 406.000
7.19000 429.000
7.20500 439.000
7.22000 423.000
7.23500 399.000
7.25000 400.000
7.26500 402.000
7.28000 419.000
7.29500 445.000
7.31000 442.000
7.32500 442.000
7.34000 451.000
7.35500 417.000
7.37000 432.000
7.38500 459.000
7.40000 429.000
7.41500 419.000
7.43000 435.000
7.44500 440.000
7.46000 414.000
7.47500 426.000
7.49000 440.000
7.50500 402.000
7.52000 425.000
7.53500 414.000
7.55000 422.000
7.56500 395.000
7.58000 412.000
7.59500 417.000
7.61000 458.000
7.62500 465.000
7.64000 406.000
7.65500 436.000
7.67000 408.000
7.68500 419.000
7.70000 444.000
7.71500 432.000
7.73000 424.000
7.74500 442.000
7.76000 429.000
7.77500 450.000
7.79000 422.000
7.80500 412.000
7.82000 459.000
7.83500 425.000
7.85000 420.000
7.86500 442.000
7.88000 422.000
7.89500 443.000
7.91000 437.000
7.92500 454.000
7.94000 441.000
7.95500 405.000
7.97000 456.000
7.98500 447.000
8.00000 432.000
8.01500 445.000
8.03000 421.000
8.04500 442.000
8.06000 432.000
8.07500 398.000
8.09000 415.000
8.10500 446.000
8.12000 421.000
8.13500 426.000
8.15000 443.000
8.16500 441.000
8.18000 446.000
8.19500 434.000
8.21000 408.000
8.22500 424.000
8.24000 441.000
8.25500 452.000
8.27000 463.000
8.28500 421.000
8.30000 435.000
8.31500 443.000
8.33000 436.000
8.34500 447.000
8.36000 418.000
8.37500 437.000
8.39000 430.000
8.40500 390.000
8.42000 431.000
8.43500 442.000
8.45000 417.000
8.46500 410.000
8.48000 434.000
8.49500 426.000
8.51000 444.000
8.52500 435.000
8.54000 413.000
8.55500 454.000
8.57000 477.000
8.58500 441.000
8.60000 413.000
8.61500 465.000
8.63000 428.000
8.64500 408.000
8.66000 445.000
8.67500 452.000
8.69000 442.000
8.70500 419.000
8.72000 474.000
8.73500 446.000
8.75000 423.000
8.76500 444.000
8.78000 428.000
8.79500 417.000
8.81000 447.000
8.82500 458.000
8.84000 452.000
8.85500 421.000
8.87000 426.000
8.88500 454.000
8.90000 454.000
8.91500 448.000
8.93000 437.000
8.94500 473.000
8.96000 465.000
8.97500 439.000
8.99000 417.000
9.00500 417.000
9.02000 456.000
9.03500 431.000
9.05000 414.000
9.06500 426.000
9.08000 457.000
9.09500 441.000
9.11000 409.000
9.12500 438.000
9.14000 418.000
9.15500 422.000
9.17000 435.000
9.18500 460.000
9.20000 450.000
9.21500 416.000
9.23000 420.000
9.24500 427.000
9.26000 436.000
9.27500 432.000
9.29000 429.000
9.30500 460.000
9.32000 467.000
9.33500 437.000
9.35000 449.000
9.36500 416.000
9.38000 422.000
9.39500 438.000
9.41000 452.000
9.42500 461.000
9.44000 450.000
9.45500 430.000
9.47000 408.000
9.48500 439.000
9.50000 444.000
9.51500 443.000
9.53000 428.000
9.54500 431.000
9.56000 439.000
9.57500 440.000
9.59000 438.000
9.60500 415.000
9.62000 437.000
9.63500 462.000
9.65000 438.000
9.66500 426.000
9.68000 450.000
9.69500 450.000
9.71000 440.000
9.72500 449.000
9.74000 448.000
9.75500 458.000
9.77000 455.000
9.78500 436.000
9.80000 454.000
9.81500 462.000
9.83000 440.000
9.84500 408.000
9.86000 430.000
9.87500 424.000
9.89000 408.000
9.90500 445.000
9.92000 442.000
9.93500 450.000
9.95000 450.000
9.96500 426.000
9.98000 461.000
9.99500 450.000
10.01000 424.000
10.02500 460.000
10.04000 451.000
10.05500 429.000
10.07000 446.000
10.08500 473.000
10.10000 465.000
10.11500 449.000
10.13000 474.000
10.14500 472.000
10.16000 446.000
10.17500 481.000
10.19000 481.000
10.20500 452.000
10.22000 470.000
10.23500 463.000
10.25000 447.000
10.26500 426.000
10.28000 429.000
10.29500 476.000
10.31000 472.000
10.32500 459.000
10.34000 458.000
10.35500 470.000
10.37000 416.000
10.38500 463.000
10.40000 455.000
10.41500 484.000
10.43000 480.000
10.44500 467.000
10.46000 458.000
10.47500 466.000
10.49000 493.000
10.50500 450.000
10.52000 469.000
10.53500 459.000
10.55000 440.000
10.56500 446.000
10.58000 434.000
10.59500 440.000
10.61000 470.000
10.62500 468.000
10.64000 454.000
10.65500 471.000
10.67000 482.000
10.68500 502.000
10.70000 500.000
10.71500 480.000
10.73000 497.000
10.74500 463.000
10.76000 439.000
10.77500 441.000
10.79000 479.000
10.80500 482.000
10.82000 462.000
10.83500 462.000
10.85000 491.000
10.86500 463.000
10.88000 468.000
10.89500 487.000
10.91000 459.000
10.92500 472.000
10.94000 483.000
10.95500 487.000
10.97000 480.000
10.98500 493.000
11.00000 513.000
11.01500 516.000
11.03000 470.000
11.04500 471.000
11.06000 475.000
11.07500 456.000
11.09000 469.000
11.10500 478.000
11.12000 493.000
11.13500 471.000
11.15000 482.000
11.16500 487.000
11.18000 493.000
11.19500 500.000
11.21000 505.000
11.22500 490.000
11.24000 485.000
11.25500 506.000
11.27000 480.000
11.28500 467.000
11.30000 467.000
11.31500 497.000
11.33000 472.000
11.34500 470.000
11.36000 467.000
11.37500 497.000
11.39000 471.000
11.40500 474.000
11.42000 467.000
11.43500 457.000
11.45000 479.000
11.46500 451.000
11.48000 480.000
11.49500 504.000
11.51000 464.000
11.52500 493.000
11.54000 495.000
11.55500 444.000
11.57000 495.000
11.58500 524.000
11.60000 531.000
11.61500 508.000
11.63000 488.000
11.64500 496.000
11.66000 524.000
11.67500 529.000
11.69000 538.000
11.70500 525.000
11.72000 512.000
11.73500 556.000
11.75000 503.000
11.76500 535.000
11.78000 562.000
11.79500 594.000
11.81000 553.000
11.82500 596.000
11.84000 598.000
11.85500 618.000
11.87000 618.000
11.88500 635.000
11.90000 655.000
11.91500 630.000
11.93000 683.000
11.94500 710.000
11.96000 774.000
11.97500 769.000
11.99000 787.000
12.00500 818.000
12.02000 835.000
12.03500 836.000
12.05000 852.000
12.06500 906.000
12.08000 876.000
12.09500 861.000
12.11000 825.000
12.12500 808.000
12.14000 792.000
12.15500 743.000
12.17000 786.000
12.18500 742.000
12.20000 704.000
12.21500 682.000
12.23000 671.000
12.24500 643.000
12.26000 595.000
12.27500 580.000
12.29000 593.000
12.30500 605.000
12.32000 591.000
12.33500 569.000
12.35000 591.000
12.36500 586.000
12.38000 557.000
12.39500 570.000
12.41000 554.000
12.42500 532.000
12.44000 558.000
12.45500 537.000
12.47000 581.000
12.48500 577.000
12.50000 555.000
12.51500 582.000
12.53000 552.000
12.54500 502.000
12.56000 518.000
12.57500 546.000
12.59000 577.000
12.60500 576.000
12.62000 613.000
12.63500 585.000
12.65000 607.000
12.66500 598.000
12.68000 632.000
12.69500 645.000
12.71000 647.000
12.72500 620.000
12.74000 628.000
12.75500 669.000
12.77000 624.000
12.78500 646.000
12.80000 636.000
12.81500 657.000
12.83000 636.000
12.84500 610.000
12.86000 624.000
12.87500 633.000
12.89000 634.000
12.90500 623.000
12.92000 610.000
12.93500 632.000
12.95000 584.000
12.96500 638.000
12.98000 610.000
12.99500 615.000
13.01000 642.000
13.02500 674.000
13.04000 635.000
13.05500 607.000
13.07000 583.000
13.08500 580.000
13.10000 560.000
13.11500 564.000
13.13000 563.000
13.14500 578.000
13.16000 570.000
13.17500 594.000
13.19000 591.000
13.20500 583.000
13.22000 594.000
13.23500 592.000
13.25000 605.000
13.26500 586.000
13.28000 587.000
13.29500 574.000
13.31000 589.000
13.32500 592.000
13.34000 603.000
13.35500 584.000
13.37000 558.000
13.38500 593.000
13.40000 585.000
13.41500 605.000
13.43000 592.000
13.44500 570.000
13.46000 574.000
13.47500 599.000
13.49000 582.000
13.50500 579.000
13.52000 579.000
13.53500 569.000
13.55000 557.000
13.56500 579.000
13.58000 557.000
13.59500 582.000
13.61000 562.000
13.62500 560.000
13.64000 567.000
13.65500 583.000
13.67000 576.000
13.68500 596.000
13.70000 591.000
13.71500 570.000
13.73000 575.000
13.74500 598.000
13.76000 571.000
13.77500 555.000
13.79000 590.000
13.80500 608.000
13.82000 624.000
13.83500 574.000
13.85000 615.000
13.86500 593.000
13.88000 557.000
13.89500 572.000
13.91000 582.000
13.92500 624.000
13.94000 564.000
13.95500 597.000
13.97000 594.000
13.98500 578.000
14.00000 574.000
14.01500 559.000
14.03000 567.000
14.04500 575.000
14.06000 585.000
14.07500 573.000
14.09000 617.000
14.10500 567.000
14.12000 557.000
14.13500 585.000
14.15000 576.000
14.16500 581.000
14.18000 620.000
14.19500 568.000
14.21000 564.000
14.22500 562.000
14.24000 574.000
14.25500 586.000
14.27000 616.000
14.28500 590.000
14.30000 550.000
14.31500 556.000
14.33000 547.000
14.34500 556.000
14.36000 580.000
14.37500 570.000
14.39000 616.000
14.40500 593.000
14.42000 563.000
14.43500 568.000
14.45000 600.000
14.46500 579.000
14.48000 585.000
14.49500 610.000
14.51000 615.000
14.52500 589.000
14.54000 552.000
14.55500 570.000
14.57000 569.000
14.58500 560.000
14.60000 569.000
14.61500 570.000
14.63000 557.000
14.64500 548.000
14.66000 583.000
14.67500 586.000
14.69000 578.000
14.70500 577.000
14.72000 619.000
14.73500 567.000
14.75000 600.000
14.76500 579.000
14.78000 569.000
14.79500 556.000
14.81000 592.000
14.82500 637.000
14.84000 574.000
14.85500 566.000
14.87000 577.000
14.88500 562.000
14.90000 589.000
14.91500 565.000
14.93000 591.000
14.94500 613.000
14.96000 626.000
14.97500 616.000
14.99000 568.000
15.00500 583.000
15.02000 568.000
15.03500 571.000
15.05000 582.000
15.06500 562.000
15.08000 565.000
15.09500 560.000
15.11000 591.000
15.12500 604.000
15.14000 562.000
15.15500 566.000
15.17000 555.000
15.18500 575.000
15.20000 561.000
15.21500 570.000
15.23000 595.000
15.24500 603.000
15.26000 569.000
15.27500 600.000
15.29000 573.000
15.30500 543.000
15.32000 574.000
15.33500 553.000
15.35000 548.000
15.36500 533.000
15.38000 591.000
15.39500 598.000
15.41000 584.000
15.42500 599.000
15.44000 583.000
15.45500 537.000
15.47000 576.000
15.48500 583.000
15.50000 556.000
15.51500 556.000
15.53000 561.000
15.54500 558.000
15.56000 573.000
15.57500 556.000
15.59000 579.000
15.60500 612.000
15.62000 598.000
15.63500 579.000
15.65000 609.000
15.66500 594.000
15.68000 588.000
15.69500 634.000
15.71000 601.000
15.72500 630.000
15.74000 633.000
15.75500 589.000
15.77000 549.000
15.78500 597.000
15.80000 632.000
15.81500 619.000
15.83000 552.000
15.84500 590.000
15.86000 588.000
15.87500 604.000
15.89000 574.000
15.90500 565.000
15.92000 596.000
15.93500 553.000
15.95000 571.000
15.96500 560.000
15.98000 579.000
15.99500 599.000
16.01000 608.000
16.02500 588.000
16.04000 601.000
16.05500 557.000
16.07000 586.000
16.08500 612.000
16.10000 557.000
16.11500 560.000
16.13000 558.000
16.14500 591.000
16.16000 607.000
16.17500 589.000
16.19000 583.000
16.20500 561.000
16.22000 604.000
16.23500 566.000
16.25000 617.000
16.26500 594.000
16.28000 567.000
16.29500 597.000
16.31000 582.000
16.32500 582.000
16.34000 567.000
16.35500 571.000
16.37000 552.000
16.38500 596.000
16.40000 594.000
16.41500 573.000
16.43000 562.000
16.44500 571.000
16.46000 558.000
16.47500 567.000
16.49000 570.000
16.50500 570.000
16.52000 581.000
16.53500 557.000
16.55000 575.000
16.56500 567.000
16.58000 602.000
16.59500 568.000
16.61000 557.000
16.62500 582.000
16.64000 582.000
16.65500 576.000
16.67000 569.000
16.68500 573.000
16.70000 575.000
16.71500 565.000
16.73000 569.000
16.74500 573.000
16.76000 611.000
16.77500 566.000
16.79000 576.000
16.80500 590.000
16.82000 576.000
16.83500 584.000
16.85000 563.000
16.86500 553.000
16.88000 562.000
16.89500 557.000
16.91000 576.000
16.92500 560.000
16.94000 545.000
16.95500 572.000
16.97000 555.000
16.98500 547.000
17.00000 553.000
17.01500 590.000
17.03000 569.000
17.04500 536.000
17.06000 561.000
17.07500 554.000
17.09000 557.000
17.10500 592.000
17.12000 590.000
17.13500 559.000
17.15000 553.000
17.16500 564.000
17.18000 604.000
17.19500 580.000
17.21000 563.000
17.22500 557.000
17.24000 558.000
17.25500 556.000
17.27000 597.000
17.28500 592.000
17.30000 558.000
17.31500 578.000
17.33000 569.000
17.34500 540.000
17.36000 567.000
17.37500 551.000
17.39000 569.000
17.40500 592.000
17.42000 620.000
17.43500 639.000
17.45000 586.000
17.46500 596.000
17.48000 601.000
17.49500 599.000
17.51000 629.000
17.52500 587.000
17.54000 599.000
17.55500 611.000
17.57000 621.000
17.58500 591.000
17.60000 607.000
17.61500 619.000
17.63000 645.000
17.64500 609.000
17.66000 646.000
17.67500 618.000
17.69000 597.000
17.70500 587.000
17.72000 590.000
17.73500 573.000
17.75000 594.000
17.76500 615.000
17.78000 588.000
17.79500 605.000
17.81000 597.000
17.82500 607.000
17.84000 620.000
17.85500 613.000
17.87000 577.000
17.88500 607.000
17.90000 566.000
17.91500 580.000
17.93000 627.000
17.94500 611.000
17.96000 588.000
17.97500 542.000
17.99000 604.000
18.00500 574.000
18.02000 559.000
18.03500 577.000
18.05000 605.000
18.06500 572.000
18.08000 606.000
18.09500 584.000
18.11000 595.000
18.12500 599.000
18.14000 574.000
18.15500 597.000
18.17000 585.000
18.18500 588.000
18.20000 551.000
18.21500 576.000
18.23000 590.000
18.24500 605.000
18.26000 573.000
18.27500 569.000
18.29000 600.000
18.30500 578.000
18.32000 590.000
18.33500 568.000
18.35000 585.000
18.36500 594.000
18.38000 574.000
18.39500 558.000
18.41000 584.000
18.42500 573.000
18.44000 567.000
18.45500 567.000
18.47000 575.000
18.48500 578.000
18.50000 618.000
18.51500 595.000
18.53000 569.000
18.54500 566.000
18.56000 624.000
18.57500 603.000
18.59000 613.000
18.60500 601.000
18.62000 574.000
18.63500 593.000
18.65000 580.000
18.66500 550.000
18.68000 541.000
18.69500 579.000
18.71000 588.000
18.72500 593.000
18.74000 601.000
18.75500 607.000
18.77000 590.000
18.78500 632.000
18.80000 573.000
18.81500 596.000
18.83000 542.000
18.84500 566.000
18.86000 576.000
18.87500 561.000
18.89000 562.000
18.90500 582.000
18.92000 584.000
18.93500 569.000
18.95000 562.000
18.96500 602.000
18.98000 587.000
18.99500 592.000
19.01000 564.000
19.02500 577.000
19.04000 582.000
19.05500 596.000
19.07000 606.000
19.08500 579.000
19.10000 587.000
19.11500 584.000
19.13000 620.000
19.14500 611.000
19.16000 637.000
19.17500 595.000
19.19000 609.000
19.20500 619.000
19.22000 634.000
19.23500 575.000
19.25000 562.000
19.26500 584.000
19.28000 588.000
19.29500 552.000
19.31000 556.000
19.32500 581.000
19.34000 614.000
19.35500 616.000
19.37000 616.000
19.38500 585.000
19.40000 585.000
19.41500 607.000
19.43000 577.000
19.44500 551.000
19.46000 590.000
19.47500 615.000
19.49000 596.000
19.50500 595.000
19.52000 612.000
19.53500 628.000
19.55000 575.000
19.56500 615.000
19.58000 562.000
19.59500 590.000
19.61000 592.000
19.62500 577.000
19.64000 551.000
19.65500 572.000
19.67000 601.000
19.68500 594.000
19.70000 610.000
19.71500 613.000
19.73000 594.000
19.74500 581.000
19.76000 614.000
19.77500 602.000
19.79000 598.000
19.80500 603.000
19.82000 599.000
19.83500 598.000
19.85000 594.000
19.86500 593.000
19.88000 629.000
19.89500 618.000
19.91000 604.000
19.92500 582.000
19.94000 570.000
19.95500 613.000
19.97000 589.000
19.98500 604.000
20.00000 606.000
20.01500 602.000
20.03000 592.000
20.04500 574.000
20.06000 590.000
20.07500 590.000
20.09000 591.000
20.10500 607.000
20.12000 598.000
20.13500 616.000
20.15000 600.000
20.16500 635.000
20.18000 634.000
20.19500 596.000
20.21000 590.000
20.22500 608.000
20.24000 601.000
20.25500 624.000
20.27000 592.000
20.28500 615.000
20.30000 578.000
20.31500 615.000
20.33000 597.000
20.34500 597.000
20.36000 610.000
20.37500 562.000
20.39000 571.000
20.40500 614.000
20.42000 628.000
20.43500 582.000
20.45000 604.000
20.46500 618.000
20.48000 629.000
20.49500 622.000
20.51000 592.000
20.52500 626.000
20.54000 636.000
20.55500 640.000
20.57000 615.000
20.58500 568.000
20.60000 605.000
20.61500 615.000
20.63000 631.000
20.64500 638.000
20.66000 694.000
20.67500 660.000
20.69000 632.000
20.70500 663.000
20.72000 685.000
20.73500 676.000
20.75000 701.000
20.76500 674.000
20.78000 702.000
20.79500 732.000
20.81000 776.000
20.82500 762.000
20.84000 795.000
20.85500 795.000
20.87000 863.000
20.88500 866.000
20.90000 911.000
20.91500 923.000
20.93000 981.000
20.94500 992.000
20.96000 1033.000
20.97500 1092.000
20.99000 1128.000
21.00500 1127.000
21.02000 1124.000
21.03500 1085.000
21.05000 1038.000
21.06500 1035.000
21.08000 1010.000
21.09500 1017.000
21.11000 990.000
21.12500 931.000
21.14000 824.000
21.15500 822.000
21.17000 884.000
21.18500 839.000
21.20000 751.000
21.21500 726.000
21.23000 748.000
21.24500 706.000
21.26000 701.000
21.27500 673.000
21.29000 677.000
21.30500 687.000
21.32000 705.000
21.33500 684.000
21.35000 688.000
21.36500 659.000
21.38000 666.000
21.39500 660.000
21.41000 656.000
21.42500 652.000
21.44000 701.000
21.45500 651.000
21.47000 645.000
21.48500 657.000
21.50000 627.000
21.51500 618.000
21.53000 583.000
21.54500 642.000
21.56000 650.000
21.57500 633.000
21.59000 651.000
21.60500 632.000
21.62000 627.000
21.63500 661.000
21.65000 689.000
21.66500 674.000
21.68000 648.000
21.69500 648.000
21.71000 647.000
21.72500 641.000
21.74000 625.000
21.75500 650.000
21.77000 668.000
21.78500 613.000
21.80000 649.000
21.81500 639.000
21.83000 605.000
21.84500 622.000
21.86000 597.000
21.87500 611.000
21.89000 669.000
21.90500 623.000
21.92000 633.000
21.93500 645.000
21.95000 622.000
21.96500 661.000
21.98000 610.000
21.99500 652.000
22.01000 621.000
22.02500 614.000
22.04000 641.000
22.05500 616.000
22.07000 616.000
22.08500 614.000
22.10000 630.000
22.11500 651.000
22.13000 635.000
22.14500 598.000
22.16000 608.000
22.17500 621.000
22.19000 625.000
22.20500 596.000
22.22000 600.000
22.23500 601.000
22.25000 588.000
22.26500 568.000
22.28000 588.000
22.29500 608.000
22.31000 586.000
22.32500 577.000
22.34000 633.000
22.35500 601.000
22.37000 600.000
22.38500 614.000
22.40000 598.000
22.41500 594.000
22.43000 631.000
22.44500 650.000
22.46000 620.000
22.47500 608.000
22.49000 617.000
22.50500 578.000
22.52000 580.000
22.53500 581.000
22.55000 591.000
22.56500 586.000
22.58000 586.000
22.59500 597.000
22.61000 608.000
22.62500 600.000
22.64000 572.000
22.65500 604.000
22.67000 624.000
22.68500 574.000
22.70000 582.000
22.71500 607.000
22.73000 588.000
22.74500 568.000
22.76000 590.000
22.77500 585.000
22.79000 585.000
22.80500 579.000
22.82000 546.000
22.83500 589.000
22.85000 566.000
22.86500 581.000
22.88000 592.000
22.89500 604.000
22.91000 571.000
22.92500 594.000
22.94000 598.000
22.95500 597.000
22.97000 557.000
22.98500 536.000
23.00000 543.000
23.01500 581.000
23.03000 555.000
23.04500 608.000
23.06000 594.000
23.07500 609.000
23.09000 609.000
23.10500 553.000
23.12000 571.000
23.13500 563.000
23.15000 601.000
23.16500 612.000
23.18000 588.000
23.19500 578.000
23.21000 572.000
23.22500 582.000
23.24000 623.000
23.25500 587.000
23.27000 589.000
23.28500 585.000
23.30000 590.000
23.31500 598.000
23.33000 578.000
23.34500 574.000
23.36000 567.000
23.37500 547.000
23.39000 587.000
23.40500 584.000
23.42000 610.000
23.43500 601.000
23.45000 595.000
23.46500 631.000
23.48000 595.000
23.49500 624.000
23.51000 611.000
23.52500 606.000
23.54000 590.000
23.55500 622.000
23.57000 589.000
23.58500 574.000
23.60000 579.000
23.61500 610.000
23.63000 611.000
23.64500 584.000
23.66000 549.000
23.67500 575.000
23.69000 556.000
23.70500 595.000
23.72000 591.000
23.73500 589.000
23.75000 597.000
23.76500 609.000
23.78000 638.000
23.79500 613.000
23.81000 595.000
23.82500 634.000
23.84000 610.000
23.85500 640.000
23.87000 604.000
23.88500 628.000
23.90000 620.000
23.91500 618.000
23.93000 624.000
23.94500 612.000
23.96000 612.000
23.97500 647.000
23.99000 625.000
24.00500 622.000
24.02000 593.000
24.03500 592.000
24.05000 587.000
24.06500 598.000
24.08000 625.000
24.09500 676.000
24.11000 657.000
24.12500 639.000
24.14000 623.000
24.15500 690.000
24.17000 732.000
24.18500 724.000
24.20000 719.000
24.21500 782.000
24.23000 834.000
24.24500 820.000
24.26000 825.000
24.27500 805.000
24.29000 808.000
24.30500 849.000
24.32000 811.000
24.33500 797.000
24.35000 805.000
24.36500 809.000
24.38000 818.000
24.39500 797.000
24.41000 820.000
24.42500 773.000
24.44000 724.000
24.45500 708.000
24.47000 692.000
24.48500 697.000
24.50000 697.000
24.51500 692.000
24.53000 712.000
24.54500 674.000
24.56000 674.000
24.57500 692.000
24.59000 720.000
24.60500 680.000
24.62000 686.000
24.63500 661.000
24.65000 673.000
24.66500 708.000
24.68000 715.000
24.69500 690.000
24.71000 706.000
24.72500 726.000
24.74000 701.000
24.75500 710.000
24.77000 701.000
24.78500 746.000
24.80000 708.000
24.81500 696.000
24.83000 696.000
24.84500 714.000
24.86000 707.000
24.87500 692.000
24.89000 697.000
24.90500 710.000
24.92000 656.000
24.93500 667.000
24.95000 681.000
24.96500 685.000
24.98000 648.000
24.99500 660.000
25.01000 649.000
25.02500 648.000
25.04000 668.000
25.05500 664.000
25.07000 656.000
25.08500 633.000
25.10000 647.000
25.11500 653.000
25.13000 613.000
25.14500 616.000
25.16000 628.000
25.17500 628.000
25.19000 612.000
25.20500 606.000
25.22000 618.000
25.23500 638.000
25.25000 640.000
25.26500 560.000
25.28000 596.000
25.29500 581.000
25.31000 621.000
25.32500 637.000
25.34000 644.000
25.35500 616.000
25.37000 603.000
25.38500 604.000
25.40000 627.000
25.41500 633.000
25.43000 632.000
25.44500 633.000
25.46000 636.000
25.47500 634.000
25.49000 664.000
25.50500 672.000
25.52000 645.000
25.53500 611.000
25.55000 636.000
25.56500 646.000
25.58000 666.000
25.59500 669.000
25.61000 693.000
25.62500 678.000
25.64000 680.000
25.65500 697.000
25.67000 740.000
25.68500 725.000
25.70000 681.000
25.71500 698.000
25.73000 672.000
25.74500 685.000
25.76000 690.000
25.77500 692.000
25.79000 714.000
25.80500 710.000
25.82000 696.000
25.83500 724.000
25.85000 775.000
25.86500 734.000
25.88000 736.000
25.89500 737.000
25.91000 783.000
25.92500 754.000
25.94000 752.000
25.95500 758.000
25.97000 817.000
25.98500 806.000
26.00000 855.000
26.01500 953.000
26.03000 951.000
26.04500 973.000
26.06000 977.000
26.07500 979.000
26.09000 1055.000
26.10500 1073.000
26.12000 1142.000
26.13500 1219.000
26.15000 1304.000
26.16500 1398.000
26.18000 1452.000
26.19500 1432.000
26.21000 1494.000
26.22500 1618.000
26.24000 1652.000
26.25500 1618.000
26.27000 1699.000
26.28500 1695.000
26.30000 1649.000
26.31500 1712.000
26.33000 1633.000
26.34500 1600.000
26.36000 1592.000
26.37500 1535.000
26.39000 1486.000
26.40500 1390.000
26.42000 1328.000
26.43500 1336.000
26.45000 1263.000
26.46500 1217.000
26.48000 1177.000
26.49500 1136.000
26.51000 1142.000
26.52500 1102.000
26.54000 1056.000
26.55500 993.000
26.57000 1028.000
26.58500 963.000
26.60000 964.000
26.61500 923.000
26.63000 885.000
26.64500 895.000
26.66000 922.000
26.67500 924.000
26.69000 914.000
26.70500 879.000
26.72000 881.000
26.73500 871.000
26.75000 825.000
26.76500 869.000
26.78000 853.000
26.79500 852.000
26.81000 861.000
26.82500 829.000
26.84000 789.000
26.85500 839.000
26.87000 843.000
26.88500 852.000
26.90000 844.000
26.91500 849.000
26.93000 855.000
26.94500 928.000
26.96000 886.000
26.97500 909.000
26.99000 924.000
27.00500 945.000
27.02000 907.000
27.03500 948.000
27.05000 943.000
27.06500 906.000
27.08000 945.000
27.09500 984.000
27.11000 999.000
27.12500 1034.000
27.14000 1070.000
27.15500 1066.000
27.17000 1063.000
27.18500 1098.000
27.20000 1164.000
27.21500 1169.000
27.23000 1194.000
27.24500 1205.000
27.26000 1181.000
27.27500 1250.000
27.29000 1310.000
27.30500 1373.000
27.32000 1409.000
27.33500 1496.000
27.35000 1571.000
27.36500 1559.000
27.38000 1566.000
27.39500 1622.000
27.41000 1657.000
27.42500 1765.000
27.44000 1867.000
27.45500 1926.000
27.47000 1997.000
27.48500 1983.000
27.50000 2059.000
27.51500 2188.000
27.53000 2290.000
27.54500 2330.000
27.56000 2443.000
27.57500 2434.000
27.59000 2555.000
27.60500 2653.000
27.62000 2723.000
27.63500 2883.000
27.65000 2943.000
27.66500 2914.000
27.68000 3088.000
27.69500 3142.000
27.71000 3132.000
27.72500 3160.000
27.74000 3266.000
27.75500 3317.000
27.77000 3326.000
27.78500 3303.000
27.80000 3342.000
27.81500 3347.000
27.83000 3255.000
27.84500 3304.000
27.86000 3234.000
27.87500 3173.000
27.89000 3104.000
27.90500 2913.000
27.92000 2855.000
27.93500 2749.000
27.95000 2657.000
27.96500 2536.000
27.98000 2484.000
27.99500 2370.000
28.01000 2333.000
28.02500 2196.000
28.04000 2063.000
28.05500 1919.000
28.07000 1822.000
28.08500 1759.000
28.10000 1670.000
28.11500 1516.000
28.13000 1448.000
28.14500 1435.000
28.16000 1416.000
28.17500 1336.000
28.19000 1330.000
28.20500 1249.000
28.22000 1228.000
28.23500 1204.000
28.25000 1117.000
28.26500 1081.000
28.28000 1074.000
28.29500 1013.000
28.31000 938.000
28.32500 920.000
28.34000 904.000
28.35500 906.000
28.37000 851.000
28.38500 915.000
28.40000 905.000
28.41500 875.000
28.43000 882.000
28.44500 808.000
28.46000 844.000
28.47500 900.000
28.49000 894.000
28.50500 881.000
28.52000 886.000
28.53500 872.000
28.55000 853.000
28.56500 856.000
28.58000 894.000
28.59500 897.000
28.61000 887.000
28.62500 853.000
28.64000 876.000
28.65500 965.000
28.67000 917.000
28.68500 928.000
28.70000 964.000
28.71500 969.000
28.73000 1014.000
28.74500 986.000
28.76000 1035.000
28.77500 1042.000
28.79000 1051.000
28.80500 1118.000
28.82000 1139.000
28.83500 1184.000
28.85000 1212.000
28.86500 1221.000
28.88000 1249.000
28.89500 1256.000
28.91000 1305.000
28.92500 1285.000
28.94000 1346.000
28.95500 1302.000
28.97000 1371.000
28.98500 1362.000
29.00000 1361.000
29.01500 1350.000
29.03000 1366.000
29.04500 1384.000
29.06000 1375.000
29.07500 1354.000
29.09000 1349.000
29.10500 1334.000
29.12000 1279.000
29.13500 1284.000
29.15000 1228.000
29.16500 1194.000
29.18000 1204.000
29.19500 1143.000
29.21000 1127.000
29.22500 1098.000
29.24000 1038.000
29.25500 1002.000
29.27000 978.000
29.28500 926.000
29.30000 926.000
29.31500 895.000
29.33000 819.000
29.34500 825.000
29.36000 833.000
29.37500 800.000
29.39000 799.000
29.40500 786.000
29.42000 773.000
29.43500 790.000
29.45000 733.000
29.46500 686.000
29.48000 654.000
29.49500 691.000
29.51000 746.000
29.52500 691.000
29.54000 664.000
29.55500 664.000
29.57000 641.000
29.58500 701.000
29.60000 681.000
29.61500 629.000
29.63000 614.000
29.64500 597.000
29.66000 576.000
29.67500 595.000
29.69000 566.000
29.70500 588.000
29.72000 589.000
29.73500 572.000
29.75000 563.000
29.76500 591.000
29.78000 529.000
29.79500 578.000
29.81000 586.000
29.82500 602.000
29.84000 532.000
29.85500 537.000
29.87000 514.000
29.88500 540.000
29.90000 548.000
29.91500 537.000
29.93000 512.000
29.94500 546.000
29.96000 522.000
29.97500 502.000
29.99000 515.000
30.00500 501.000
30.02000 529.000
30.03500 537.000
30.05000 523.000
30.06500 486.000
30.08000 546.000
30.09500 555.000
30.11000 523.000
30.12500 529.000
30.14000 512.000
30.15500 565.000
30.17000 535.000
30.18500 521.000
30.20000 511.000
30.21500 507.000
30.23000 513.000
30.24500 510.000
30.26000 532.000
30.27500 512.000
30.29000 530.000
30.30500 510.000
30.32000 505.000
30.33500 526.000
30.35000 514.000
30.36500 489.000
30.38000 512.000
30.39500 521.000
30.41000 542.000
30.42500 533.000
30.44000 527.000
30.45500 514.000
30.47000 516.000
30.48500 524.000
30.50000 486.000
30.51500 473.000
30.53000 490.000
30.54500 522.000
30.56000 514.000
30.57500 494.000
30.59000 510.000
30.60500 478.000
30.62000 505.000
30.63500 492.000
30.65000 477.000
30.66500 513.000
30.68000 494.000
30.69500 483.000
30.71000 497.000
30.72500 476.000
30.74000 489.000
30.75500 474.000
30.77000 504.000
30.78500 511.000
30.80000 490.000
30.81500 491.000
30.83000 469.000
30.84500 456.000
30.86000 520.000
30.87500 503.000
30.89000 488.000
30.90500 456.000
30.92000 469.000
30.93500 477.000
30.95000 497.000
30.96500 484.000
30.98000 465.000
30.99500 471.000
31.01000 491.000
31.02500 489.000
31.04000 471.000
31.05500 460.000
31.07000 460.000
31.08500 442.000
31.10000 473.000
31.11500 485.000
31.13000 491.000
31.14500 460.000
31.16000 456.000
31.17500 459.000
31.19000 485.000
31.20500 455.000
31.22000 457.000
31.23500 426.000
31.25000 465.000
31.26500 447.000
31.28000 464.000
31.29500 458.000
31.31000 440.000
31.32500 429.000
31.34000 455.000
31.35500 457.000
31.37000 446.000
31.38500 461.000
31.40000 481.000
31.41500 494.000
31.43000 489.000
31.44500 442.000
31.46000 454.000
31.47500 446.000
31.49000 447.000
31.50500 444.000
31.52000 445.000
31.53500 431.000
31.55000 436.000
31.56500 438.000
31.58000 438.000
31.59500 455.000
31.61000 446.000
31.62500 442.000
31.64000 431.000
31.65500 439.000
31.67000 416.000
31.68500 433.000
31.70000 441.000
31.71500 424.000
31.73000 441.000
31.74500 425.000
31.76000 417.000
31.77500 458.000
31.79000 454.000
31.80500 446.000
31.82000 470.000
31.83500 437.000
31.85000 422.000
31.86500 426.000
31.88000 443.000
31.89500 437.000
31.91000 449.000
31.92500 426.000
31.94000 457.000
31.95500 471.000
31.97000 440.000
31.98500 472.000
32.00000 475.000
32.01500 475.000
32.03000 478.000
32.04500 489.000
32.06000 505.000
32.07500 501.000
32.09000 485.000
32.10500 489.000
32.12000 564.000
32.13500 539.000
32.15000 527.000
32.16500 577.000
32.18000 583.000
32.19500 568.000
32.21000 628.000
32.22500 622.000
32.24000 676.000
32.25500 649.000
32.27000 696.000
32.28500 705.000
32.30000 755.000
32.31500 763.000
32.33000 800.000
32.34500 818.000
32.36000 812.000
32.37500 792.000
32.39000 764.000
32.40500 763.000
32.42000 746.000
32.43500 768.000
32.45000 746.000
32.46500 666.000
32.48000 611.000
32.49500 652.000
32.51000 618.000
32.52500 597.000
32.54000 542.000
32.55500 557.000
32.57000 533.000
32.58500 504.000
32.60000 452.000
32.61500 444.000
32.63000 499.000
32.64500 474.000
32.66000 480.000
32.67500 446.000
32.69000 427.000
32.70500 433.000
32.72000 434.000
32.73500 437.000
32.75000 447.000
32.76500 422.000
32.78000 433.000
32.79500 395.000
32.81000 400.000
32.82500 420.000
32.84000 386.000
32.85500 397.000
32.87000 399.000
32.88500 418.000
32.90000 438.000
32.91500 401.000
32.93000 417.000
32.94500 389.000
32.96000 363.000
32.97500 376.000
32.99000 398.000
33.00500 385.000
33.02000 379.000
33.03500 408.000
33.05000 415.000
33.06500 371.000
33.08000 419.000
33.09500 401.000
33.11000 403.000
33.12500 420.000
33.14000 410.000
33.15500 410.000
33.17000 382.000
33.18500 370.000
33.20000 376.000
33.21500 391.000
33.23000 367.000
33.24500 383.000
33.26000 379.000
33.27500 373.000
33.29000 388.000
33.30500 400.000
33.32000 395.000
33.33500 407.000
33.35000 371.000
33.36500 384.000
33.38000 355.000
33.39500 397.000
33.41000 376.000
33.42500 367.000
33.44000 383.000
33.45500 394.000
33.47000 373.000
33.48500 386.000
33.50000 359.000
33.51500 409.000
33.53000 372.000
33.54500 373.000
33.56000 417.000
33.57500 390.000
33.59000 406.000
33.60500 386.000
33.62000 379.000
33.63500 413.000
33.65000 386.000
33.66500 410.000
33.68000 387.000
33.69500 387.000
33.71000 396.000
33.72500 371.000
33.74000 387.000
33.75500 393.000
33.77000 382.000
33.78500 360.000
33.80000 377.000
33.81500 397.000
33.83000 396.000
33.84500 364.000
33.86000 371.000
33.87500 377.000
33.89000 414.000
33.90500 390.000
33.92000 353.000
33.93500 356.000
33.95000 379.000
33.96500 362.000
33.98000 412.000
33.99500 378.000
34.01000 371.000
34.02500 374.000
34.04000 398.000
34.05500 387.000
34.07000 384.000
34.08500 402.000
34.10000 383.000
34.11500 327.000
34.13000 340.000
34.14500 365.000
34.16000 377.000
34.17500 391.000
34.19000 390.000
34.20500 368.000
34.22000 360.000
34.23500 346.000
34.25000 332.000
34.26500 345.000
34.28000 370.000
34.29500 399.000
34.31000 397.000
34.32500 357.000
34.34000 372.000
34.35500 345.000
34.37000 354.000
34.38500 347.000
34.40000 359.000
34.41500 355.000
34.43000 356.000
34.44500 343.000
34.46000 362.000
34.47500 357.000
34.49000 346.000
34.50500 339.000
34.52000 357.000
34.53500 383.000
34.55000 353.000
34.56500 341.000
34.58000 339.000
34.59500 361.000
34.61000 359.000
34.62500 375.000
34.64000 344.000
34.65500 346.000
34.67000 348.000
34.68500 341.000
34.70000 372.000
34.71500 342.000
34.73000 354.000
34.74500 346.000
34.76000 382.000
34.77500 355.000
34.79000 375.000
34.80500 398.000
34.82000 351.000
34.83500 370.000
34.85000 361.000
34.86500 337.000
34.88000 328.000
34.89500 358.000
34.91000 359.000
34.92500 342.000
34.94000 348.000
34.95500 360.000
34.97000 368.000
34.98500 366.000
35.00000 364.000
35.01500 365.000
35.03000 346.000
35.04500 360.000
35.06000 336.000
35.07500 339.000
35.09000 345.000
35.10500 373.000
35.12000 356.000
35.13500 350.000
35.15000 341.000
35.16500 367.000
35.18000 365.000
35.19500 368.000
35.21000 359.000
35.22500 355.000
35.24000 323.000
35.25500 319.000
35.27000 322.000
35.28500 337.000
35.30000 323.000
35.31500 323.000
35.33000 324.000
35.34500 338.000
35.36000 345.000
35.37500 347.000
35.39000 332.000
35.40500 348.000
35.42000 335.000
35.43500 326.000
35.45000 307.000
35.46500 327.000
35.48000 317.000
35.49500 321.000
35.51000 335.000
35.52500 336.000
35.54000 334.000
35.55500 317.000
35.57000 348.000
35.58500 322.000
35.60000 337.000
35.61500 363.000
35.63000 344.000
35.64500 333.000
35.66000 319.000
35.67500 346.000
35.69000 336.000
35.70500 333.000
35.72000 326.000
35.73500 336.000
35.75000 372.000
35.76500 351.000
35.78000 333.000
35.79500 359.000
35.81000 369.000
35.82500 382.000
35.84000 331.000
35.85500 352.000
35.87000 346.000
35.88500 358.000
35.90000 335.000
35.91500 355.000
35.93000 349.000
35.94500 352.000
35.96000 332.000
35.97500 329.000
35.99000 340.000
36.00500 337.000
36.02000 377.000
36.03500 376.000
36.05000 359.000
36.06500 344.000
36.08000 344.000
36.09500 355.000
36.11000 359.000
36.12500 339.000
36.14000 345.000
36.15500 340.000
36.17000 342.000
36.18500 331.000
36.20000 334.000
36.21500 330.000
36.23000 339.000
36.24500 340.000
36.26000 342.000
36.27500 341.000
36.29000 322.000
36.30500 331.000
36.32000 357.000
36.33500 329.000
36.35000 321.000
36.36500 314.000
36.38000 316.000
36.39500 326.000
36.41000 321.000
36.42500 328.000
36.44000 339.000
36.45500 370.000
36.47000 351.000
36.48500 328.000
36.50000 296.000
36.51500 307.000
36.53000 330.000
36.54500 345.000
36.56000 307.000
36.57500 321.000
36.59000 317.000
36.60500 319.000
36.62000 335.000
36.63500 334.000
36.65000 325.000
36.66500 316.000
36.68000 343.000
36.69500 312.000
36.71000 296.000
36.72500 315.000
36.74000 302.000
36.75500 300.000
36.77000 283.000
36.78500 329.000
36.80000 314.000
36.81500 341.000
36.83000 340.000
36.84500 311.000
36.86000 304.000
36.87500 327.000
36.89000 329.000
36.90500 310.000
36.92000 317.000
36.93500 306.000
36.95000 307.000
36.96500 304.000
36.98000 312.000
36.99500 323.000
37.01000 318.000
37.02500 298.000
37.04000 320.000
37.05500 320.000
37.07000 295.000
37.08500 319.000
37.10000 309.000
37.11500 287.000
37.13000 290.000
37.14500 285.000
37.16000 304.000
37.17500 269.000
37.19000 286.000
37.20500 287.000
37.22000 318.000
37.23500 302.000
37.25000 297.000
37.26500 320.000
37.28000 293.000
37.29500 282.000
37.31000 285.000
37.32500 307.000
37.34000 306.000
37.35500 302.000
37.37000 301.000
37.38500 292.000
37.40000 313.000
37.41500 296.000
37.43000 291.000
37.44500 294.000
37.46000 273.000
37.47500 271.000
37.49000 286.000
37.50500 282.000
37.52000 293.000
37.53500 294.000
37.55000 273.000
37.56500 283.000
37.58000 284.000
37.59500 274.000
37.61000 265.000
37.62500 275.000
37.64000 283.000
37.65500 294.000
37.67000 273.000
37.68500 262.000
37.70000 308.000
37.71500 290.000
37.73000 258.000
37.74500 258.000
37.76000 281.000
37.77500 275.000
37.79000 278.000
37.80500 283.000
37.82000 270.000
37.83500 256.000
37.85000 268.000
37.86500 290.000
37.88000 271.000
37.89500 292.000
37.91000 269.000
37.92500 284.000
37.94000 266.000
37.95500 286.000
37.97000 282.000
37.98500 253.000
38.00000 263.000
38.01500 278.000
38.03000 272.000
38.04500 275.000
38.06000 248.000
38.07500 264.000
38.09000 249.000
38.10500 271.000
38.12000 276.000
38.13500 268.000
38.15000 277.000
38.16500 279.000
38.18000 280.000
38.19500 274.000
38.21000 269.000
38.22500 285.000
38.24000 275.000
38.25500 243.000
38.27000 275.000
38.28500 279.000
38.30000 259.000
38.31500 257.000
38.33000 274.000
38.34500 278.000
38.36000 260.000
38.37500 281.000
38.39000 281.000
38.40500 274.000
38.42000 259.000
38.43500 255.000
38.45000 260.000
38.46500 261.000
38.48000 267.000
38.49500 250.000
38.51000 254.000
38.52500 277.000
38.54000 272.000
38.55500 293.000
38.57000 275.000
38.58500 263.000
38.60000 255.000
38.61500 269.000
38.63000 262.000
38.64500 280.000
38.66000 283.000
38.67500 249.000
38.69000 248.000
38.70500 265.000
38.72000 266.000
38.73500 285.000
38.75000 263.000
38.76500 265.000
38.78000 274.000
38.79500 284.000
38.81000 282.000
38.82500 288.000
38.84000 304.000
38.85500 292.000
38.87000 274.000
38.88500 277.000
38.90000 281.000
38.91500 248.000
38.93000 257.000
38.94500 269.000
38.96000 276.000
38.97500 286.000
38.99000 300.000
39.00500 266.000
39.02000 281.000
39.03500 267.000
39.05000 264.000
39.06500 271.000
39.08000 246.000
39.09500 267.000
39.11000 282.000
39.12500 265.000
39.14000 293.000
39.15500 275.000
39.17000 287.000
39.18500 252.000
39.20000 252.000
39.21500 273.000
39.23000 275.000
39.24500 266.000
39.26000 243.000
39.27500 257.000
39.29000 261.000
39.30500 280.000
39.32000 257.000
39.33500 264.000
39.35000 285.000
39.36500 278.000
39.38000 263.000
39.39500 276.000
39.41000 250.000
39.42500 277.000
39.44000 269.000
39.45500 264.000
39.47000 266.000
39.48500 279.000
39.50000 264.000
39.51500 283.000
39.53000 262.000
39.54500 248.000
39.56000 272.000
39.57500 269.000
39.59000 277.000
39.60500 261.000
39.62000 275.000
39.63500 264.000
39.65000 255.000
39.66500 256.000
39.68000 271.000
39.69500 252.000
39.71000 269.000
39.72500 274.000
39.74000 265.000
39.75500 264.000
39.77000 264.000
39.78500 266.000
39.80000 277.000
39.81500 265.000
39.83000 230.000
39.84500 247.000
39.86000 259.000
39.87500 255.000
39.89000 313.000
39.90500 280.000
39.92000 268.000
39.93500 264.000
39.95000 270.000
39.96500 268.000
39.98000 250.000
39.99500 249.000
40.01000 238.000
40.02500 271.000
40.04000 285.000
40.05500 266.000
40.07000 260.000
40.08500 277.000
40.10000 270.000
40.11500 270.000
40.13000 268.000
40.14500 263.000
40.16000 262.000
40.17500 276.000
40.19000 276.000
40.20500 275.000
40.22000 280.000
40.23500 293.000
40.25000 278.000
40.26500 261.000
40.28000 262.000
40.29500 275.000
40.31000 274.000
40.32500 296.000
40.34000 256.000
40.35500 268.000
40.37000 285.000
40.38500 272.000
40.40000 291.000
40.41500 271.000
40.43000 286.000
40.44500 283.000
40.46000 306.000
40.47500 299.000
40.49000 280.000
40.50500 279.000
40.52000 300.000
40.53500 277.000
40.55000 283.000
40.56500 276.000
40.58000 269.000
40.59500 271.000
40.61000 289.000
40.62500 259.000
40.64000 255.000
40.65500 274.000
40.67000 304.000
40.68500 261.000
40.70000 280.000
40.71500 301.000
40.73000 269.000
40.74500 273.000
40.76000 269.000
40.77500 275.000
40.79000 284.000
40.80500 271.000
40.82000 258.000
40.83500 285.000
40.85000 262.000
40.86500 276.000
40.88000 267.000
40.89500 266.000
40.91000 272.000
40.92500 268.000
40.94000 259.000
40.95500 270.000
40.97000 256.000
40.98500 253.000
41.00000 251.000
41.01500 264.000
41.03000 282.000
41.04500 281.000
41.06000 290.000
41.07500 264.000
41.09000 296.000
41.10500 262.000
41.12000 280.000
41.13500 287.000
41.15000 282.000
41.16500 282.000
41.18000 266.000
41.19500 274.000
41.21000 267.000
41.22500 279.000
41.24000 260.000
41.25500 274.000
41.27000 304.000
41.28500 277.000
41.30000 291.000
41.31500 262.000
41.33000 254.000
41.34500 263.000
41.36000 263.000
41.37500 254.000
41.39000 276.000
41.40500 271.000
41.42000 259.000
41.43500 262.000
41.45000 254.000
41.46500 270.000
41.48000 269.000
41.49500 287.000
41.51000 281.000
41.52500 283.000
41.54000 288.000
41.55500 275.000
41.57000 261.000
41.58500 271.000
41.60000 262.000
41.61500 281.000
41.63000 281.000
41.64500 276.000
41.66000 246.000
41.67500 252.000
41.69000 264.000
41.70500 266.000
41.72000 269.000
41.73500 260.000
41.75000 260.000
41.76500 297.000
41.78000 295.000
41.79500 292.000
41.81000 271.000
41.82500 289.000
41.84000 304.000
41.85500 298.000
41.87000 285.000
41.88500 261.000
41.90000 288.000
41.91500 255.000
41.93000 279.000
41.94500 282.000
41.96000 278.000
41.97500 285.000
41.99000 261.000
42.00500 278.000
42.02000 261.000
42.03500 284.000
42.05000 268.000
42.06500 250.000
42.08000 280.000
42.09500 281.000
42.11000 286.000
42.12500 273.000
42.14000 264.000
42.15500 272.000
42.17000 270.000
42.18500 273.000
42.20000 272.000
42.21500 288.000
42.23000 266.000
42.24500 296.000
42.26000 264.000
42.27500 264.000
42.29000 288.000
42.30500 288.000
42.32000 267.000
42.33500 310.000
42.35000 285.000
42.36500 282.000
42.38000 266.000
42.39500 263.000
42.41000 262.000
42.42500 278.000
42.44000 267.000
42.45500 286.000
42.47000 287.000
42.48500 256.000
42.50000 269.000
42.51500 293.000
42.53000 295.000
42.54500 303.000
42.56000 265.000
42.57500 276.000
42.59000 306.000
42.60500 298.000
42.62000 292.000
42.63500 322.000
42.65000 323.000
42.66500 309.000
42.68000 328.000
42.69500 322.000
42.71000 309.000
42.72500 341.000
42.74000 373.000
42.75500 358.000
42.77000 365.000
42.78500 340.000
42.80000 358.000
42.81500 371.000
42.83000 325.000
42.84500 316.000
42.86000 351.000
42.87500 350.000
42.89000 338.000
42.90500 332.000
42.92000 315.000
42.93500 313.000
42.95000 322.000
42.96500 317.000
42.98000 304.000
42.99500 312.000
43.01000 314.000
43.02500 322.000
43.04000 273.000
43.05500 280.000
43.07000 313.000
43.08500 296.000
43.10000 295.000
43.11500 289.000
43.13000 276.000
43.14500 310.000
43.16000 293.000
43.17500 289.000
43.19000 295.000
43.20500 267.000
43.22000 291.000
43.23500 291.000
43.25000 275.000
43.26500 283.000
43.28000 265.000
43.29500 299.000
43.31000 294.000
43.32500 287.000
43.34000 292.000
43.35500 298.000
43.37000 249.000
43.38500 285.000
43.40000 294.000
43.41500 282.000
43.43000 281.000
43.44500 253.000
43.46000 257.000
43.47500 294.000
43.49000 286.000
43.50500 260.000
43.52000 270.000
43.53500 297.000
43.55000 289.000
43.56500 276.000
43.58000 281.000
43.59500 274.000
43.61000 285.000
43.62500 251.000
43.64000 269.000
43.65500 294.000
43.67000 290.000
43.68500 266.000
43.70000 278.000
43.71500 296.000
43.73000 271.000
43.74500 275.000
43.76000 283.000
43.77500 276.000
43.79000 288.000
43.80500 294.000
43.82000 289.000
43.83500 279.000
43.85000 312.000
43.86500 299.000
43.88000 272.000
43.89500 285.000
43.91000 256.000
43.92500 277.000
43.94000 271.000
43.95500 262.000
43.97000 272.000
43.98500 295.000
44.00000 263.000
44.01500 288.000
44.03000 272.000
44.04500 264.000
44.06000 273.000
44.07500 292.000
44.09000 291.000
44.10500 283.000
44.12000 264.000
44.13500 284.000
44.15000 299.000
44.16500 283.000
44.18000 281.000
44.19500 296.000
44.21000 302.000
44.22500 301.000
44.24000 306.000
44.25500 295.000
44.27000 301.000
44.28500 334.000
44.30000 309.000
44.31500 293.000
44.33000 272.000
44.34500 301.000
44.36000 326.000
44.37500 324.000
44.39000 321.000
44.40500 321.000
44.42000 326.000
44.43500 334.000
44.45000 334.000
44.46500 333.000
44.48000 325.000
44.49500 317.000
44.51000 323.000
44.52500 340.000
44.54000 350.000
44.55500 365.000
44.57000 386.000
44.58500 411.000
44.60000 390.000
44.61500 375.000
44.63000 381.000
44.64500 404.000
44.66000 397.000
44.67500 377.000
44.69000 387.000
44.70500 379.000
44.72000 368.000
44.73500 385.000
44.75000 362.000
44.76500 369.000
44.78000 374.000
44.79500 372.000
44.81000 373.000
44.82500 359.000
44.84000 398.000
44.85500 370.000
44.87000 368.000
44.88500 363.000
44.90000 378.000
44.91500 335.000
44.93000 344.000
44.94500 351.000
44.96000 349.000
44.97500 316.000
44.99000 332.000
45.00500 333.000
45.02000 337.000
45.03500 323.000
45.05000 322.000
45.06500 342.000
45.08000 322.000
45.09500 334.000
45.11000 325.000
45.12500 336.000
45.14000 297.000
45.15500 315.000
45.17000 317.000
45.18500 327.000
45.20000 308.000
45.21500 305.000
45.23000 306.000
45.24500 301.000
45.26000 283.000
45.27500 300.000
45.29000 303.000
45.30500 303.000
45.32000 300.000
45.33500 300.000
45.35000 303.000
45.36500 282.000
45.38000 289.000
45.39500 304.000
45.41000 305.000
45.42500 292.000
45.44000 273.000
45.45500 303.000
45.47000 282.000
45.48500 284.000
45.50000 309.000
45.51500 323.000
45.53000 301.000
45.54500 291.000
45.56000 306.000
45.57500 277.000
45.59000 315.000
45.60500 296.000
45.62000 286.000
45.63500 314.000
45.65000 310.000
45.66500 292.000
45.68000 317.000
45.69500 309.000
45.71000 310.000
45.72500 334.000
45.74000 314.000
45.75500 292.000
45.77000 328.000
45.78500 306.000
45.80000 268.000
45.81500 302.000
45.83000 307.000
45.84500 332.000
45.86000 317.000
45.87500 312.000
45.89000 304.000
45.90500 318.000
45.92000 295.000
45.93500 311.000
45.95000 298.000
45.96500 281.000
45.98000 309.000
45.99500 320.000
46.01000 321.000
46.02500 318.000
46.04000 315.000
46.05500 312.000
46.07000 304.000
46.08500 322.000
46.10000 303.000
46.11500 290.000
46.13000 300.000
46.14500 328.000
46.16000 308.000
46.17500 315.000
46.19000 305.000
46.20500 286.000
46.22000 259.000
46.23500 298.000
46.25000 303.000
46.26500 305.000
46.28000 275.000
46.29500 289.000
46.31000 287.000
46.32500 282.000
46.34000 292.000
46.35500 295.000
46.37000 290.000
46.38500 296.000
46.40000 316.000
46.41500 302.000
46.43000 308.000
46.44500 290.000
46.46000 284.000
46.47500 307.000
46.49000 319.000
46.50500 311.000
46.52000 305.000
46.53500 277.000
46.55000 297.000
46.56500 331.000
46.58000 305.000
46.59500 312.000
46.61000 322.000
46.62500 329.000
46.64000 338.000
46.65500 328.000
46.67000 332.000
46.68500 313.000
46.70000 293.000
46.71500 330.000
46.73000 306.000
46.74500 297.000
46.76000 294.000
46.77500 293.000
46.79000 309.000
46.80500 309.000
46.82000 302.000
46.83500 269.000
46.85000 272.000
46.86500 285.000
46.88000 277.000
46.89500 292.000
46.91000 283.000
46.92500 290.000
46.94000 311.000
46.95500 299.000
46.97000 268.000
46.98500 255.000
47.00000 276.000
47.01500 288.000
47.03000 273.000
47.04500 269.000
47.06000 255.000
47.07500 271.000
47.09000 277.000
47.10500 271.000
47.12000 247.000
47.13500 264.000
47.15000 273.000
47.16500 265.000
47.18000 278.000
47.19500 256.000
47.21000 269.000
47.22500 284.000
47.24000 252.000
47.25500 243.000
47.27000 261.000
47.28500 255.000
47.30000 251.000
47.31500 255.000
47.33000 253.000
47.34500 236.000
47.36000 235.000
47.37500 243.000
47.39000 277.000
47.40500 258.000
47.42000 225.000
47.43500 251.000
47.45000 250.000
47.46500 232.000
47.48000 256.000
47.49500 244.000
47.51000 240.000
47.52500 212.000
47.54000 245.000
47.55500 248.000
47.57000 242.000
47.58500 252.000
47.60000 253.000
47.61500 274.000
47.63000 253.000
47.64500 274.000
47.66000 245.000
47.67500 257.000
47.69000 254.000
47.70500 238.000
47.72000 226.000
47.73500 253.000
47.75000 237.000
47.76500 233.000
47.78000 232.000
47.79500 253.000
47.81000 246.000
47.82500 258.000
47.84000 263.000
47.85500 249.000
47.87000 229.000
47.88500 233.000
47.90000 247.000
47.91500 248.000
47.93000 251.000
47.94500 237.000
47.96000 237.000
47.97500 218.000
47.99000 250.000
48.00500 246.000
48.02000 218.000
48.03500 213.000
48.05000 227.000
48.06500 236.000
48.08000 239.000
48.09500 240.000
48.11000 244.000
48.12500 227.000
48.14000 212.000
48.15500 236.000
48.17000 209.000
48.18500 240.000
48.20000 220.000
48.21500 251.000
48.23000 249.000
48.24500 239.000
48.26000 235.000
48.27500 233.000
48.29000 229.000
48.30500 241.000
48.32000 239.000
48.33500 256.000
48.35000 271.000
48.36500 224.000
48.38000 246.000
48.39500 224.000
48.41000 251.000
48.42500 254.000
48.44000 230.000
48.45500 238.000
48.47000 247.000
48.48500 226.000
48.50000 228.000
48.51500 240.000
48.53000 217.000
48.54500 256.000
48.56000 253.000
48.57500 237.000
48.59000 234.000
48.60500 225.000
48.62000 232.000
48.63500 225.000
48.65000 262.000
48.66500 247.000
48.68000 244.000
48.69500 238.000
48.71000 248.000
48.72500 231.000
48.74000 221.000
48.75500 224.000
48.77000 233.000
48.78500 235.000
48.80000 253.000
48.81500 240.000
48.83000 214.000
48.84500 215.000
48.86000 252.000
48.87500 251.000
48.89000 266.000
48.90500 246.000
48.92000 239.000
48.93500 254.000
48.95000 250.000
48.96500 240.000
48.98000 236.000
48.99500 244.000
49.01000 219.000
49.02500 230.000
49.04000 259.000
49.05500 239.000
49.07000 245.000
49.08500 230.000
49.10000 224.000
49.11500 229.000
49.13000 234.000
49.14500 237.000
49.16000 247.000
49.17500 237.000
49.19000 242.000
49.20500 234.000
49.22000 212.000
49.23500 215.000
49.25000 238.000
49.26500 242.000
49.28000 219.000
49.29500 222.000
49.31000 226.000
49.32500 251.000
49.34000 235.000
49.35500 232.000
49.37000 215.000
49.38500 230.000
49.40000 245.000
49.41500 229.000
49.43000 232.000
49.44500 245.000
49.46000 207.000
49.47500 216.000
49.49000 228.000
49.50500 241.000
49.52000 230.000
49.53500 262.000
49.55000 246.000
49.56500 221.000
49.58000 227.000
49.59500 234.000
49.61000 241.000
49.62500 242.000
49.64000 230.000
49.65500 236.000
49.67000 267.000
49.68500 238.000
49.70000 246.000
49.71500 249.000
49.73000 243.000
49.74500 246.000
49.76000 251.000
49.77500 248.000
49.79000 242.000
49.80500 259.000
49.82000 275.000
49.83500 235.000
49.85000 256.000
49.86500 253.000
49.88000 233.000
49.89500 248.000
49.91000 267.000
49.92500 257.000
49.94000 253.000
49.95500 247.000
49.97000 246.000
49.98500 245.000
50.00000 244.000
50.01500 274.000
50.03000 212.000
50.04500 226.000
50.06000 248.000
50.07500 269.000
50.09000 260.000
50.10500 248.000
50.12000 259.000
50.13500 277.000
50.15000 267.000
50.16500 261.000
50.18000 249.000
50.19500 229.000
50.21000 231.000
50.22500 238.000
50.24000 251.000
50.25500 258.000
50.27000 263.000
50.28500 252.000
50.30000 266.000
50.31500 249.000
50.33000 251.000
50.34500 274.000
50.36000 247.000
50.37500 263.000
50.39000 281.000
50.40500 285.000
50.42000 269.000
50.43500 266.000
50.45000 263.000
50.46500 278.000
50.48000 263.000
50.49500 254.000
50.51000 301.000
50.52500 293.000
50.54000 279.000
50.55500 294.000
50.57000 298.000
50.58500 294.000
50.60000 296.000
50.61500 288.000
50.63000 312.000
50.64500 304.000
50.66000 341.000
50.67500 305.000
50.69000 320.000
50.70500 323.000
50.72000 322.000
50.73500 342.000
50.75000 335.000
50.76500 308.000
50.78000 342.000
50.79500 345.000
50.81000 351.000
50.82500 331.000
50.84000 340.000
50.85500 342.000
50.87000 355.000
50.88500 367.000
50.90000 352.000
50.91500 332.000
50.93000 325.000
50.94500 356.000
50.96000 338.000
50.97500 345.000
50.99000 303.000
51.00500 315.000
51.02000 334.000
51.03500 331.000
51.05000 299.000
51.06500 309.000
51.08000 320.000
51.09500 311.000
51.11000 325.000
51.12500 310.000
51.14000 302.000
51.15500 311.000
51.17000 322.000
51.18500 299.000
51.20000 309.000
51.21500 280.000
51.23000 273.000
51.24500 312.000
51.26000 294.000
51.27500 288.000
51.29000 267.000
51.30500 289.000
51.32000 283.000
51.33500 274.000
51.35000 292.000
51.36500 291.000
51.38000 276.000
51.39500 304.000
51.41000 278.000
51.42500 271.000
51.44000 247.000
51.45500 248.000
51.47000 259.000
51.48500 265.000
51.50000 235.000
51.51500 267.000
51.53000 276.000
51.54500 266.000
51.56000 231.000
51.57500 256.000
51.59000 238.000
51.60500 244.000
51.62000 245.000
51.63500 252.000
51.65000 243.000
51.66500 244.000
51.68000 240.000
51.69500 247.000
51.71000 258.000
51.72500 245.000
51.74000 258.000
51.75500 251.000
51.77000 243.000
51.78500 239.000
51.80000 251.000
51.81500 224.000
51.83000 246.000
51.84500 250.000
51.86000 222.000
51.87500 219.000
51.89000 237.000
51.90500 242.000
51.92000 244.000
51.93500 233.000
51.95000 231.000
51.96500 246.000
51.98000 237.000
51.99500 239.000
52.01000 248.000
52.02500 248.000
52.04000 232.000
52.05500 221.000
52.07000 226.000
52.08500 235.000
52.10000 245.000
52.11500 236.000
52.13000 233.000
52.14500 228.000
52.16000 238.000
52.17500 227.000
52.19000 218.000
52.20500 232.000
52.22000 243.000
52.23500 240.000
52.25000 236.000
52.26500 227.000
52.28000 230.000
52.29500 247.000
52.31000 216.000
52.32500 214.000
52.34000 243.000
52.35500 228.000
52.37000 229.000
52.38500 215.000
52.40000 207.000
52.41500 200.000
52.43000 215.000
52.44500 232.000
52.46000 217.000
52.47500 225.000
52.49000 241.000
52.50500 216.000
52.52000 209.000
52.53500 233.000
52.55000 223.000
52.56500 211.000
52.58000 216.000
52.59500 239.000
52.61000 232.000
52.62500 247.000
52.64000 219.000
52.65500 207.000
52.67000 227.000
52.68500 242.000
52.70000 210.000
52.71500 225.000
52.73000 248.000
52.74500 242.000
52.76000 215.000
52.77500 228.000
52.79000 218.000
52.80500 224.000
52.82000 215.000
52.83500 221.000
52.85000 226.000
52.86500 211.000
52.88000 211.000
52.89500 223.000
52.91000 218.000
52.92500 221.000
52.94000 251.000
52.95500 221.000
52.97000 230.000
52.98500 212.000
53.00000 188.000
53.01500 217.000
53.03000 220.000
53.04500 235.000
53.06000 221.000
53.07500 229.000
53.09000 219.000
53.10500 215.000
53.12000 203.000
53.13500 229.000
53.15000 205.000
53.16500 199.000
53.18000 211.000
53.19500 222.000
53.21000 217.000
53.22500 229.000
53.24000 212.000
53.25500 201.000
53.27000 205.000
53.28500 214.000
53.30000 229.000
53.31500 218.000
53.33000 215.000
53.34500 220.000
53.36000 211.000
53.37500 195.000
53.39000 205.000
53.40500 212.000
53.42000 206.000
53.43500 206.000
53.45000 225.000
53.46500 212.000
53.48000 235.000
53.49500 228.000
53.51000 217.000
53.52500 220.000
53.54000 201.000
53.55500 215.000
53.57000 234.000
53.58500 216.000
53.60000 237.000
53.61500 223.000
53.63000 233.000
53.64500 243.000
53.66000 221.000
53.67500 226.000
53.69000 216.000
53.70500 214.000
53.72000 216.000
53.73500 233.000
53.75000 218.000
53.76500 257.000
53.78000 238.000
53.79500 257.000
53.81000 250.000
53.82500 249.000
53.84000 239.000
53.85500 223.000
53.87000 238.000
53.88500 248.000
53.90000 247.000
53.91500 238.000
53.93000 240.000
53.94500 267.000
53.96000 287.000
53.97500 277.000
53.99000 272.000
54.00500 257.000
54.02000 285.000
54.03500 265.000
54.05000 270.000
54.06500 279.000
54.08000 271.000
54.09500 288.000
54.11000 287.000
54.12500 269.000
54.14000 281.000
54.15500 280.000
54.17000 290.000
54.18500 277.000
54.20000 289.000
54.21500 306.000
54.23000 309.000
54.24500 280.000
54.26000 287.000
54.27500 270.000
54.29000 275.000
54.30500 274.000
54.32000 270.000
54.33500 258.000
54.35000 266.000
54.36500 260.000
54.38000 259.000
54.39500 262.000
54.41000 244.000
54.42500 267.000
54.44000 293.000
54.45500 291.000
54.47000 273.000
54.48500 290.000
54.50000 289.000
54.51500 275.000
54.53000 266.000
54.54500 275.000
54.56000 278.000
54.57500 289.000
54.59000 285.000
54.60500 311.000
54.62000 323.000
54.63500 318.000
54.65000 315.000
54.66500 324.000
54.68000 329.000
54.69500 307.000
54.71000 285.000
54.72500 261.000
54.74000 254.000
54.75500 272.000
54.77000 252.000
54.78500 261.000
54.80000 251.000
54.81500 260.000
54.83000 258.000
54.84500 258.000
54.86000 245.000
54.87500 250.000
54.89000 266.000
54.90500 236.000
54.92000 204.000
54.93500 240.000
54.95000 228.000
54.96500 221.000
54.98000 227.000
54.99500 197.000
55.01000 216.000
55.02500 238.000
55.04000 229.000
55.05500 214.000
55.07000 221.000
55.08500 231.000
55.10000 199.000
55.11500 198.000
55.13000 191.000
55.14500 203.000
55.16000 210.000
55.17500 221.000
55.19000 213.000
55.20500 207.000
55.22000 195.000
55.23500 210.000
55.25000 219.000
55.26500 197.000
55.28000 222.000
55.29500 228.000
55.31000 205.000
55.32500 191.000
55.34000 188.000
55.35500 205.000
55.37000 213.000
55.38500 203.000
55.40000 198.000
55.41500 188.000
55.43000 207.000
55.44500 227.000
55.46000 206.000
55.47500 224.000
55.49000 228.000
55.50500 236.000
55.52000 212.000
55.53500 193.000
55.55000 199.000
55.56500 205.000
55.58000 196.000
55.59500 209.000
55.61000 199.000
55.62500 221.000
55.64000 214.000
55.65500 226.000
55.67000 221.000
55.68500 217.000
55.70000 208.000
55.71500 224.000
55.73000 206.000
55.74500 203.000
55.76000 196.000
55.77500 194.000
55.79000 208.000
55.80500 213.000
55.82000 190.000
55.83500 189.000
55.85000 180.000
55.86500 182.000
55.88000 204.000
55.89500 212.000
55.91000 219.000
55.92500 208.000
55.94000 169.000
55.95500 193.000
55.97000 208.000
55.98500 195.000
56.00000 198.000
56.01500 204.000
56.03000 189.000
56.04500 198.000
56.06000 209.000
56.07500 215.000
56.09000 198.000
56.10500 221.000
56.12000 195.000
56.13500 200.000
56.15000 236.000
56.16500 236.000
56.18000 196.000
56.19500 201.000
56.21000 210.000
56.22500 202.000
56.24000 208.000
56.25500 195.000
56.27000 207.000
56.28500 209.000
56.30000 196.000
56.31500 218.000
56.33000 221.000
56.34500 212.000
56.36000 194.000
56.37500 192.000
56.39000 203.000
56.40500 211.000
56.42000 221.000
56.43500 218.000
56.45000 231.000
56.46500 238.000
56.48000 222.000
56.49500 225.000
56.51000 222.000
56.52500 213.000
56.54000 227.000
56.55500 227.000
56.57000 242.000
56.58500 241.000
56.60000 213.000
56.61500 211.000
56.63000 217.000
56.64500 234.000
56.66000 239.000
56.67500 233.000
56.69000 221.000
56.70500 235.000
56.72000 237.000
56.73500 219.000
56.75000 230.000
56.76500 224.000
56.78000 221.000
56.79500 244.000
56.81000 223.000
56.82500 215.000
56.84000 236.000
56.85500 235.000
56.87000 214.000
56.88500 222.000
56.90000 229.000
56.91500 242.000
56.93000 249.000
56.94500 225.000
56.96000 226.000
56.97500 213.000
56.99000 228.000
57.00500 218.000
57.02000 235.000
57.03500 213.000
57.05000 237.000
57.06500 231.000
57.08000 268.000
57.09500 240.000
57.11000 244.000
57.12500 257.000
57.14000 247.000
57.15500 251.000
57.17000 241.000
57.18500 256.000
57.20000 247.000
57.21500 247.000
57.23000 259.000
57.24500 262.000
57.26000 249.000
57.27500 276.000
57.29000 245.000
57.30500 257.000
57.32000 279.000
57.33500 253.000
57.35000 225.000
57.36500 241.000
57.38000 276.000
57.39500 258.000
57.41000 244.000
57.42500 262.000
57.44000 243.000
57.45500 267.000
57.47000 257.000
57.48500 265.000
57.50000 268.000
57.51500 248.000
57.53000 263.000
57.54500 240.000
57.56000 272.000
57.57500 278.000
57.59000 249.000
57.60500 239.000
57.62000 237.000
57.63500 265.000
57.65000 258.000
57.66500 265.000
57.68000 262.000
57.69500 265.000
57.71000 258.000
57.72500 273.000
57.74000 261.000
57.75500 247.000
57.77000 263.000
57.78500 245.000
57.80000 253.000
57.81500 231.000
57.83000 233.000
57.84500 265.000
57.86000 254.000
57.87500 266.000
57.89000 251.000
57.90500 258.000
57.92000 251.000
57.93500 259.000
57.95000 233.000
57.96500 235.000
57.98000 221.000
57.99500 227.000
58.01000 236.000
58.02500 236.000
58.04000 227.000
58.05500 222.000
58.07000 228.000
58.08500 203.000
58.10000 220.000
58.11500 230.000
58.13000 207.000
58.14500 217.000
58.16000 234.000
58.17500 228.000
58.19000 220.000
58.20500 219.000
58.22000 204.000
58.23500 208.000
58.25000 223.000
58.26500 188.000
58.28000 213.000
58.29500 212.000
58.31000 218.000
58.32500 204.000
58.34000 214.000
58.35500 218.000
58.37000 219.000
58.38500 217.000
58.40000 206.000
58.41500 205.000
58.43000 195.000
58.44500 192.000
58.46000 205.000
58.47500 208.000
58.49000 220.000
58.50500 213.000
58.52000 207.000
58.53500 209.000
58.55000 203.000
58.56500 179.000
58.58000 199.000
58.59500 202.000
58.61000 213.000
58.62500 220.000
58.64000 214.000
58.65500 212.000
58.67000 202.000
58.68500 211.000
58.70000 202.000
58.71500 204.000
58.73000 229.000
58.74500 220.000
58.76000 210.000
58.77500 200.000
58.79000 205.000
58.80500 234.000
58.82000 216.000
58.83500 190.000
58.85000 202.000
58.86500 220.000
58.88000 205.000
58.89500 217.000
58.91000 207.000
58.92500 198.000
58.94000 201.000
58.95500 182.000
58.97000 205.000
58.98500 213.000
59.00000 200.000
59.01500 199.000
59.03000 192.000
59.04500 206.000
59.06000 217.000
59.07500 187.000
59.09000 183.000
59.10500 219.000
59.12000 219.000
59.13500 240.000
59.15000 208.000
59.16500 185.000
59.18000 204.000
59.19500 192.000
59.21000 193.000
59.22500 206.000
59.24000 197.000
59.25500 178.000
59.27000 186.000
59.28500 177.000
59.30000 211.000
59.31500 206.000
59.33000 183.000
59.34500 207.000
59.36000 208.000
59.37500 200.000
59.39000 184.000
59.40500 203.000
59.42000 180.000
59.43500 196.000
59.45000 201.000
59.46500 199.000
59.48000 172.000
59.49500 180.000
59.51000 179.000
59.52500 205.000
59.54000 192.000
59.55500 201.000
59.57000 210.000
59.58500 186.000
59.60000 201.000
59.61500 194.000
59.63000 193.000
59.64500 207.000
59.66000 202.000
59.67500 196.000
59.69000 175.000
59.70500 184.000
59.72000 194.000
59.73500 201.000
59.75000 191.000
59.76500 199.000
59.78000 188.000
59.79500 205.000
59.81000 208.000
59.82500 209.000
59.84000 198.000
59.85500 180.000
59.87000 195.000
59.88500 200.000
59.90000 175.000
59.91500 190.000
59.93000 190.000
59.94500 187.000
59.96000 181.000
59.97500 170.000
59.99000 194.000
60.00500 198.000
60.02000 202.000
60.03500 201.000
60.05000 185.000
60.06500 173.000
60.08000 186.000
60.09500 194.000
60.11000 173.000
60.12500 206.000
60.14000 196.000
60.15500 214.000
60.17000 177.000
60.18500 189.000
60.20000 190.000
60.21500 219.000
60.23000 200.000
60.24500 210.000
60.26000 194.000
60.27500 189.000
60.29000 182.000
60.30500 211.000
60.32000 186.000
60.33500 190.000
60.35000 179.000
60.36500 196.000
60.38000 199.000
60.39500 195.000
60.41000 205.000
60.42500 180.000
60.44000 200.000
60.45500 201.000
60.47000 183.000
60.48500 184.000
60.50000 189.000
60.51500 173.000
60.53000 180.000
60.54500 197.000
60.56000 196.000
60.57500 172.000
60.59000 181.000
60.60500 197.000
60.62000 200.000
60.63500 192.000
60.65000 174.000
60.66500 186.000
60.68000 162.000
60.69500 192.000
60.71000 163.000
60.72500 184.000
60.74000 168.000
60.75500 195.000
60.77000 183.000
60.78500 202.000
60.80000 197.000
60.81500 166.000
60.83000 183.000
60.84500 203.000
60.86000 185.000
60.87500 173.000
60.89000 184.000
60.90500 187.000
60.92000 190.000
60.93500 185.000
60.95000 180.000
60.96500 199.000
60.98000 204.000
60.99500 189.000
61.01000 192.000
61.02500 183.000
61.04000 193.000
61.05500 182.000
61.07000 186.000
61.08500 188.000
61.10000 168.000
61.11500 183.000
61.13000 192.000
61.14500 201.000
61.16000 180.000
61.17500 181.000
61.19000 180.000
61.20500 200.000
61.22000 191.000
61.23500 178.000
61.25000 179.000
61.26500 182.000
61.28000 166.000
61.29500 175.000
61.31000 173.000
61.32500 167.000
61.34000 180.000
61.35500 182.000
61.37000 188.000
61.38500 191.000
61.40000 175.000
61.41500 191.000
61.43000 187.000
61.44500 181.000
61.46000 185.000
61.47500 183.000
61.49000 182.000
61.50500 174.000
61.52000 178.000
61.53500 185.000
61.55000 169.000
61.56500 179.000
61.58000 183.000
61.59500 168.000
61.61000 174.000
61.62500 173.000
61.64000 185.000
61.65500 185.000
61.67000 187.000
61.68500 182.000
61.70000 176.000
61.71500 177.000
61.73000 199.000
61.74500 197.000
61.76000 182.000
61.77500 173.000
61.79000 178.000
61.80500 186.000
61.82000 188.000
61.83500 179.000
61.85000 177.000
61.86500 183.000
61.88000 177.000
61.89500 174.000
61.91000 169.000
61.92500 165.000
61.94000 167.000
61.95500 166.000
61.97000 161.000
61.98500 157.000
