2.00000 2.000
2.01500 1.000
2.03000 1.000
2.04500 2.000
2.06000 2.000
2.07500 1.000
2.09000 0.000
2.10500 0.000
2.12000 1.000
2.13500 2.000
2.15000 1.000
2.16500 1.000
2.18000 4.000
2.19500 0.000
2.21000 1.000
2.22500 1.000
2.24000 5.000
2.25500 2.000
2.27000 2.000
2.28500 1.000
2.30000 2.000
2.31500 3.000
2.33000 2.000
2.34500 1.000
2.36000 1.000
2.37500 1.000
2.39000 1.000
2.40500 1.000
2.42000 1.000
2.43500 1.000
2.45000 1.000
2.46500 0.000
2.48000 2.000
2.49500 3.000
2.51000 1.000
2.52500 0.000
2.54000 2.000
2.55500 2.000
2.57000 2.000
2.58500 1.000
2.60000 2.000
2.61500 2.000
2.63000 3.000
2.64500 1.000
2.66000 1.000
2.67500 2.000
2.69000 1.000
2.70500 1.000
2.72000 2.000
2.73500 2.000
2.75000 1.000
2.76500 2.000
2.78000 0.000
2.79500 1.000
2.81000 0.000
2.82500 1.000
2.84000 1.000
2.85500 0.000
2.87000 1.000
2.88500 2.000
2.90000 2.000
2.91500 1.000
2.93000 2.000
2.94500 2.000
2.96000 2.000
2.97500 2.000
2.99000 3.000
3.00500 4.000
3.02000 7.000
3.03500 9.000
3.05000 12.000
3.06500 16.000
3.08000 17.000
3.09500 25.000
3.11000 46.000
3.12500 52.000
3.14000 68.000
3.15500 71.000
3.17000 94.000
3.18500 80.000
3.20000 81.000
3.21500 87.000
3.23000 90.000
3.24500 87.000
3.26000 94.000
3.27500 99.000
3.29000 102.000
3.30500 107.000
3.32000 98.000
3.33500 94.000
3.35000 98.000
3.36500 96.000
3.38000 93.000
3.39500 94.000
3.41000 107.000
3.42500 110.000
3.44000 94.000
3.45500 102.000
3.47000 103.000
3.48500 102.000
3.50000 89.000
3.51500 89.000
3.53000 101.000
3.54500 101.000
3.56000 102.000
3.57500 98.000
3.59000 102.000
3.60500 94.000
3.62000 112.000
3.63500 97.000
3.65000 98.000
3.66500 111.000
3.68000 103.000
3.69500 104.000
3.71000 98.000
3.72500 111.000
3.74000 110.000
3.75500 101.000
3.77000 118.000
3.78500 98.000
3.80000 105.000
3.81500 111.000
3.83000 93.000
3.84500 100.000
3.86000 112.000
3.87500 113.000
3.89000 103.000
3.90500 107.000
3.92000 94.000
3.93500 127.000
3.95000 112.000
3.96500 106.000
3.98000 104.000
3.99500 99.000
4.01000 111.000
4.02500 110.000
4.04000 115.000
4.05500 111.000
4.07000 95.000
4.08500 111.000
4.10000 103.000
4.11500 104.000
4.13000 111.000
4.14500 109.000
4.16000 126.000
4.17500 118.000
4.19000 122.000
4.20500 115.000
4.22000 114.000
4.23500 104.000
4.25000 122.000
4.26500 110.000
4.28000 119.000
4.29500 118.000
4.31000 119.000
4.32500 109.000
4.34000 115.000
4.35500 124.000
4.37000 116.000
4.38500 121.000
4.40000 121.000
4.41500 92.000
4.43000 104.000
4.44500 119.000
4.46000 137.000
4.47500 117.000
4.49000 108.000
4.50500 114.000
4.52000 130.000
4.53500 128.000
4.55000 128.000
4.56500 115.000
4.58000 114.000
4.59500 129.000
4.61000 116.000
4.62500 127.000
4.64000 124.000
4.65500 108.000
4.67000 122.000
4.68500 125.000
4.70000 125.000
4.71500 112.000
4.73000 131.000
4.74500 120.000
4.76000 117.000
4.77500 104.000
4.79000 116.000
4.80500 128.000
4.82000 126.000
4.83500 112.000
4.85000 124.000
4.86500 117.000
4.88000 102.000
4.89500 118.000
4.91000 115.000
4.92500 129.000
4.94000 141.000
4.95500 113.000
4.97000 113.000
4.98500 127.000
5.00000 139.000
5.01500 117.000
5.03000 140.000
5.04500 141.000
5.06000 131.000
5.07500 135.000
5.09000 135.000
5.10500 117.000
5.12000 128.000
5.13500 130.000
5.15000 126.000
5.16500 130.000
5.18000 140.000
5.19500 140.000
5.21000 140.000
5.22500 133.000
5.24000 143.000
5.25500 139.000
5.27000 132.000
5.28500 127.000
5.30000 127.000
5.31500 144.000
5.33000 131.000
5.34500 138.000
5.36000 138.000
5.37500 135.000
5.39000 139.000
5.40500 134.000
5.42000 143.000
5.43500 134.000
5.45000 133.000
5.46500 145.000
5.48000 137.000
5.49500 161.000
5.51000 157.000
5.52500 144.000
5.54000 139.000
5.55500 132.000
5.57000 149.000
5.58500 144.000
5.60000 142.000
5.61500 151.000
5.63000 146.000
5.64500 147.000
5.66000 148.000
5.67500 159.000
5.69000 168.000
5.70500 163.000
5.72000 147.000
5.73500 143.000
5.75000 146.000
5.76500 159.000
5.78000 161.000
5.79500 148.000
5.81000 167.000
5.82500 159.000
5.84000 171.000
5.85500 175.000
5.87000 161.000
5.88500 190.000
5.90000 181.000
5.91500 175.000
5.93000 193.000
5.94500 201.000
5.96000 209.000
5.97500 192.000
5.99000 195.000
6.00500 225.000
6.02000 212.000
6.03500 229.000
6.05000 227.000
6.06500 268.000
6.08000 264.000
6.09500 258.000
6.11000 257.000
6.12500 280.000
6.14000 298.000
6.15500 333.000
6.17000 383.000
6.18500 414.000
6.20000 489.000
6.21500 630.000
6.23000 671.000
6.24500 509.000
6.26000 313.000
6.27500 204.000
6.29000 175.000
6.30500 158.000
6.32000 168.000
6.33500 184.000
6.35000 157.000
6.36500 156.000
6.38000 169.000
6.39500 189.000
6.41000 163.000
6.42500 158.000
6.44000 173.000
6.45500 154.000
6.47000 167.000
6.48500 153.000
6.50000 158.000
6.51500 165.000
6.53000 148.000
6.54500 144.000
6.56000 156.000
6.57500 146.000
6.59000 133.000
6.60500 152.000
6.62000 157.000
6.63500 143.000
6.65000 168.000
6.66500 152.000
6.68000 157.000
6.69500 179.000
6.71000 160.000
6.72500 148.000
6.74000 153.000
6.75500 155.000
6.77000 166.000
6.78500 156.000
6.80000 161.000
6.81500 145.000
6.83000 158.000
6.84500 155.000
6.86000 152.000
6.87500 147.000
6.89000 159.000
6.90500 163.000
6.92000 153.000
6.93500 177.000
6.95000 160.000
6.96500 144.000
6.98000 167.000
6.99500 162.000
7.01000 158.000
7.02500 158.000
7.04000 155.000
7.05500 150.000
7.07000 149.000
7.08500 177.000
7.10000 150.000
7.11500 146.000
7.13000 162.000
7.14500 163.000
7.16000 146.000
7.17500 159.000
7.19000 154.000
7.20500 177.000
7.22000 166.000
7.23500 164.000
7.25000 173.000
7.26500 160.000
7.28000 166.000
7.29500 153.000
7.31000 161.000
7.32500 157.000
7.34000 156.000
7.35500 155.000
7.37000 163.000
7.38500 151.000
7.40000 165.000
7.41500 168.000
7.43000 154.000
7.44500 160.000
7.46000 159.000
7.47500 153.000
7.49000 154.000
7.50500 159.000
7.52000 151.000
7.53500 147.000
7.55000 164.000
7.56500 141.000
7.58000 163.000
7.59500 172.000
7.61000 169.000
7.62500 167.000
7.64000 166.000
7.65500 154.000
7.67000 187.000
7.68500 174.000
7.70000 177.000
7.71500 173.000
7.73000 161.000
7.74500 172.000
7.76000 173.000
7.77500 169.000
7.79000 163.000
7.80500 163.000
7.82000 157.000
7.83500 163.000
7.85000 163.000
7.86500 150.000
7.88000 167.000
7.89500 172.000
7.91000 163.000
7.92500 176.000
7.94000 165.000
7.95500 163.000
7.97000 151.000
7.98500 159.000
8.00000 148.000
8.01500 173.000
8.03000 149.000
8.04500 170.000
8.06000 183.000
8.07500 172.000
8.09000 156.000
8.10500 155.000
8.12000 180.000
8.13500 167.000
8.15000 166.000
8.16500 154.000
8.18000 154.000
8.19500 142.000
8.21000 158.000
8.22500 176.000
8.24000 173.000
8.25500 165.000
8.27000 165.000
8.28500 151.000
8.30000 161.000
8.31500 153.000
8.33000 169.000
8.34500 177.000
8.36000 153.000
8.37500 185.000
8.39000 176.000
8.40500 175.000
8.42000 159.000
8.43500 174.000
8.45000 171.000
8.46500 171.000
8.48000 174.000
8.49500 168.000
8.51000 158.000
8.52500 160.000
8.54000 159.000
8.55500 170.000
8.57000 184.000
8.58500 173.000
8.60000 172.000
8.61500 150.000
8.63000 170.000
8.64500 156.000
8.66000 149.000
8.67500 158.000
8.69000 157.000
8.70500 188.000
8.72000 185.000
8.73500 164.000
8.75000 165.000
8.76500 173.000
8.78000 172.000
8.79500 175.000
8.81000 166.000
8.82500 170.000
8.84000 200.000
8.85500 193.000
8.87000 196.000
8.88500 194.000
8.90000 212.000
8.91500 217.000
8.93000 227.000
8.94500 227.000
8.96000 193.000
8.97500 185.000
8.99000 181.000
9.00500 171.000
9.02000 178.000
9.03500 162.000
9.05000 166.000
9.06500 178.000
9.08000 177.000
9.09500 184.000
9.11000 195.000
9.12500 189.000
9.14000 169.000
9.15500 165.000
9.17000 177.000
9.18500 154.000
9.20000 159.000
9.21500 192.000
9.23000 179.000
9.24500 166.000
9.26000 161.000
9.27500 167.000
9.29000 164.000
9.30500 157.000
9.32000 183.000
9.33500 173.000
9.35000 167.000
9.36500 175.000
9.38000 169.000
9.39500 177.000
9.41000 159.000
9.42500 160.000
9.44000 178.000
9.45500 162.000
9.47000 179.000
9.48500 167.000
9.50000 168.000
9.51500 162.000
9.53000 154.000
9.54500 154.000
9.56000 190.000
9.57500 179.000
9.59000 161.000
9.60500 152.000
9.62000 164.000
9.63500 168.000
9.65000 182.000
9.66500 155.000
9.68000 162.000
9.69500 154.000
9.71000 162.000
9.72500 181.000
9.74000 170.000
9.75500 166.000
9.77000 188.000
9.78500 160.000
9.80000 184.000
9.81500 161.000
9.83000 174.000
9.84500 179.000
9.86000 171.000
9.87500 172.000
9.89000 177.000
9.90500 191.000
9.92000 181.000
9.93500 166.000
9.95000 163.000
9.96500 173.000
9.98000 169.000
9.99500 168.000
10.01000 165.000
10.02500 172.000
10.04000 189.000
10.05500 190.000
10.07000 199.000
10.08500 212.000
10.10000 186.000
10.11500 204.000
10.13000 199.000
10.14500 212.000
10.16000 214.000
10.17500 244.000
10.19000 219.000
10.20500 218.000
10.22000 242.000
10.23500 237.000
10.25000 247.000
10.26500 279.000
10.28000 311.000
10.29500 312.000
10.31000 334.000
10.32500 374.000
10.34000 437.000
10.35500 512.000
10.37000 536.000
10.38500 639.000
10.40000 745.000
10.41500 946.000
10.43000 1177.000
10.44500 1466.000
10.46000 1340.000
10.47500 838.000
10.49000 420.000
10.50500 281.000
10.52000 207.000
10.53500 190.000
10.55000 206.000
10.56500 165.000
10.58000 180.000
10.59500 160.000
10.61000 165.000
10.62500 179.000
10.64000 183.000
10.65500 186.000
10.67000 177.000
10.68500 184.000
10.70000 183.000
10.71500 200.000
10.73000 175.000
10.74500 185.000
10.76000 177.000
10.77500 182.000
10.79000 179.000
10.80500 169.000
10.82000 170.000
10.83500 162.000
10.85000 172.000
10.86500 177.000
10.88000 166.000
10.89500 172.000
10.91000 164.000
10.92500 182.000
10.94000 169.000
10.95500 186.000
10.97000 179.000
10.98500 172.000
11.00000 176.000
11.01500 183.000
11.03000 176.000
11.04500 177.000
11.06000 177.000
11.07500 177.000
11.09000 183.000
11.10500 195.000
11.12000 169.000
11.13500 157.000
11.15000 175.000
11.16500 162.000
11.18000 163.000
11.19500 189.000
11.21000 196.000
11.22500 183.000
11.24000 182.000
11.25500 178.000
11.27000 160.000
11.28500 164.000
11.30000 157.000
11.31500 169.000
11.33000 171.000
11.34500 169.000
11.36000 168.000
11.37500 192.000
11.39000 177.000
11.40500 176.000
11.42000 188.000
11.43500 189.000
11.45000 168.000
11.46500 178.000
11.48000 188.000
11.49500 189.000
11.51000 190.000
11.52500 169.000
11.54000 178.000
11.55500 159.000
11.57000 166.000
11.58500 197.000
11.60000 187.000
11.61500 186.000
11.63000 216.000
11.64500 182.000
11.66000 181.000
11.67500 194.000
11.69000 198.000
11.70500 177.000
11.72000 185.000
11.73500 192.000
11.75000 205.000
11.76500 215.000
11.78000 188.000
11.79500 206.000
11.81000 212.000
11.82500 202.000
11.84000 209.000
11.85500 209.000
11.87000 228.000
11.88500 233.000
11.90000 252.000
11.91500 257.000
11.93000 271.000
11.94500 283.000
11.96000 340.000
11.97500 370.000
11.99000 360.000
12.00500 371.000
12.02000 424.000
12.03500 485.000
12.05000 562.000
12.06500 627.000
12.08000 718.000
12.09500 815.000
12.11000 995.000
12.12500 1197.000
12.14000 1380.000
12.15500 1635.000
12.17000 1873.000
12.18500 2064.000
12.20000 2034.000
12.21500 1971.000
12.23000 1657.000
12.24500 1470.000
12.26000 1303.000
12.27500 1012.000
12.29000 655.000
12.30500 392.000
12.32000 280.000
12.33500 274.000
12.35000 238.000
12.36500 239.000
12.38000 247.000
12.39500 256.000
12.41000 274.000
12.42500 277.000
12.44000 278.000
12.45500 303.000
12.47000 323.000
12.48500 315.000
12.50000 331.000
12.51500 365.000
12.53000 411.000
12.54500 455.000
12.56000 562.000
12.57500 555.000
12.59000 428.000
12.60500 302.000
12.62000 207.000
12.63500 208.000
12.65000 200.000
12.66500 194.000
12.68000 175.000
12.69500 195.000
12.71000 188.000
12.72500 193.000
12.74000 204.000
12.75500 184.000
12.77000 183.000
12.78500 210.000
12.80000 200.000
12.81500 205.000
12.83000 201.000
12.84500 170.000
12.86000 186.000
12.87500 196.000
12.89000 201.000
12.90500 181.000
12.92000 190.000
12.93500 194.000
12.95000 184.000
12.96500 183.000
12.98000 170.000
12.99500 166.000
13.01000 181.000
13.02500 177.000
13.04000 206.000
13.05500 208.000
13.07000 199.000
13.08500 207.000
13.10000 203.000
13.11500 203.000
13.13000 178.000
13.14500 207.000
13.16000 199.000
13.17500 206.000
13.19000 199.000
13.20500 221.000
13.22000 220.000
13.23500 250.000
13.25000 271.000
13.26500 246.000
13.28000 266.000
13.29500 341.000
13.31000 370.000
13.32500 390.000
13.34000 443.000
13.35500 501.000
13.37000 592.000
13.38500 645.000
13.40000 684.000
13.41500 697.000
13.43000 618.000
13.44500 507.000
13.46000 395.000
13.47500 269.000
13.49000 227.000
13.50500 203.000
13.52000 176.000
13.53500 212.000
13.55000 198.000
13.56500 201.000
13.58000 181.000
13.59500 189.000
13.61000 200.000
13.62500 189.000
13.64000 183.000
13.65500 190.000
13.67000 178.000
13.68500 187.000
13.70000 192.000
13.71500 214.000
13.73000 197.000
13.74500 179.000
13.76000 185.000
13.77500 167.000
13.79000 173.000
13.80500 168.000
13.82000 180.000
13.83500 161.000
13.85000 199.000
13.86500 171.000
13.88000 169.000
13.89500 170.000
13.91000 181.000
13.92500 166.000
13.94000 170.000
13.95500 178.000
13.97000 165.000
13.98500 178.000
14.00000 174.000
14.01500 172.000
14.03000 199.000
14.04500 166.000
14.06000 173.000
14.07500 174.000
14.09000 175.000
14.10500 191.000
14.12000 173.000
14.13500 169.000
14.15000 195.000
14.16500 183.000
14.18000 188.000
14.19500 183.000
14.21000 176.000
14.22500 179.000
14.24000 195.000
14.25500 184.000
14.27000 167.000
14.28500 170.000
14.30000 187.000
14.31500 164.000
14.33000 163.000
14.34500 177.000
14.36000 178.000
14.37500 166.000
14.39000 171.000
14.40500 159.000
14.42000 181.000
14.43500 190.000
14.45000 190.000
14.46500 182.000
14.48000 181.000
14.49500 194.000
14.51000 182.000
14.52500 198.000
14.54000 171.000
14.55500 173.000
14.57000 170.000
14.58500 188.000
14.60000 180.000
14.61500 184.000
14.63000 199.000
14.64500 176.000
14.66000 182.000
14.67500 177.000
14.69000 180.000
14.70500 188.000
14.72000 183.000
14.73500 191.000
14.75000 187.000
14.76500 174.000
14.78000 168.000
14.79500 170.000
14.81000 172.000
14.82500 194.000
14.84000 191.000
14.85500 197.000
14.87000 196.000
14.88500 194.000
14.90000 191.000
14.91500 182.000
14.93000 186.000
14.94500 213.000
14.96000 225.000
14.97500 264.000
14.99000 264.000
15.00500 245.000
15.02000 303.000
15.03500 341.000
15.05000 347.000
15.06500 318.000
15.08000 258.000
15.09500 227.000
15.11000 201.000
15.12500 170.000
15.14000 190.000
15.15500 180.000
15.17000 186.000
15.18500 186.000
15.20000 197.000
15.21500 189.000
15.23000 187.000
15.24500 167.000
15.26000 198.000
15.27500 206.000
15.29000 185.000
15.30500 172.000
15.32000 183.000
15.33500 175.000
15.35000 183.000
15.36500 169.000
15.38000 160.000
15.39500 188.000
15.41000 196.000
15.42500 194.000
15.44000 178.000
15.45500 166.000
15.47000 174.000
15.48500 188.000
15.50000 177.000
15.51500 155.000
15.53000 192.000
15.54500 201.000
15.56000 175.000
15.57500 187.000
15.59000 188.000
15.60500 159.000
15.62000 139.000
15.63500 169.000
15.65000 187.000
15.66500 178.000
15.68000 191.000
15.69500 183.000
15.71000 178.000
15.72500 149.000
15.74000 163.000
15.75500 158.000
15.77000 163.000
15.78500 199.000
15.80000 183.000
15.81500 184.000
15.83000 185.000
15.84500 199.000
15.86000 174.000
15.87500 172.000
15.89000 186.000
15.90500 185.000
15.92000 189.000
15.93500 201.000
15.95000 170.000
15.96500 174.000
15.98000 175.000
15.99500 192.000
16.01000 182.000
16.02500 186.000
16.04000 186.000
16.05500 186.000
16.07000 187.000
16.08500 178.000
16.10000 175.000
16.11500 166.000
16.13000 148.000
16.14500 168.000
16.16000 193.000
16.17500 171.000
16.19000 166.000
16.20500 178.000
16.22000 186.000
16.23500 199.000
16.25000 192.000
16.26500 184.000
16.28000 204.000
16.29500 215.000
16.31000 220.000
16.32500 206.000
16.34000 231.000
16.35500 229.000
16.37000 248.000
16.38500 270.000
16.40000 281.000
16.41500 266.000
16.43000 256.000
16.44500 278.000
16.46000 263.000
16.47500 269.000
16.49000 276.000
16.50500 283.000
16.52000 233.000
16.53500 254.000
16.55000 240.000
16.56500 212.000
16.58000 187.000
16.59500 185.000
16.61000 184.000
16.62500 195.000
16.64000 188.000
16.65500 194.000
16.67000 193.000
16.68500 195.000
16.70000 197.000
16.71500 198.000
16.73000 192.000
16.74500 216.000
16.76000 186.000
16.77500 224.000
16.79000 248.000
16.80500 253.000
16.82000 246.000
16.83500 245.000
16.85000 262.000
16.86500 260.000
16.88000 275.000
16.89500 266.000
16.91000 223.000
16.92500 246.000
16.94000 232.000
16.95500 230.000
16.97000 209.000
16.98500 205.000
17.00000 193.000
17.01500 193.000
17.03000 189.000
17.04500 162.000
17.06000 177.000
17.07500 180.000
17.09000 202.000
17.10500 217.000
17.12000 204.000
17.13500 196.000
17.15000 205.000
17.16500 181.000
17.18000 195.000
17.19500 166.000
17.21000 170.000
17.22500 204.000
17.24000 173.000
17.25500 193.000
17.27000 190.000
17.28500 188.000
17.30000 204.000
17.31500 200.000
17.33000 186.000
17.34500 198.000
17.36000 189.000
17.37500 190.000
17.39000 193.000
17.40500 188.000
17.42000 193.000
17.43500 198.000
17.45000 200.000
17.46500 183.000
17.48000 172.000
17.49500 186.000
17.51000 208.000
17.52500 202.000
17.54000 188.000
17.55500 196.000
17.57000 186.000
17.58500 199.000
17.60000 186.000
17.61500 200.000
17.63000 196.000
17.64500 174.000
17.66000 193.000
17.67500 201.000
17.69000 192.000
17.70500 192.000
17.72000 187.000
17.73500 193.000
17.75000 200.000
17.76500 193.000
17.78000 201.000
17.79500 213.000
17.81000 204.000
17.82500 222.000
17.84000 224.000
17.85500 246.000
17.87000 208.000
17.88500 267.000
17.90000 280.000
17.91500 299.000
17.93000 355.000
17.94500 374.000
17.96000 364.000
17.97500 309.000
17.99000 283.000
18.00500 305.000
18.02000 292.000
18.03500 350.000
18.05000 369.000
18.06500 364.000
18.08000 317.000
18.09500 278.000
18.11000 244.000
18.12500 206.000
18.14000 199.000
18.15500 209.000
18.17000 196.000
18.18500 193.000
18.20000 220.000
18.21500 193.000
18.23000 189.000
18.24500 199.000
18.26000 191.000
18.27500 200.000
18.29000 196.000
18.30500 196.000
18.32000 203.000
18.33500 187.000
18.35000 219.000
18.36500 194.000
18.38000 201.000
18.39500 205.000
18.41000 216.000
18.42500 199.000
18.44000 182.000
18.45500 176.000
18.47000 193.000
18.48500 205.000
18.50000 196.000
18.51500 206.000
18.53000 171.000
18.54500 191.000
18.56000 206.000
18.57500 186.000
18.59000 219.000
18.60500 218.000
18.62000 216.000
18.63500 212.000
18.65000 246.000
18.66500 287.000
18.68000 297.000
18.69500 340.000
18.71000 390.000
18.72500 474.000
18.74000 625.000
18.75500 696.000
18.77000 612.000
18.78500 441.000
18.80000 305.000
18.81500 264.000
18.83000 230.000
18.84500 211.000
18.86000 196.000
18.87500 197.000
18.89000 206.000
18.90500 215.000
18.92000 211.000
18.93500 205.000
18.95000 224.000
18.96500 200.000
18.98000 199.000
18.99500 204.000
19.01000 219.000
19.02500 210.000
19.04000 207.000
19.05500 215.000
19.07000 240.000
19.08500 241.000
19.10000 235.000
19.11500 252.000
19.13000 271.000
19.14500 306.000
19.16000 305.000
19.17500 360.000
19.19000 408.000
19.20500 495.000
19.22000 593.000
19.23500 808.000
19.25000 1003.000
19.26500 1131.000
19.28000 1082.000
19.29500 738.000
19.31000 481.000
19.32500 355.000
19.34000 310.000
19.35500 334.000
19.37000 363.000
19.38500 413.000
19.40000 449.000
19.41500 463.000
19.43000 513.000
19.44500 502.000
19.46000 442.000
19.47500 369.000
19.49000 350.000
19.50500 267.000
19.52000 260.000
19.53500 282.000
19.55000 284.000
19.56500 285.000
19.58000 311.000
19.59500 350.000
19.61000 420.000
19.62500 473.000
19.64000 522.000
19.65500 500.000
19.67000 402.000
19.68500 297.000
19.70000 250.000
19.71500 246.000
19.73000 218.000
19.74500 226.000
19.76000 203.000
19.77500 216.000
19.79000 180.000
19.80500 185.000
19.82000 209.000
19.83500 195.000
19.85000 178.000
19.86500 188.000
19.88000 187.000
19.89500 200.000
19.91000 223.000
19.92500 205.000
19.94000 228.000
19.95500 215.000
19.97000 208.000
19.98500 199.000
20.00000 214.000
20.01500 213.000
20.03000 202.000
20.04500 198.000
20.06000 207.000
20.07500 193.000
20.09000 193.000
20.10500 180.000
20.12000 211.000
20.13500 198.000
20.15000 212.000
20.16500 202.000
20.18000 212.000
20.19500 202.000
20.21000 206.000
20.22500 215.000
20.24000 207.000
20.25500 206.000
20.27000 213.000
20.28500 213.000
20.30000 195.000
20.31500 216.000
20.33000 220.000
20.34500 204.000
20.36000 202.000
20.37500 211.000
20.39000 218.000
20.40500 221.000
20.42000 203.000
20.43500 196.000
20.45000 208.000
20.46500 225.000
20.48000 210.000
20.49500 219.000
20.51000 243.000
20.52500 234.000
20.54000 227.000
20.55500 208.000
20.57000 209.000
20.58500 224.000
20.60000 229.000
20.61500 229.000
20.63000 231.000
20.64500 217.000
20.66000 210.000
20.67500 204.000
20.69000 193.000
20.70500 228.000
20.72000 226.000
20.73500 214.000
20.75000 233.000
20.76500 221.000
20.78000 217.000
20.79500 208.000
20.81000 204.000
20.82500 206.000
20.84000 240.000
20.85500 255.000
20.87000 224.000
20.88500 249.000
20.90000 255.000
20.91500 263.000
20.93000 267.000
20.94500 279.000
20.96000 330.000
20.97500 369.000
20.99000 326.000
21.00500 298.000
21.02000 267.000
21.03500 242.000
21.05000 235.000
21.06500 254.000
21.08000 236.000
21.09500 238.000
21.11000 249.000
21.12500 223.000
21.14000 234.000
21.15500 222.000
21.17000 235.000
21.18500 220.000
21.20000 215.000
21.21500 219.000
21.23000 231.000
21.24500 227.000
21.26000 208.000
21.27500 197.000
21.29000 233.000
21.30500 220.000
21.32000 222.000
21.33500 228.000
21.35000 221.000
21.36500 206.000
21.38000 206.000
21.39500 238.000
21.41000 224.000
21.42500 238.000
21.44000 269.000
21.45500 257.000
21.47000 271.000
21.48500 257.000
21.50000 310.000
21.51500 316.000
21.53000 305.000
21.54500 299.000
21.56000 295.000
21.57500 288.000
21.59000 285.000
21.60500 281.000
21.62000 289.000
21.63500 300.000
21.65000 273.000
21.66500 270.000
21.68000 278.000
21.69500 263.000
21.71000 263.000
21.72500 236.000
21.74000 211.000
21.75500 226.000
21.77000 201.000
21.78500 217.000
21.80000 188.000
21.81500 186.000
21.83000 217.000
21.84500 194.000
21.86000 191.000
21.87500 211.000
21.89000 225.000
21.90500 209.000
21.92000 216.000
21.93500 211.000
21.95000 199.000
21.96500 204.000
21.98000 212.000
21.99500 230.000
22.01000 219.000
22.02500 212.000
22.04000 202.000
22.05500 223.000
22.07000 242.000
22.08500 235.000
22.10000 234.000
22.11500 229.000
22.13000 250.000
22.14500 270.000
22.16000 275.000
22.17500 296.000
22.19000 301.000
22.20500 263.000
22.22000 261.000
22.23500 256.000
22.25000 215.000
22.26500 206.000
22.28000 201.000
22.29500 202.000
22.31000 234.000
22.32500 226.000
22.34000 222.000
22.35500 211.000
22.37000 202.000
22.38500 196.000
22.40000 211.000
22.41500 201.000
22.43000 204.000
22.44500 201.000
22.46000 216.000
22.47500 214.000
22.49000 220.000
22.50500 198.000
22.52000 219.000
22.53500 224.000
22.55000 223.000
22.56500 209.000
22.58000 196.000
22.59500 210.000
22.61000 198.000
22.62500 190.000
22.64000 212.000
22.65500 195.000
22.67000 205.000
22.68500 207.000
22.70000 210.000
22.71500 218.000
22.73000 213.000
22.74500 215.000
22.76000 190.000
22.77500 186.000
22.79000 196.000
22.80500 200.000
22.82000 204.000
22.83500 214.000
22.85000 203.000
22.86500 184.000
22.88000 207.000
22.89500 195.000
22.91000 203.000
22.92500 218.000
22.94000 206.000
22.95500 206.000
22.97000 204.000
22.98500 216.000
23.00000 211.000
23.01500 217.000
23.03000 223.000
23.04500 217.000
23.06000 209.000
23.07500 212.000
23.09000 217.000
23.10500 192.000
23.12000 193.000
23.13500 204.000
23.15000 209.000
23.16500 202.000
23.18000 198.000
23.19500 232.000
23.21000 205.000
23.22500 217.000
23.24000 217.000
23.25500 212.000
23.27000 225.000
23.28500 241.000
23.30000 194.000
23.31500 199.000
23.33000 195.000
23.34500 207.000
23.36000 197.000
23.37500 189.000
23.39000 203.000
23.40500 203.000
23.42000 215.000
23.43500 217.000
23.45000 220.000
23.46500 199.000
23.48000 198.000
23.49500 224.000
23.51000 241.000
23.52500 250.000
23.54000 210.000
23.55500 202.000
23.57000 215.000
23.58500 232.000
23.60000 232.000
23.61500 212.000
23.63000 233.000
23.64500 208.000
23.66000 227.000
23.67500 210.000
23.69000 223.000
23.70500 213.000
23.72000 219.000
23.73500 208.000
23.75000 214.000
23.76500 227.000
23.78000 240.000
23.79500 236.000
23.81000 233.000
23.82500 262.000
23.84000 254.000
23.85500 253.000
23.87000 258.000
23.88500 270.000
23.90000 248.000
23.91500 251.000
23.93000 267.000
23.94500 253.000
23.96000 261.000
23.97500 250.000
23.99000 227.000
24.00500 237.000
24.02000 229.000
24.03500 213.000
24.05000 226.000
24.06500 224.000
24.08000 207.000
24.09500 232.000
24.11000 230.000
24.12500 232.000
24.14000 232.000
24.15500 249.000
24.17000 252.000
24.18500 254.000
24.20000 247.000
24.21500 259.000
24.23000 278.000
24.24500 270.000
24.26000 290.000
24.27500 274.000
24.29000 313.000
24.30500 314.000
24.32000 345.000
24.33500 360.000
24.35000 391.000
24.36500 395.000
24.38000 421.000
24.39500 394.000
24.41000 377.000
24.42500 401.000
24.44000 452.000
24.45500 480.000
24.47000 565.000
24.48500 650.000
24.50000 785.000
24.51500 847.000
24.53000 767.000
24.54500 608.000
24.56000 488.000
24.57500 397.000
24.59000 319.000
24.60500 329.000
24.62000 319.000
24.63500 282.000
24.65000 282.000
24.66500 289.000
24.68000 278.000
24.69500 265.000
24.71000 240.000
24.72500 247.000
24.74000 244.000
24.75500 241.000
24.77000 222.000
24.78500 225.000
24.80000 215.000
24.81500 220.000
24.83000 216.000
24.84500 247.000
24.86000 218.000
24.87500 227.000
24.89000 211.000
24.90500 221.000
24.92000 227.000
24.93500 238.000
24.95000 250.000
24.96500 229.000
24.98000 233.000
24.99500 247.000
25.01000 262.000
25.02500 262.000
25.04000 304.000
25.05500 336.000
25.07000 342.000
25.08500 405.000
25.10000 419.000
25.11500 360.000
25.13000 346.000
25.14500 290.000
25.16000 235.000
25.17500 248.000
25.19000 258.000
25.20500 235.000
25.22000 231.000
25.23500 253.000
25.25000 255.000
25.26500 266.000
25.28000 301.000
25.29500 266.000
25.31000 282.000
25.32500 265.000
25.34000 247.000
25.35500 237.000
25.37000 241.000
25.38500 260.000
25.40000 245.000
25.41500 274.000
25.43000 279.000
25.44500 278.000
25.46000 278.000
25.47500 321.000
25.49000 358.000
25.50500 421.000
25.52000 435.000
25.53500 414.000
25.55000 426.000
25.56500 348.000
25.58000 344.000
25.59500 314.000
25.61000 352.000
25.62500 388.000
25.64000 386.000
25.65500 408.000
25.67000 495.000
25.68500 550.000
25.70000 610.000
25.71500 708.000
25.73000 788.000
25.74500 948.000
25.76000 1039.000
25.77500 1240.000
25.79000 1357.000
25.80500 1445.000
25.82000 1395.000
25.83500 1289.000
25.85000 1022.000
25.86500 787.000
25.88000 646.000
25.89500 572.000
25.91000 489.000
25.92500 422.000
25.94000 392.000
25.95500 369.000
25.97000 328.000
25.98500 363.000
26.00000 349.000
26.01500 366.000
26.03000 362.000
26.04500 393.000
26.06000 445.000
26.07500 474.000
26.09000 560.000
26.10500 636.000
26.12000 650.000
26.13500 582.000
26.15000 497.000
26.16500 456.000
26.18000 412.000
26.19500 461.000
26.21000 521.000
26.22500 588.000
26.24000 709.000
26.25500 832.000
26.27000 1003.000
26.28500 1131.000
26.30000 1141.000
26.31500 1162.000
26.33000 1058.000
26.34500 935.000
26.36000 789.000
26.37500 737.000
26.39000 643.000
26.40500 568.000
26.42000 551.000
26.43500 560.000
26.45000 575.000
26.46500 643.000
26.48000 734.000
26.49500 829.000
26.51000 927.000
26.52500 929.000
26.54000 957.000
26.55500 1073.000
26.57000 1166.000
26.58500 1286.000
26.60000 1387.000
26.61500 1237.000
26.63000 953.000
26.64500 745.000
26.66000 536.000
26.67500 428.000
26.69000 379.000
26.70500 379.000
26.72000 335.000
26.73500 325.000
26.75000 341.000
26.76500 305.000
26.78000 288.000
26.79500 279.000
26.81000 294.000
26.82500 299.000
26.84000 282.000
26.85500 281.000
26.87000 274.000
26.88500 288.000
26.90000 302.000
26.91500 303.000
26.93000 317.000
26.94500 315.000
26.96000 313.000
26.97500 316.000
26.99000 347.000
27.00500 356.000
27.02000 346.000
27.03500 351.000
27.05000 326.000
27.06500 309.000
27.08000 289.000
27.09500 329.000
27.11000 325.000
27.12500 287.000
27.14000 253.000
27.15500 277.000
27.17000 277.000
27.18500 272.000
27.20000 281.000
27.21500 258.000
27.23000 239.000
27.24500 266.000
27.26000 272.000
27.27500 264.000
27.29000 274.000
27.30500 285.000
27.32000 292.000
27.33500 278.000
27.35000 283.000
27.36500 260.000
27.38000 286.000
27.39500 303.000
27.41000 292.000
27.42500 305.000
27.44000 329.000
27.45500 339.000
27.47000 407.000
27.48500 445.000
27.50000 485.000
27.51500 584.000
27.53000 654.000
27.54500 810.000
27.56000 999.000
27.57500 1248.000
27.59000 1319.000
27.60500 1299.000
27.62000 1173.000
27.63500 960.000
27.65000 762.000
27.66500 687.000
27.68000 687.000
27.69500 748.000
27.71000 854.000
27.72500 960.000
27.74000 1114.000
27.75500 1319.000
27.77000 1435.000
27.78500 1654.000
27.80000 1783.000
27.81500 1870.000
27.83000 1710.000
27.84500 1519.000
27.86000 1220.000
27.87500 943.000
27.89000 726.000
27.90500 584.000
27.92000 514.000
27.93500 415.000
27.95000 372.000
27.96500 356.000
27.98000 322.000
27.99500 299.000
28.01000 298.000
28.02500 272.000
28.04000 283.000
28.05500 269.000
28.07000 254.000
28.08500 247.000
28.10000 242.000
28.11500 249.000
28.13000 247.000
28.14500 240.000
28.16000 252.000
28.17500 249.000
28.19000 242.000
28.20500 249.000
28.22000 261.000
28.23500 253.000
28.25000 279.000
28.26500 279.000
28.28000 297.000
28.29500 307.000
28.31000 341.000
28.32500 348.000
28.34000 399.000
28.35500 424.000
28.37000 430.000
28.38500 410.000
28.40000 389.000
28.41500 342.000
28.43000 308.000
28.44500 277.000
28.46000 280.000
28.47500 257.000
28.49000 265.000
28.50500 241.000
28.52000 223.000
28.53500 254.000
28.55000 232.000
28.56500 241.000
28.58000 255.000
28.59500 265.000
28.61000 293.000
28.62500 294.000
28.64000 282.000
28.65500 244.000
28.67000 220.000
28.68500 222.000
28.70000 225.000
28.71500 223.000
28.73000 234.000
28.74500 223.000
28.76000 230.000
28.77500 239.000
28.79000 239.000
28.80500 235.000
28.82000 226.000
28.83500 251.000
28.85000 230.000
28.86500 249.000
28.88000 260.000
28.89500 250.000
28.91000 247.000
28.92500 250.000
28.94000 268.000
28.95500 261.000
28.97000 256.000
28.98500 261.000
29.00000 260.000
29.01500 263.000
29.03000 247.000
29.04500 258.000
29.06000 248.000
29.07500 260.000
29.09000 277.000
29.10500 272.000
29.12000 249.000
29.13500 237.000
29.15000 250.000
29.16500 257.000
29.18000 241.000
29.19500 237.000
29.21000 266.000
29.22500 268.000
29.24000 261.000
29.25500 255.000
29.27000 262.000
29.28500 264.000
29.30000 259.000
29.31500 239.000
29.33000 227.000
29.34500 236.000
29.36000 271.000
29.37500 266.000
29.39000 246.000
29.40500 239.000
29.42000 236.000
29.43500 252.000
29.45000 233.000
29.46500 220.000
29.48000 253.000
29.49500 248.000
29.51000 298.000
29.52500 302.000
29.54000 314.000
29.55500 316.000
29.57000 314.000
29.58500 348.000
29.60000 309.000
29.61500 341.000
29.63000 312.000
29.64500 344.000
29.66000 339.000
29.67500 304.000
29.69000 257.000
29.70500 233.000
29.72000 236.000
29.73500 253.000
29.75000 222.000
29.76500 217.000
29.78000 229.000
29.79500 248.000
29.81000 277.000
29.82500 270.000
29.84000 299.000
29.85500 353.000
29.87000 342.000
29.88500 346.000
29.90000 314.000
29.91500 301.000
29.93000 318.000
29.94500 329.000
29.96000 350.000
29.97500 356.000
29.99000 374.000
30.00500 362.000
30.02000 377.000
30.03500 383.000
30.05000 351.000
30.06500 344.000
30.08000 354.000
30.09500 335.000
30.11000 318.000
30.12500 329.000
30.14000 297.000
30.15500 311.000
30.17000 275.000
30.18500 224.000
30.20000 251.000
30.21500 251.000
30.23000 228.000
30.24500 242.000
30.26000 246.000
30.27500 245.000
30.29000 235.000
30.30500 242.000
30.32000 288.000
30.33500 327.000
30.35000 397.000
30.36500 422.000
30.38000 506.000
30.39500 593.000
30.41000 772.000
30.42500 907.000
30.44000 978.000
30.45500 979.000
30.47000 911.000
30.48500 702.000
30.50000 537.000
30.51500 452.000
30.53000 418.000
30.54500 367.000
30.56000 317.000
30.57500 277.000
30.59000 273.000
30.60500 251.000
30.62000 243.000
30.63500 224.000
30.65000 209.000
30.66500 239.000
30.68000 270.000
30.69500 240.000
30.71000 265.000
30.72500 310.000
30.74000 310.000
30.75500 317.000
30.77000 352.000
30.78500 376.000
30.80000 380.000
30.81500 407.000
30.83000 402.000
30.84500 366.000
30.86000 331.000
30.87500 310.000
30.89000 284.000
30.90500 274.000
30.92000 277.000
30.93500 285.000
30.95000 289.000
30.96500 296.000
30.98000 286.000
30.99500 254.000
31.01000 242.000
31.02500 210.000
31.04000 197.000
31.05500 189.000
31.07000 197.000
31.08500 182.000
31.10000 185.000
31.11500 200.000
31.13000 181.000
31.14500 173.000
31.16000 167.000
31.17500 180.000
31.19000 193.000
31.20500 184.000
31.22000 180.000
31.23500 173.000
31.25000 166.000
31.26500 187.000
31.28000 185.000
31.29500 205.000
31.31000 189.000
31.32500 172.000
31.34000 171.000
31.35500 183.000
31.37000 173.000
31.38500 196.000
31.40000 178.000
31.41500 180.000
31.43000 193.000
31.44500 188.000
31.46000 206.000
31.47500 212.000
31.49000 233.000
31.50500 242.000
31.52000 260.000
31.53500 238.000
31.55000 242.000
31.56500 275.000
31.58000 335.000
31.59500 390.000
31.61000 424.000
31.62500 443.000
31.64000 379.000
31.65500 403.000
31.67000 363.000
31.68500 320.000
31.70000 308.000
31.71500 266.000
31.73000 258.000
31.74500 247.000
31.76000 245.000
31.77500 219.000
31.79000 191.000
31.80500 191.000
31.82000 228.000
31.83500 204.000
31.85000 194.000
31.86500 181.000
31.88000 167.000
31.89500 182.000
31.91000 195.000
31.92500 185.000
31.94000 194.000
31.95500 205.000
31.97000 221.000
31.98500 245.000
32.00000 273.000
32.01500 307.000
32.03000 315.000
32.04500 313.000
32.06000 303.000
32.07500 268.000
32.09000 253.000
32.10500 248.000
32.12000 221.000
32.13500 227.000
32.15000 199.000
32.16500 178.000
32.18000 172.000
32.19500 172.000
32.21000 168.000
32.22500 173.000
32.24000 192.000
32.25500 186.000
32.27000 179.000
32.28500 196.000
32.30000 189.000
32.31500 174.000
32.33000 197.000
32.34500 183.000
32.36000 210.000
32.37500 200.000
32.39000 190.000
32.40500 215.000
32.42000 188.000
32.43500 168.000
32.45000 198.000
32.46500 190.000
32.48000 181.000
32.49500 203.000
32.51000 198.000
32.52500 172.000
32.54000 158.000
32.55500 159.000
32.57000 174.000
32.58500 177.000
32.60000 197.000
32.61500 183.000
32.63000 208.000
32.64500 219.000
32.66000 259.000
32.67500 250.000
32.69000 247.000
32.70500 212.000
32.72000 180.000
32.73500 178.000
32.75000 166.000
32.76500 152.000
32.78000 151.000
32.79500 158.000
32.81000 149.000
32.82500 156.000
32.84000 159.000
32.85500 150.000
32.87000 153.000
32.88500 150.000
32.90000 171.000
32.91500 131.000
32.93000 143.000
32.94500 143.000
32.96000 147.000
32.97500 161.000
32.99000 163.000
33.00500 158.000
33.02000 164.000
33.03500 174.000
33.05000 166.000
33.06500 206.000
33.08000 229.000
33.09500 239.000
33.11000 224.000
33.12500 199.000
33.14000 201.000
33.15500 199.000
33.17000 175.000
33.18500 174.000
33.20000 182.000
33.21500 194.000
33.23000 189.000
33.24500 171.000
33.26000 175.000
33.27500 167.000
33.29000 173.000
33.30500 186.000
33.32000 166.000
33.33500 178.000
33.35000 169.000
33.36500 167.000
33.38000 162.000
33.39500 187.000
33.41000 166.000
33.42500 169.000
33.44000 161.000
33.45500 159.000
33.47000 144.000
33.48500 153.000
33.50000 176.000
33.51500 154.000
33.53000 164.000
33.54500 163.000
33.56000 150.000
33.57500 164.000
33.59000 183.000
33.60500 200.000
33.62000 182.000
33.63500 204.000
33.65000 241.000
33.66500 231.000
33.68000 266.000
33.69500 284.000
33.71000 332.000
33.72500 358.000
33.74000 370.000
33.75500 363.000
33.77000 313.000
33.78500 272.000
33.80000 229.000
33.81500 213.000
33.83000 193.000
33.84500 214.000
33.86000 219.000
33.87500 211.000
33.89000 223.000
33.90500 242.000
33.92000 245.000
33.93500 262.000
33.95000 271.000
33.96500 273.000
33.98000 298.000
33.99500 314.000
34.01000 290.000
34.02500 235.000
34.04000 209.000
34.05500 189.000
34.07000 164.000
34.08500 143.000
34.10000 160.000
34.11500 142.000
34.13000 158.000
34.14500 141.000
34.16000 148.000
34.17500 162.000
34.19000 147.000
34.20500 128.000
34.22000 162.000
34.23500 135.000
34.25000 144.000
34.26500 155.000
34.28000 155.000
34.29500 148.000
34.31000 155.000
34.32500 146.000
34.34000 149.000
34.35500 162.000
34.37000 157.000
34.38500 150.000
34.40000 171.000
34.41500 173.000
34.43000 169.000
34.44500 159.000
34.46000 169.000
34.47500 167.000
34.49000 155.000
34.50500 148.000
34.52000 168.000
34.53500 176.000
34.55000 162.000
34.56500 161.000
34.58000 140.000
34.59500 157.000
34.61000 186.000
34.62500 162.000
34.64000 155.000
34.65500 140.000
34.67000 138.000
34.68500 134.000
34.70000 146.000
34.71500 148.000
34.73000 137.000
34.74500 136.000
34.76000 140.000
34.77500 139.000
34.79000 141.000
34.80500 152.000
34.82000 150.000
34.83500 149.000
34.85000 153.000
34.86500 136.000
34.88000 144.000
34.89500 163.000
34.91000 164.000
34.92500 172.000
34.94000 174.000
34.95500 210.000
34.97000 187.000
34.98500 205.000
35.00000 189.000
35.01500 217.000
35.03000 150.000
35.04500 153.000
35.06000 158.000
35.07500 150.000
35.09000 147.000
35.10500 135.000
35.12000 147.000
35.13500 131.000
35.15000 143.000
35.16500 124.000
35.18000 145.000
35.19500 132.000
35.21000 138.000
35.22500 160.000
35.24000 151.000
35.25500 161.000
35.27000 143.000
35.28500 160.000
35.30000 162.000
35.31500 186.000
35.33000 193.000
35.34500 205.000
35.36000 186.000
35.37500 173.000
35.39000 173.000
35.40500 151.000
35.42000 143.000
35.43500 135.000
35.45000 140.000
35.46500 129.000
35.48000 130.000
35.49500 130.000
35.51000 137.000
35.52500 149.000
35.54000 157.000
35.55500 129.000
35.57000 148.000
35.58500 128.000
35.60000 141.000
35.61500 146.000
35.63000 124.000
35.64500 126.000
35.66000 142.000
35.67500 146.000
35.69000 152.000
35.70500 143.000
35.72000 175.000
35.73500 185.000
35.75000 188.000
35.76500 209.000
35.78000 252.000
35.79500 283.000
35.81000 374.000
35.82500 355.000
35.84000 324.000
35.85500 247.000
35.87000 177.000
35.88500 152.000
35.90000 163.000
35.91500 161.000
35.93000 156.000
35.94500 147.000
35.96000 129.000
35.97500 132.000
35.99000 136.000
36.00500 135.000
36.02000 116.000
36.03500 125.000
36.05000 120.000
36.06500 119.000
36.08000 115.000
36.09500 125.000
36.11000 121.000
36.12500 137.000
36.14000 116.000
36.15500 119.000
36.17000 118.000
36.18500 134.000
36.20000 113.000
36.21500 101.000
36.23000 113.000
36.24500 113.000
36.26000 125.000
36.27500 132.000
36.29000 127.000
36.30500 112.000
36.32000 119.000
36.33500 128.000
36.35000 112.000
36.36500 130.000
36.38000 122.000
36.39500 133.000
36.41000 116.000
36.42500 127.000
36.44000 138.000
36.45500 162.000
36.47000 173.000
36.48500 158.000
36.50000 170.000
36.51500 143.000
36.53000 116.000
36.54500 132.000
36.56000 127.000
36.57500 115.000
36.59000 100.000
36.60500 100.000
36.62000 140.000
36.63500 126.000
36.65000 132.000
36.66500 119.000
36.68000 120.000
36.69500 141.000
36.71000 140.000
36.72500 128.000
36.74000 129.000
36.75500 117.000
36.77000 136.000
36.78500 114.000
36.80000 114.000
36.81500 122.000
36.83000 128.000
36.84500 128.000
36.86000 117.000
36.87500 105.000
36.89000 109.000
36.90500 125.000
36.92000 121.000
36.93500 125.000
36.95000 126.000
36.96500 122.000
36.98000 122.000
36.99500 119.000
37.01000 113.000
37.02500 130.000
37.04000 133.000
37.05500 123.000
37.07000 129.000
37.08500 121.000
37.10000 126.000
37.11500 135.000
37.13000 147.000
37.14500 130.000
37.16000 108.000
37.17500 112.000
37.19000 107.000
37.20500 117.000
37.22000 115.000
37.23500 114.000
37.25000 115.000
37.26500 114.000
37.28000 116.000
37.29500 117.000
37.31000 119.000
37.32500 127.000
37.34000 109.000
37.35500 113.000
37.37000 109.000
37.38500 109.000
37.40000 125.000
37.41500 108.000
37.43000 109.000
37.44500 119.000
37.46000 117.000
37.47500 134.000
37.49000 120.000
37.50500 140.000
37.52000 131.000
37.53500 122.000
37.55000 146.000
37.56500 152.000
37.58000 150.000
37.59500 149.000
37.61000 158.000
37.62500 143.000
37.64000 132.000
37.65500 107.000
37.67000 109.000
37.68500 98.000
37.70000 81.000
37.71500 109.000
37.73000 119.000
37.74500 99.000
37.76000 112.000
37.77500 127.000
37.79000 116.000
37.80500 106.000
37.82000 92.000
37.83500 105.000
37.85000 110.000
37.86500 117.000
37.88000 121.000
37.89500 112.000
37.91000 112.000
37.92500 108.000
37.94000 114.000
37.95500 115.000
37.97000 116.000
37.98500 105.000
38.00000 107.000
38.01500 127.000
38.03000 123.000
38.04500 127.000
38.06000 132.000
38.07500 116.000
38.09000 119.000
38.10500 129.000
38.12000 128.000
38.13500 117.000
38.15000 106.000
38.16500 130.000
38.18000 113.000
38.19500 107.000
38.21000 122.000
38.22500 120.000
38.24000 119.000
38.25500 128.000
38.27000 129.000
38.28500 129.000
38.30000 124.000
38.31500 136.000
38.33000 130.000
38.34500 101.000
38.36000 105.000
38.37500 132.000
38.39000 110.000
38.40500 100.000
38.42000 113.000
38.43500 108.000
38.45000 106.000
38.46500 115.000
38.48000 128.000
38.49500 119.000
38.51000 126.000
38.52500 121.000
38.54000 112.000
38.55500 135.000
38.57000 147.000
38.58500 139.000
38.60000 144.000
38.61500 135.000
38.63000 134.000
38.64500 110.000
38.66000 122.000
38.67500 143.000
38.69000 134.000
38.70500 135.000
38.72000 171.000
38.73500 154.000
38.75000 176.000
38.76500 225.000
38.78000 269.000
38.79500 302.000
38.81000 309.000
38.82500 287.000
38.84000 272.000
38.85500 226.000
38.87000 177.000
38.88500 164.000
38.90000 148.000
38.91500 137.000
38.93000 128.000
38.94500 112.000
38.96000 126.000
38.97500 136.000
38.99000 136.000
39.00500 159.000
39.02000 161.000
39.03500 151.000
39.05000 158.000
39.06500 147.000
39.08000 158.000
39.09500 162.000
39.11000 163.000
39.12500 155.000
39.14000 133.000
39.15500 125.000
39.17000 115.000
39.18500 129.000
39.20000 103.000
39.21500 97.000
39.23000 102.000
39.24500 98.000
39.26000 112.000
39.27500 102.000
39.29000 95.000
39.30500 92.000
39.32000 109.000
39.33500 111.000
39.35000 117.000
39.36500 105.000
39.38000 118.000
39.39500 121.000
39.41000 113.000
39.42500 123.000
39.44000 128.000
39.45500 122.000
39.47000 121.000
39.48500 98.000
39.50000 111.000
39.51500 97.000
39.53000 114.000
39.54500 129.000
39.56000 108.000
39.57500 108.000
39.59000 103.000
39.60500 109.000
39.62000 98.000
39.63500 92.000
39.65000 104.000
39.66500 103.000
39.68000 106.000
39.69500 114.000
39.71000 110.000
39.72500 102.000
39.74000 93.000
39.75500 80.000
39.77000 103.000
39.78500 116.000
39.80000 107.000
39.81500 112.000
39.83000 100.000
39.84500 126.000
39.86000 133.000
39.87500 128.000
39.89000 129.000
39.90500 120.000
39.92000 131.000
39.93500 111.000
39.95000 105.000
39.96500 105.000
39.98000 110.000
39.99500 125.000
40.01000 104.000
40.02500 109.000
40.04000 115.000
40.05500 99.000
40.07000 90.000
40.08500 104.000
40.10000 111.000
40.11500 95.000
40.13000 106.000
40.14500 95.000
40.16000 109.000
40.17500 107.000
40.19000 110.000
40.20500 112.000
40.22000 108.000
40.23500 105.000
40.25000 111.000
40.26500 119.000
40.28000 112.000
40.29500 119.000
40.31000 126.000
40.32500 125.000
40.34000 115.000
40.35500 135.000
40.37000 136.000
40.38500 146.000
40.40000 136.000
40.41500 137.000
40.43000 144.000
40.44500 117.000
40.46000 125.000
40.47500 147.000
40.49000 157.000
40.50500 165.000
40.52000 158.000
40.53500 160.000
40.55000 161.000
40.56500 161.000
40.58000 155.000
40.59500 157.000
40.61000 134.000
40.62500 123.000
40.64000 113.000
40.65500 114.000
40.67000 136.000
40.68500 109.000
40.70000 114.000
40.71500 115.000
40.73000 137.000
40.74500 148.000
40.76000 151.000
40.77500 184.000
40.79000 206.000
40.80500 222.000
40.82000 257.000
40.83500 245.000
40.85000 237.000
40.86500 194.000
40.88000 168.000
40.89500 144.000
40.91000 128.000
40.92500 142.000
40.94000 145.000
40.95500 148.000
40.97000 141.000
40.98500 142.000
41.00000 144.000
41.01500 149.000
41.03000 137.000
41.04500 113.000
41.06000 112.000
41.07500 133.000
41.09000 129.000
41.10500 133.000
41.12000 132.000
41.13500 133.000
41.15000 122.000
41.16500 113.000
41.18000 128.000
41.19500 131.000
41.21000 133.000
41.22500 127.000
41.24000 141.000
41.25500 142.000
41.27000 133.000
41.28500 144.000
41.30000 155.000
41.31500 117.000
41.33000 129.000
41.34500 126.000
41.36000 114.000
41.37500 119.000
41.39000 115.000
41.40500 109.000
41.42000 105.000
41.43500 103.000
41.45000 104.000
41.46500 97.000
41.48000 96.000
41.49500 103.000
41.51000 101.000
41.52500 113.000
41.54000 122.000
41.55500 108.000
41.57000 96.000
41.58500 105.000
41.60000 99.000
41.61500 102.000
41.63000 100.000
41.64500 105.000
41.66000 109.000
41.67500 108.000
41.69000 124.000
41.70500 115.000
41.72000 97.000
41.73500 106.000
41.75000 87.000
41.76500 90.000
41.78000 106.000
41.79500 110.000
41.81000 117.000
41.82500 114.000
41.84000 115.000
41.85500 109.000
41.87000 123.000
41.88500 130.000
41.90000 122.000
41.91500 116.000
41.93000 122.000
41.94500 119.000
41.96000 110.000
41.97500 120.000
41.99000 118.000
42.00500 111.000
42.02000 109.000
42.03500 110.000
42.05000 118.000
42.06500 123.000
42.08000 120.000
42.09500 126.000
42.11000 123.000
42.12500 118.000
42.14000 115.000
42.15500 128.000
42.17000 140.000
42.18500 136.000
42.20000 144.000
42.21500 148.000
42.23000 148.000
42.24500 141.000
42.26000 149.000
42.27500 141.000
42.29000 155.000
42.30500 149.000
42.32000 149.000
42.33500 139.000
42.35000 127.000
42.36500 121.000
42.38000 117.000
42.39500 118.000
42.41000 118.000
42.42500 98.000
42.44000 104.000
42.45500 107.000
42.47000 89.000
42.48500 109.000
42.50000 93.000
42.51500 94.000
42.53000 113.000
42.54500 117.000
42.56000 106.000
42.57500 98.000
42.59000 104.000
42.60500 142.000
42.62000 126.000
42.63500 98.000
42.65000 110.000
42.66500 113.000
42.68000 98.000
42.69500 111.000
42.71000 118.000
42.72500 123.000
42.74000 129.000
42.75500 117.000
42.77000 118.000
42.78500 115.000
42.80000 120.000
42.81500 123.000
42.83000 120.000
42.84500 110.000
42.86000 110.000
42.87500 103.000
42.89000 103.000
42.90500 114.000
42.92000 106.000
42.93500 106.000
42.95000 106.000
42.96500 94.000
42.98000 99.000
42.99500 115.000
43.01000 118.000
43.02500 116.000
43.04000 119.000
43.05500 125.000
43.07000 95.000
43.08500 105.000
43.10000 111.000
43.11500 118.000
43.13000 115.000
43.14500 122.000
43.16000 125.000
43.17500 133.000
43.19000 128.000
43.20500 120.000
43.22000 112.000
43.23500 119.000
43.25000 111.000
43.26500 113.000
43.28000 137.000
43.29500 124.000
43.31000 117.000
43.32500 141.000
43.34000 143.000
43.35500 142.000
43.37000 117.000
43.38500 140.000
43.40000 139.000
43.41500 119.000
43.43000 111.000
43.44500 104.000
43.46000 97.000
43.47500 109.000
43.49000 120.000
43.50500 123.000
43.52000 103.000
43.53500 97.000
43.55000 104.000
43.56500 102.000
43.58000 95.000
43.59500 106.000
43.61000 100.000
43.62500 103.000
43.64000 103.000
43.65500 107.000
43.67000 101.000
43.68500 91.000
43.70000 100.000
43.71500 98.000
43.73000 89.000
43.74500 92.000
43.76000 95.000
43.77500 105.000
43.79000 108.000
43.80500 120.000
43.82000 95.000
43.83500 100.000
43.85000 120.000
43.86500 112.000
43.88000 93.000
43.89500 104.000
43.91000 124.000
43.92500 111.000
43.94000 97.000
43.95500 94.000
43.97000 108.000
43.98500 98.000
44.00000 110.000
44.01500 109.000
44.03000 113.000
44.04500 91.000
44.06000 92.000
44.07500 102.000
44.09000 119.000
44.10500 106.000
44.12000 118.000
44.13500 108.000
44.15000 121.000
44.16500 127.000
44.18000 117.000
44.19500 135.000
44.21000 131.000
44.22500 135.000
44.24000 143.000
44.25500 138.000
44.27000 168.000
44.28500 147.000
44.30000 152.000
44.31500 140.000
44.33000 130.000
44.34500 135.000
44.36000 117.000
44.37500 119.000
44.39000 114.000
44.40500 115.000
44.42000 126.000
44.43500 121.000
44.45000 110.000
44.46500 126.000
44.48000 107.000
44.49500 114.000
44.51000 120.000
44.52500 109.000
44.54000 116.000
44.55500 127.000
44.57000 136.000
44.58500 114.000
44.60000 130.000
44.61500 127.000
44.63000 147.000
44.64500 143.000
44.66000 160.000
44.67500 161.000
44.69000 166.000
44.70500 159.000
44.72000 157.000
44.73500 148.000
44.75000 125.000
44.76500 124.000
44.78000 130.000
44.79500 95.000
44.81000 117.000
44.82500 127.000
44.84000 125.000
44.85500 120.000
44.87000 119.000
44.88500 112.000
44.90000 124.000
44.91500 111.000
44.93000 100.000
44.94500 141.000
44.96000 126.000
44.97500 141.000
44.99000 156.000
45.00500 143.000
45.02000 138.000
45.03500 149.000
45.05000 140.000
45.06500 130.000
45.08000 122.000
45.09500 115.000
45.11000 108.000
45.12500 125.000
45.14000 116.000
45.15500 124.000
45.17000 101.000
45.18500 90.000
45.20000 109.000
45.21500 93.000
45.23000 110.000
45.24500 106.000
45.26000 97.000
45.27500 94.000
45.29000 95.000
45.30500 111.000
45.32000 112.000
45.33500 103.000
45.35000 101.000
45.36500 95.000
45.38000 103.000
45.39500 109.000
45.41000 124.000
45.42500 117.000
45.44000 122.000
45.45500 148.000
45.47000 138.000
45.48500 133.000
45.50000 121.000
45.51500 141.000
45.53000 129.000
45.54500 110.000
45.56000 117.000
45.57500 103.000
45.59000 103.000
45.60500 101.000
45.62000 106.000
45.63500 97.000
45.65000 85.000
45.66500 98.000
45.68000 88.000
45.69500 89.000
45.71000 83.000
45.72500 79.000
45.74000 86.000
45.75500 104.000
45.77000 95.000
45.78500 90.000
45.80000 100.000
45.81500 102.000
45.83000 111.000
45.84500 93.000
45.86000 115.000
45.87500 101.000
45.89000 106.000
45.90500 111.000
45.92000 86.000
45.93500 101.000
45.95000 96.000
45.96500 105.000
45.98000 102.000
45.99500 114.000
46.01000 99.000
46.02500 115.000
46.04000 110.000
46.05500 108.000
46.07000 99.000
46.08500 114.000
46.10000 119.000
46.11500 130.000
46.13000 120.000
46.14500 108.000
46.16000 101.000
46.17500 122.000
46.19000 122.000
46.20500 124.000
46.22000 153.000
46.23500 157.000
46.25000 163.000
46.26500 168.000
46.28000 157.000
46.29500 147.000
46.31000 148.000
46.32500 139.000
46.34000 133.000
46.35500 126.000
46.37000 119.000
46.38500 110.000
46.40000 107.000
46.41500 120.000
46.43000 114.000
46.44500 100.000
46.46000 120.000
46.47500 108.000
46.49000 107.000
46.50500 115.000
46.52000 110.000
46.53500 106.000
46.55000 98.000
46.56500 99.000
46.58000 112.000
46.59500 114.000
46.61000 118.000
46.62500 100.000
46.64000 106.000
46.65500 107.000
46.67000 103.000
46.68500 97.000
46.70000 97.000
46.71500 108.000
46.73000 118.000
46.74500 110.000
46.76000 109.000
46.77500 113.000
46.79000 117.000
46.80500 132.000
46.82000 147.000
46.83500 117.000
46.85000 136.000
46.86500 119.000
46.88000 127.000
46.89500 121.000
46.91000 117.000
46.92500 111.000
46.94000 131.000
46.95500 122.000
46.97000 138.000
46.98500 147.000
47.00000 150.000
47.01500 186.000
47.03000 224.000
47.04500 211.000
47.06000 169.000
47.07500 163.000
47.09000 160.000
47.10500 128.000
47.12000 111.000
47.13500 106.000
47.15000 121.000
47.16500 111.000
47.18000 122.000
47.19500 115.000
47.21000 119.000
47.22500 110.000
47.24000 102.000
47.25500 104.000
47.27000 99.000
47.28500 100.000
47.30000 112.000
47.31500 103.000
47.33000 97.000
47.34500 99.000
47.36000 106.000
47.37500 121.000
47.39000 116.000
47.40500 112.000
47.42000 115.000
47.43500 113.000
47.45000 100.000
47.46500 108.000
47.48000 108.000
47.49500 97.000
47.51000 107.000
47.52500 101.000
47.54000 97.000
47.55500 102.000
47.57000 115.000
47.58500 104.000
47.60000 79.000
47.61500 100.000
47.63000 111.000
47.64500 101.000
47.66000 99.000
47.67500 106.000
47.69000 124.000
47.70500 116.000
47.72000 136.000
47.73500 132.000
47.75000 128.000
47.76500 122.000
47.78000 111.000
47.79500 109.000
47.81000 89.000
47.82500 86.000
47.84000 107.000
47.85500 86.000
47.87000 96.000
47.88500 105.000
47.90000 123.000
47.91500 128.000
47.93000 131.000
47.94500 128.000
47.96000 135.000
47.97500 128.000
47.99000 112.000
48.00500 101.000
48.02000 107.000
48.03500 101.000
48.05000 86.000
48.06500 85.000
48.08000 85.000
48.09500 89.000
48.11000 82.000
48.12500 78.000
48.14000 97.000
48.15500 81.000
48.17000 84.000
48.18500 84.000
48.20000 92.000
48.21500 100.000
48.23000 76.000
48.24500 87.000
48.26000 81.000
48.27500 73.000
48.29000 80.000
48.30500 79.000
48.32000 80.000
48.33500 92.000
48.35000 106.000
48.36500 81.000
48.38000 96.000
48.39500 85.000
48.41000 99.000
48.42500 106.000
48.44000 114.000
48.45500 113.000
48.47000 120.000
48.48500 101.000
48.50000 107.000
48.51500 107.000
48.53000 94.000
48.54500 83.000
48.56000 81.000
48.57500 80.000
48.59000 89.000
48.60500 98.000
48.62000 99.000
48.63500 81.000
48.65000 87.000
48.66500 86.000
48.68000 75.000
48.69500 85.000
48.71000 85.000
48.72500 82.000
48.74000 88.000
48.75500 87.000
48.77000 84.000
48.78500 86.000
48.80000 93.000
48.81500 86.000
48.83000 77.000
48.84500 93.000
48.86000 103.000
48.87500 97.000
48.89000 95.000
48.90500 86.000
48.92000 81.000
48.93500 98.000
48.95000 99.000
48.96500 106.000
48.98000 107.000
48.99500 109.000
49.01000 115.000
49.02500 128.000
49.04000 131.000
49.05500 120.000
49.07000 125.000
49.08500 119.000
49.10000 128.000
49.11500 129.000
49.13000 121.000
49.14500 106.000
49.16000 104.000
49.17500 107.000
49.19000 97.000
49.20500 94.000
49.22000 117.000
49.23500 104.000
49.25000 105.000
49.26500 104.000
49.28000 111.000
49.29500 106.000
49.31000 109.000
49.32500 109.000
49.34000 111.000
49.35500 116.000
49.37000 108.000
49.38500 106.000
49.40000 104.000
49.41500 114.000
49.43000 92.000
49.44500 103.000
49.46000 115.000
49.47500 120.000
49.49000 120.000
49.50500 109.000
49.52000 110.000
49.53500 96.000
49.55000 106.000
49.56500 115.000
49.58000 111.000
49.59500 108.000
49.61000 110.000
49.62500 107.000
49.64000 107.000
49.65500 107.000
49.67000 103.000
49.68500 103.000
49.70000 107.000
49.71500 118.000
49.73000 109.000
49.74500 101.000
49.76000 99.000
49.77500 89.000
49.79000 105.000
49.80500 103.000
49.82000 117.000
49.83500 140.000
49.85000 128.000
49.86500 133.000
49.88000 101.000
49.89500 128.000
49.91000 128.000
49.92500 121.000
49.94000 112.000
49.95500 114.000
49.97000 116.000
49.98500 107.000
50.00000 114.000
50.01500 103.000
50.03000 118.000
50.04500 108.000
50.06000 112.000
50.07500 107.000
50.09000 119.000
50.10500 126.000
50.12000 116.000
50.13500 92.000
50.15000 105.000
50.16500 109.000
50.18000 121.000
50.19500 122.000
50.21000 98.000
50.22500 103.000
50.24000 106.000
50.25500 118.000
50.27000 110.000
50.28500 104.000
50.30000 119.000
50.31500 123.000
50.33000 114.000
50.34500 114.000
50.36000 124.000
50.37500 130.000
50.39000 138.000
50.40500 130.000
50.42000 134.000
50.43500 131.000
50.45000 116.000
50.46500 135.000
50.48000 128.000
50.49500 127.000
50.51000 118.000
50.52500 109.000
50.54000 112.000
50.55500 124.000
50.57000 106.000
50.58500 98.000
50.60000 106.000
50.61500 123.000
50.63000 127.000
50.64500 128.000
50.66000 136.000
50.67500 125.000
50.69000 114.000
50.70500 133.000
50.72000 132.000
50.73500 109.000
50.75000 86.000
50.76500 114.000
50.78000 115.000
50.79500 109.000
50.81000 100.000
50.82500 98.000
50.84000 93.000
50.85500 107.000
50.87000 93.000
50.88500 105.000
50.90000 97.000
50.91500 99.000
50.93000 98.000
50.94500 107.000
50.96000 98.000
50.97500 98.000
50.99000 106.000
51.00500 96.000
51.02000 98.000
51.03500 101.000
51.05000 96.000
51.06500 109.000
51.08000 103.000
51.09500 93.000
51.11000 104.000
51.12500 112.000
51.14000 100.000
51.15500 107.000
51.17000 113.000
51.18500 113.000
51.20000 116.000
51.21500 113.000
51.23000 117.000
51.24500 100.000
51.26000 99.000
51.27500 98.000
51.29000 101.000
51.30500 112.000
51.32000 112.000
51.33500 98.000
51.35000 107.000
51.36500 78.000
51.38000 93.000
51.39500 92.000
51.41000 94.000
51.42500 108.000
51.44000 112.000
51.45500 103.000
51.47000 101.000
51.48500 94.000
51.50000 103.000
51.51500 104.000
51.53000 96.000
51.54500 85.000
51.56000 91.000
51.57500 93.000
51.59000 99.000
51.60500 91.000
51.62000 86.000
51.63500 90.000
51.65000 114.000
51.66500 111.000
51.68000 105.000
51.69500 94.000
51.71000 103.000
51.72500 92.000
51.74000 93.000
51.75500 73.000
51.77000 86.000
51.78500 102.000
51.80000 86.000
51.81500 84.000
51.83000 94.000
51.84500 86.000
51.86000 88.000
51.87500 88.000
51.89000 100.000
51.90500 108.000
51.92000 109.000
51.93500 92.000
51.95000 82.000
51.96500 92.000
51.98000 106.000
51.99500 89.000
52.01000 115.000
52.02500 114.000
52.04000 98.000
52.05500 99.000
52.07000 95.000
52.08500 91.000
52.10000 104.000
52.11500 119.000
52.13000 111.000
52.14500 99.000
52.16000 99.000
52.17500 109.000
52.19000 118.000
52.20500 115.000
52.22000 109.000
52.23500 106.000
52.25000 123.000
52.26500 126.000
52.28000 131.000
52.29500 119.000
52.31000 125.000
52.32500 126.000
52.34000 106.000
52.35500 116.000
52.37000 114.000
52.38500 97.000
52.40000 97.000
52.41500 100.000
52.43000 107.000
52.44500 95.000
52.46000 90.000
52.47500 102.000
52.49000 81.000
52.50500 74.000
52.52000 88.000
52.53500 98.000
52.55000 87.000
52.56500 99.000
52.58000 84.000
52.59500 90.000
52.61000 97.000
52.62500 97.000
52.64000 96.000
52.65500 98.000
52.67000 93.000
52.68500 89.000
52.70000 91.000
52.71500 90.000
52.73000 107.000
52.74500 128.000
52.76000 117.000
52.77500 115.000
52.79000 121.000
52.80500 111.000
52.82000 118.000
52.83500 110.000
52.85000 110.000
52.86500 108.000
52.88000 100.000
52.89500 114.000
52.91000 111.000
52.92500 115.000
52.94000 126.000
52.95500 146.000
52.97000 141.000
52.98500 154.000
53.00000 141.000
53.01500 117.000
53.03000 127.000
53.04500 125.000
53.06000 135.000
53.07500 122.000
53.09000 113.000
53.10500 94.000
53.12000 114.000
53.13500 106.000
53.15000 112.000
53.16500 118.000
53.18000 106.000
53.19500 117.000
53.21000 119.000
53.22500 113.000
53.24000 125.000
53.25500 123.000
53.27000 119.000
53.28500 119.000
53.30000 122.000
53.31500 123.000
53.33000 127.000
53.34500 150.000
53.36000 138.000
53.37500 136.000
53.39000 152.000
53.40500 137.000
53.42000 132.000
53.43500 144.000
53.45000 130.000
53.46500 134.000
53.48000 126.000
53.49500 127.000
53.51000 118.000
53.52500 127.000
53.54000 123.000
53.55500 101.000
53.57000 102.000
53.58500 115.000
53.60000 116.000
53.61500 108.000
53.63000 98.000
53.64500 96.000
53.66000 97.000
53.67500 95.000
53.69000 95.000
53.70500 101.000
53.72000 98.000
53.73500 108.000
53.75000 100.000
53.76500 81.000
53.78000 103.000
53.79500 102.000
53.81000 91.000
53.82500 90.000
53.84000 88.000
53.85500 88.000
53.87000 107.000
53.88500 112.000
53.90000 122.000
53.91500 125.000
53.93000 138.000
53.94500 146.000
53.96000 152.000
53.97500 162.000
53.99000 141.000
54.00500 143.000
54.02000 139.000
54.03500 134.000
54.05000 133.000
54.06500 123.000
54.08000 124.000
54.09500 119.000
54.11000 110.000
54.12500 136.000
54.14000 153.000
54.15500 162.000
54.17000 150.000
54.18500 155.000
54.20000 153.000
54.21500 127.000
54.23000 136.000
54.24500 129.000
54.26000 119.000
54.27500 107.000
54.29000 102.000
54.30500 104.000
54.32000 98.000
54.33500 97.000
54.35000 103.000
54.36500 88.000
54.38000 99.000
54.39500 84.000
54.41000 82.000
54.42500 89.000
54.44000 109.000
54.45500 101.000
54.47000 96.000
54.48500 90.000
54.50000 113.000
54.51500 108.000
54.53000 111.000
54.54500 114.000
54.56000 109.000
54.57500 123.000
54.59000 106.000
54.60500 109.000
54.62000 104.000
54.63500 125.000
54.65000 118.000
54.66500 124.000
54.68000 132.000
54.69500 130.000
54.71000 138.000
54.72500 147.000
54.74000 131.000
54.75500 146.000
54.77000 139.000
54.78500 149.000
54.80000 164.000
54.81500 154.000
54.83000 135.000
54.84500 143.000
54.86000 162.000
54.87500 136.000
54.89000 122.000
54.90500 130.000
54.92000 120.000
54.93500 143.000
54.95000 140.000
54.96500 140.000
54.98000 141.000
54.99500 128.000
55.01000 137.000
55.02500 133.000
55.04000 139.000
55.05500 128.000
55.07000 113.000
55.08500 125.000
55.10000 131.000
55.11500 130.000
55.13000 128.000
55.14500 120.000
55.16000 117.000
55.17500 111.000
55.19000 96.000
55.20500 99.000
55.22000 94.000
55.23500 87.000
55.25000 98.000
55.26500 100.000
55.28000 96.000
55.29500 107.000
55.31000 111.000
55.32500 98.000
55.34000 108.000
55.35500 105.000
55.37000 107.000
55.38500 104.000
55.40000 105.000
55.41500 99.000
55.43000 83.000
55.44500 94.000
55.46000 100.000
55.47500 103.000
55.49000 93.000
55.50500 99.000
55.52000 108.000
55.53500 100.000
55.55000 89.000
55.56500 90.000
55.58000 87.000
55.59500 93.000
55.61000 99.000
55.62500 101.000
55.64000 101.000
55.65500 106.000
55.67000 119.000
55.68500 131.000
55.70000 134.000
55.71500 117.000
55.73000 140.000
55.74500 154.000
55.76000 132.000
55.77500 129.000
55.79000 121.000
55.80500 87.000
55.82000 88.000
55.83500 90.000
55.85000 84.000
55.86500 79.000
55.88000 73.000
55.89500 94.000
55.91000 86.000
55.92500 76.000
55.94000 79.000
55.95500 83.000
55.97000 80.000
55.98500 97.000
56.00000 92.000
56.01500 91.000
56.03000 80.000
56.04500 83.000
56.06000 85.000
56.07500 81.000
56.09000 87.000
56.10500 77.000
56.12000 85.000
56.13500 94.000
56.15000 99.000
56.16500 96.000
56.18000 90.000
56.19500 104.000
56.21000 92.000
56.22500 93.000
56.24000 99.000
56.25500 83.000
56.27000 78.000
56.28500 82.000
56.30000 89.000
56.31500 84.000
56.33000 82.000
56.34500 81.000
56.36000 80.000
56.37500 72.000
56.39000 78.000
56.40500 65.000
56.42000 73.000
56.43500 83.000
56.45000 83.000
56.46500 97.000
56.48000 97.000
56.49500 97.000
56.51000 87.000
56.52500 95.000
56.54000 98.000
56.55500 84.000
56.57000 90.000
56.58500 90.000
56.60000 96.000
56.61500 99.000
56.63000 105.000
56.64500 99.000
56.66000 95.000
56.67500 105.000
56.69000 111.000
56.70500 117.000
56.72000 115.000
56.73500 102.000
56.75000 105.000
56.76500 114.000
56.78000 104.000
56.79500 92.000
56.81000 116.000
56.82500 105.000
56.84000 100.000
56.85500 114.000
56.87000 91.000
56.88500 87.000
56.90000 91.000
56.91500 92.000
56.93000 103.000
56.94500 97.000
56.96000 87.000
56.97500 87.000
56.99000 84.000
57.00500 85.000
57.02000 79.000
57.03500 82.000
57.05000 73.000
57.06500 77.000
57.08000 90.000
57.09500 107.000
57.11000 92.000
57.12500 81.000
57.14000 82.000
57.15500 84.000
57.17000 86.000
57.18500 92.000
57.20000 82.000
57.21500 94.000
57.23000 95.000
57.24500 94.000
57.26000 89.000
57.27500 105.000
57.29000 90.000
57.30500 97.000
57.32000 78.000
57.33500 93.000
57.35000 78.000
57.36500 80.000
57.38000 96.000
57.39500 102.000
57.41000 97.000
57.42500 113.000
57.44000 113.000
57.45500 103.000
57.47000 110.000
57.48500 112.000
57.50000 102.000
57.51500 103.000
57.53000 104.000
57.54500 100.000
57.56000 95.000
57.57500 83.000
57.59000 90.000
57.60500 97.000
57.62000 82.000
57.63500 80.000
57.65000 82.000
57.66500 80.000
57.68000 95.000
57.69500 77.000
57.71000 77.000
57.72500 93.000
57.74000 84.000
57.75500 81.000
57.77000 79.000
57.78500 89.000
57.80000 93.000
57.81500 84.000
57.83000 84.000
57.84500 99.000
57.86000 85.000
57.87500 97.000
57.89000 92.000
57.90500 80.000
57.92000 87.000
57.93500 87.000
57.95000 69.000
57.96500 86.000
57.98000 86.000
57.99500 82.000
58.01000 88.000
58.02500 81.000
58.04000 78.000
58.05500 78.000
58.07000 75.000
58.08500 81.000
58.10000 88.000
58.11500 79.000
58.13000 78.000
58.14500 78.000
58.16000 88.000
58.17500 82.000
58.19000 88.000
58.20500 81.000
58.22000 89.000
58.23500 91.000
58.25000 100.000
58.26500 99.000
58.28000 95.000
58.29500 82.000
58.31000 96.000
58.32500 93.000
58.34000 90.000
58.35500 97.000
58.37000 90.000
58.38500 94.000
58.40000 97.000
58.41500 92.000
58.43000 108.000
58.44500 112.000
58.46000 126.000
58.47500 115.000
58.49000 98.000
58.50500 99.000
58.52000 105.000
58.53500 106.000
58.55000 106.000
58.56500 106.000
58.58000 108.000
58.59500 109.000
58.61000 113.000
58.62500 111.000
58.64000 116.000
58.65500 119.000
58.67000 117.000
58.68500 102.000
58.70000 92.000
58.71500 93.000
58.73000 84.000
58.74500 89.000
58.76000 75.000
58.77500 94.000
58.79000 84.000
58.80500 77.000
58.82000 83.000
58.83500 83.000
58.85000 79.000
58.86500 82.000
58.88000 75.000
58.89500 77.000
58.91000 81.000
58.92500 84.000
58.94000 69.000
58.95500 83.000
58.97000 90.000
58.98500 92.000
59.00000 83.000
59.01500 94.000
59.03000 94.000
59.04500 88.000
59.06000 86.000
59.07500 95.000
59.09000 88.000
59.10500 88.000
59.12000 75.000
59.13500 81.000
59.15000 91.000
59.16500 95.000
59.18000 94.000
59.19500 105.000
59.21000 105.000
59.22500 75.000
59.24000 80.000
59.25500 90.000
59.27000 92.000
59.28500 98.000
59.30000 94.000
59.31500 103.000
59.33000 84.000
59.34500 87.000
59.36000 112.000
59.37500 94.000
59.39000 84.000
59.40500 96.000
59.42000 98.000
59.43500 87.000
59.45000 84.000
59.46500 85.000
59.48000 91.000
59.49500 105.000
59.51000 91.000
59.52500 76.000
59.54000 81.000
59.55500 89.000
59.57000 96.000
59.58500 99.000
59.60000 77.000
59.61500 72.000
59.63000 78.000
59.64500 81.000
59.66000 90.000
59.67500 94.000
59.69000 89.000
59.70500 74.000
59.72000 67.000
59.73500 85.000
59.75000 91.000
59.76500 84.000
59.78000 94.000
59.79500 83.000
59.81000 88.000
59.82500 90.000
59.84000 90.000
59.85500 93.000
59.87000 103.000
59.88500 96.000
59.90000 121.000
59.91500 106.000
59.93000 90.000
59.94500 100.000
59.96000 100.000
59.97500 112.000
59.99000 105.000
60.00500 87.000
60.02000 90.000
60.03500 97.000
60.05000 88.000
60.06500 81.000
60.08000 88.000
60.09500 89.000
60.11000 86.000
60.12500 77.000
60.14000 98.000
60.15500 96.000
60.17000 91.000
60.18500 93.000
60.20000 96.000
60.21500 72.000
60.23000 95.000
60.24500 111.000
60.26000 110.000
60.27500 119.000
60.29000 112.000
60.30500 102.000
60.32000 85.000
60.33500 70.000
60.35000 78.000
60.36500 92.000
60.38000 95.000
60.39500 91.000
60.41000 110.000
60.42500 100.000
60.44000 95.000
60.45500 117.000
60.47000 91.000
60.48500 93.000
60.50000 121.000
60.51500 108.000
60.53000 99.000
60.54500 95.000
60.56000 87.000
60.57500 80.000
60.59000 96.000
60.60500 74.000
60.62000 72.000
60.63500 84.000
60.65000 86.000
60.66500 62.000
60.68000 71.000
60.69500 92.000
60.71000 81.000
60.72500 75.000
60.74000 94.000
60.75500 80.000
60.77000 72.000
60.78500 83.000
60.80000 73.000
60.81500 73.000
60.83000 79.000
60.84500 78.000
60.86000 75.000
60.87500 75.000
60.89000 80.000
60.90500 76.000
60.92000 69.000
60.93500 75.000
60.95000 70.000
60.96500 80.000
60.98000 63.000
60.99500 80.000
61.01000 86.000
61.02500 81.000
61.04000 84.000
61.05500 71.000
61.07000 77.000
61.08500 80.000
61.10000 69.000
61.11500 75.000
61.13000 69.000
61.14500 71.000
61.16000 77.000
61.17500 77.000
61.19000 76.000
61.20500 63.000
61.22000 79.000
61.23500 84.000
61.25000 79.000
61.26500 67.000
61.28000 82.000
61.29500 76.000
61.31000 67.000
61.32500 76.000
61.34000 81.000
61.35500 69.000
61.37000 72.000
61.38500 77.000
61.40000 76.000
61.41500 78.000
61.43000 81.000
61.44500 78.000
61.46000 85.000
61.47500 89.000
61.49000 96.000
61.50500 82.000
61.52000 88.000
61.53500 72.000
61.55000 80.000
61.56500 77.000
61.58000 69.000
61.59500 82.000
61.61000 80.000
61.62500 69.000
61.64000 64.000
61.65500 70.000
61.67000 75.000
61.68500 71.000
61.70000 75.000
61.71500 77.000
61.73000 85.000
61.74500 81.000
61.76000 78.000
61.77500 77.000
61.79000 88.000
61.80500 87.000
61.82000 81.000
61.83500 79.000
61.85000 80.000
61.86500 76.000
61.88000 74.000
61.89500 91.000
61.91000 94.000
61.92500 91.000
61.94000 92.000
61.95500 87.000
61.97000 79.000
61.98500 86.000
