2.00000 366.000
2.01500 346.000
2.03000 320.000
2.04500 330.000
2.06000 348.000
2.07500 348.000
2.09000 355.000
2.10500 341.000
2.12000 332.000
2.13500 319.000
2.15000 321.000
2.16500 321.000
2.18000 340.000
2.19500 313.000
2.21000 307.000
2.22500 293.000
2.24000 299.000
2.25500 305.000
2.27000 294.000
2.28500 302.000
2.30000 310.000
2.31500 294.000
2.33000 296.000
2.34500 291.000
2.36000 296.000
2.37500 258.000
2.39000 271.000
2.40500 308.000
2.42000 297.000
2.43500 285.000
2.45000 257.000
2.46500 258.000
2.48000 263.000
2.49500 276.000
2.51000 278.000
2.52500 260.000
2.54000 264.000
2.55500 273.000
2.57000 281.000
2.58500 280.000
2.60000 276.000
2.61500 264.000
2.63000 268.000
2.64500 229.000
2.66000 244.000
2.67500 248.000
2.69000 260.000
2.70500 232.000
2.72000 247.000
2.73500 238.000
2.75000 238.000
2.76500 241.000
2.78000 244.000
2.79500 222.000
2.81000 246.000
2.82500 248.000
2.84000 250.000
2.85500 244.000
2.87000 256.000
2.88500 240.000
2.90000 235.000
2.91500 236.000
2.93000 241.000
2.94500 236.000
2.96000 255.000
2.97500 251.000
2.99000 245.000
3.00500 227.000
3.02000 225.000
3.03500 229.000
3.05000 233.000
3.06500 245.000
3.08000 242.000
3.09500 240.000
3.11000 231.000
3.12500 202.000
3.14000 222.000
3.15500 210.000
3.17000 216.000
3.18500 236.000
3.20000 216.000
3.21500 207.000
3.23000 219.000
3.24500 238.000
3.26000 207.000
3.27500 232.000
3.29000 226.000
3.30500 227.000
3.32000 252.000
3.33500 231.000
3.35000 241.000
3.36500 221.000
3.38000 231.000
3.39500 221.000
3.41000 232.000
3.42500 226.000
3.44000 224.000
3.45500 236.000
3.47000 252.000
3.48500 245.000
3.50000 203.000
3.51500 227.000
3.53000 211.000
3.54500 220.000
3.56000 227.000
3.57500 208.000
3.59000 206.000
3.60500 191.000
3.62000 221.000
3.63500 249.000
3.65000 218.000
3.66500 223.000
3.68000 234.000
3.69500 224.000
3.71000 232.000
3.72500 228.000
3.74000 223.000
3.75500 220.000
3.77000 224.000
3.78500 238.000
3.80000 227.000
3.81500 231.000
3.83000 229.000
3.84500 219.000
3.86000 227.000
3.87500 236.000
3.89000 232.000
3.90500 204.000
3.92000 222.000
3.93500 237.000
3.95000 225.000
3.96500 201.000
3.98000 217.000
3.99500 214.000
4.01000 237.000
4.02500 228.000
4.04000 208.000
4.05500 225.000
4.07000 206.000
4.08500 219.000
4.10000 211.000
4.11500 209.000
4.13000 209.000
4.14500 217.000
4.16000 224.000
4.17500 206.000
4.19000 212.000
4.20500 205.000
4.22000 214.000
4.23500 205.000
4.25000 216.000
4.26500 212.000
4.28000 218.000
4.29500 217.000
4.31000 226.000
4.32500 226.000
4.34000 213.000
4.35500 197.000
4.37000 201.000
4.38500 224.000
4.40000 218.000
4.41500 202.000
4.43000 209.000
4.44500 202.000
4.46000 217.000
4.47500 221.000
4.49000 198.000
4.50500 223.000
4.52000 231.000
4.53500 216.000
4.55000 233.000
4.56500 218.000
4.58000 216.000
4.59500 231.000
4.61000 238.000
4.62500 234.000
4.64000 252.000
4.65500 232.000
4.67000 215.000
4.68500 227.000
4.70000 219.000
4.71500 213.000
4.73000 208.000
4.74500 225.000
4.76000 241.000
4.77500 215.000
4.79000 214.000
4.80500 211.000
4.82000 234.000
4.83500 241.000
4.85000 218.000
4.86500 203.000
4.88000 226.000
4.89500 235.000
4.91000 233.000
4.92500 221.000
4.94000 239.000
4.95500 224.000
4.97000 224.000
4.98500 234.000
5.00000 201.000
5.01500 222.000
5.03000 236.000
5.04500 246.000
5.06000 217.000
5.07500 224.000
5.09000 245.000
5.10500 230.000
5.12000 243.000
5.13500 211.000
5.15000 217.000
5.16500 236.000
5.18000 214.000
5.19500 253.000
5.21000 247.000
5.22500 234.000
5.24000 246.000
5.25500 236.000
5.27000 237.000
5.28500 237.000
5.30000 235.000
5.31500 219.000
5.33000 230.000
5.34500 223.000
5.36000 230.000
5.37500 221.000
5.39000 237.000
5.40500 259.000
5.42000 259.000
5.43500 248.000
5.45000 215.000
5.46500 252.000
5.48000 231.000
5.49500 229.000
5.51000 217.000
5.52500 241.000
5.54000 243.000
5.55500 224.000
5.57000 252.000
5.58500 251.000
5.60000 234.000
5.61500 235.000
5.63000 226.000
5.64500 247.000
5.66000 228.000
5.67500 229.000
5.69000 237.000
5.70500 230.000
5.72000 275.000
5.73500 265.000
5.75000 258.000
5.76500 227.000
5.78000 230.000
5.79500 225.000
5.81000 248.000
5.82500 257.000
5.84000 247.000
5.85500 267.000
5.87000 238.000
5.88500 233.000
5.90000 258.000
5.91500 260.000
5.93000 251.000
5.94500 258.000
5.96000 250.000
5.97500 257.000
5.99000 248.000
6.00500 268.000
6.02000 270.000
6.03500 245.000
6.05000 271.000
6.06500 242.000
6.08000 261.000
6.09500 242.000
6.11000 260.000
6.12500 249.000
6.14000 253.000
6.15500 234.000
6.17000 231.000
6.18500 257.000
6.20000 260.000
6.21500 288.000
6.23000 273.000
6.24500 258.000
6.26000 250.000
6.27500 252.000
6.29000 234.000
6.30500 255.000
6.32000 261.000
6.33500 250.000
6.35000 255.000
6.36500 276.000
6.38000 266.000
6.39500 270.000
6.41000 259.000
6.42500 247.000
6.44000 265.000
6.45500 255.000
6.47000 246.000
6.48500 260.000
6.50000 275.000
6.51500 291.000
6.53000 286.000
6.54500 262.000
6.56000 238.000
6.57500 259.000
6.59000 277.000
6.60500 277.000
6.62000 272.000
6.63500 291.000
6.65000 291.000
6.66500 281.000
6.68000 270.000
6.69500 250.000
6.71000 243.000
6.72500 281.000
6.74000 271.000
6.75500 257.000
6.77000 241.000
6.78500 236.000
6.80000 257.000
6.81500 251.000
6.83000 233.000
6.84500 236.000
6.86000 235.000
6.87500 239.000
6.89000 233.000
6.90500 220.000
6.92000 216.000
6.93500 234.000
6.95000 216.000
6.96500 203.000
6.98000 228.000
6.99500 257.000
7.01000 238.000
7.02500 237.000
7.04000 225.000
7.05500 245.000
7.07000 230.000
7.08500 242.000
7.10000 229.000
7.11500 226.000
7.13000 233.000
7.14500 217.000
7.16000 230.000
7.17500 239.000
7.19000 236.000
7.20500 208.000
7.22000 211.000
7.23500 229.000
7.25000 232.000
7.26500 234.000
7.28000 240.000
7.29500 229.000
7.31000 207.000
7.32500 230.000
7.34000 226.000
7.35500 236.000
7.37000 263.000
7.38500 248.000
7.40000 247.000
7.41500 243.000
7.43000 264.000
7.44500 252.000
7.46000 215.000
7.47500 239.000
7.49000 228.000
7.50500 228.000
7.52000 255.000
7.53500 254.000
7.55000 235.000
7.56500 234.000
7.58000 234.000
7.59500 211.000
7.61000 218.000
7.62500 232.000
7.64000 228.000
7.65500 238.000
7.67000 221.000
7.68500 208.000
7.70000 211.000
7.71500 223.000
7.73000 227.000
7.74500 230.000
7.76000 234.000
7.77500 229.000
7.79000 214.000
7.80500 244.000
7.82000 246.000
7.83500 250.000
7.85000 240.000
7.86500 251.000
7.88000 217.000
7.89500 250.000
7.91000 230.000
7.92500 224.000
7.94000 228.000
7.95500 230.000
7.97000 238.000
7.98500 229.000
8.00000 225.000
8.01500 230.000
8.03000 235.000
8.04500 229.000
8.06000 236.000
8.07500 227.000
8.09000 231.000
8.10500 231.000
8.12000 228.000
8.13500 235.000
8.15000 231.000
8.16500 229.000
8.18000 222.000
8.19500 219.000
8.21000 219.000
8.22500 259.000
8.24000 213.000
8.25500 236.000
8.27000 242.000
8.28500 246.000
8.30000 258.000
8.31500 243.000
8.33000 214.000
8.34500 251.000
8.36000 262.000
8.37500 245.000
8.39000 226.000
8.40500 240.000
8.42000 230.000
8.43500 251.000
8.45000 247.000
8.46500 236.000
8.48000 238.000
8.49500 252.000
8.51000 237.000
8.52500 263.000
8.54000 252.000
8.55500 264.000
8.57000 254.000
8.58500 282.000
8.60000 272.000
8.61500 260.000
8.63000 254.000
8.64500 249.000
8.66000 263.000
8.67500 252.000
8.69000 271.000
8.70500 268.000
8.72000 260.000
8.73500 272.000
8.75000 294.000
8.76500 289.000
8.78000 275.000
8.79500 269.000
8.81000 278.000
8.82500 283.000
8.84000 295.000
8.85500 317.000
8.87000 283.000
8.88500 266.000
8.90000 279.000
8.91500 314.000
8.93000 309.000
8.94500 340.000
8.96000 319.000
8.97500 331.000
8.99000 325.000
9.00500 324.000
9.02000 316.000
9.03500 339.000
9.05000 338.000
9.06500 341.000
9.08000 332.000
9.09500 351.000
9.11000 333.000
9.12500 329.000
9.14000 353.000
9.15500 377.000
9.17000 374.000
9.18500 363.000
9.20000 381.000
9.21500 375.000
9.23000 427.000
9.24500 406.000
9.26000 392.000
9.27500 388.000
9.29000 407.000
9.30500 393.000
9.32000 418.000
9.33500 403.000
9.35000 408.000
9.36500 443.000
9.38000 457.000
9.39500 466.000
9.41000 442.000
9.42500 453.000
9.44000 487.000
9.45500 465.000
9.47000 450.000
9.48500 449.000
9.50000 450.000
9.51500 472.000
9.53000 439.000
9.54500 450.000
9.56000 477.000
9.57500 469.000
9.59000 420.000
9.60500 391.000
9.62000 407.000
9.63500 402.000
9.65000 397.000
9.66500 374.000
9.68000 374.000
9.69500 351.000
9.71000 346.000
9.72500 337.000
9.74000 331.000
9.75500 333.000
9.77000 309.000
9.78500 306.000
9.80000 294.000
9.81500 317.000
9.83000 297.000
9.84500 283.000
9.86000 292.000
9.87500 305.000
9.89000 260.000
9.90500 269.000
9.92000 266.000
9.93500 288.000
9.95000 266.000
9.96500 273.000
9.98000 286.000
9.99500 283.000
10.01000 274.000
10.02500 263.000
10.04000 245.000
10.05500 268.000
10.07000 274.000
10.08500 271.000
10.10000 266.000
10.11500 232.000
10.13000 246.000
10.14500 277.000
10.16000 290.000
10.17500 251.000
10.19000 266.000
10.20500 255.000
10.22000 258.000
10.23500 243.000
10.25000 241.000
10.26500 266.000
10.28000 255.000
10.29500 244.000
10.31000 271.000
10.32500 250.000
10.34000 239.000
10.35500 241.000
10.37000 246.000
10.38500 231.000
10.40000 246.000
10.41500 269.000
10.43000 254.000
10.44500 242.000
10.46000 234.000
10.47500 232.000
10.49000 255.000
10.50500 258.000
10.52000 256.000
10.53500 240.000
10.55000 242.000
10.56500 257.000
10.58000 241.000
10.59500 231.000
10.61000 247.000
10.62500 225.000
10.64000 219.000
10.65500 224.000
10.67000 231.000
10.68500 230.000
10.70000 231.000
10.71500 225.000
10.73000 258.000
10.74500 262.000
10.76000 238.000
10.77500 234.000
10.79000 220.000
10.80500 233.000
10.82000 226.000
10.83500 248.000
10.85000 246.000
10.86500 229.000
10.88000 224.000
10.89500 245.000
10.91000 237.000
10.92500 243.000
10.94000 251.000
10.95500 251.000
10.97000 247.000
10.98500 245.000
11.00000 217.000
11.01500 222.000
11.03000 227.000
11.04500 230.000
11.06000 249.000
11.07500 241.000
11.09000 241.000
11.10500 255.000
11.12000 250.000
11.13500 239.000
11.15000 248.000
11.16500 232.000
11.18000 242.000
11.19500 252.000
11.21000 223.000
11.22500 218.000
11.24000 245.000
11.25500 268.000
11.27000 238.000
11.28500 256.000
11.30000 256.000
11.31500 229.000
11.33000 237.000
11.34500 244.000
11.36000 214.000
11.37500 212.000
11.39000 242.000
11.40500 240.000
11.42000 245.000
11.43500 225.000
11.45000 236.000
11.46500 236.000
11.48000 227.000
11.49500 225.000
11.51000 224.000
11.52500 219.000
11.54000 221.000
11.55500 229.000
11.57000 235.000
11.58500 241.000
11.60000 250.000
11.61500 232.000
11.63000 220.000
11.64500 259.000
11.66000 244.000
11.67500 230.000
11.69000 233.000
11.70500 263.000
11.72000 227.000
11.73500 233.000
11.75000 246.000
11.76500 239.000
11.78000 221.000
11.79500 244.000
11.81000 266.000
11.82500 269.000
11.84000 262.000
11.85500 271.000
11.87000 270.000
11.88500 296.000
11.90000 263.000
11.91500 292.000
11.93000 312.000
11.94500 306.000
11.96000 367.000
11.97500 403.000
11.99000 485.000
12.00500 496.000
12.02000 592.000
12.03500 684.000
12.05000 826.000
12.06500 993.000
12.08000 1193.000
12.09500 1536.000
12.11000 1550.000
12.12500 1306.000
12.14000 967.000
12.15500 725.000
12.17000 536.000
12.18500 466.000
12.20000 433.000
12.21500 438.000
12.23000 379.000
12.24500 359.000
12.26000 346.000
12.27500 352.000
12.29000 359.000
12.30500 330.000
12.32000 332.000
12.33500 331.000
12.35000 334.000
12.36500 309.000
12.38000 335.000
12.39500 340.000
12.41000 327.000
12.42500 321.000
12.44000 305.000
12.45500 315.000
12.47000 317.000
12.48500 300.000
12.50000 299.000
12.51500 304.000
12.53000 316.000
12.54500 318.000
12.56000 316.000
12.57500 328.000
12.59000 297.000
12.60500 287.000
12.62000 303.000
12.63500 324.000
12.65000 311.000
12.66500 317.000
12.68000 311.000
12.69500 292.000
12.71000 308.000
12.72500 308.000
12.74000 294.000
12.75500 276.000
12.77000 281.000
12.78500 322.000
12.80000 305.000
12.81500 304.000
12.83000 337.000
12.84500 305.000
12.86000 283.000
12.87500 291.000
12.89000 318.000
12.90500 300.000
12.92000 287.000
12.93500 304.000
12.95000 311.000
12.96500 309.000
12.98000 318.000
12.99500 296.000
13.01000 302.000
13.02500 310.000
13.04000 332.000
13.05500 306.000
13.07000 331.000
13.08500 335.000
13.10000 319.000
13.11500 300.000
13.13000 330.000
13.14500 373.000
13.16000 351.000
13.17500 349.000
13.19000 360.000
13.20500 374.000
13.22000 383.000
13.23500 411.000
13.25000 425.000
13.26500 422.000
13.28000 432.000
13.29500 459.000
13.31000 460.000
13.32500 433.000
13.34000 421.000
13.35500 429.000
13.37000 433.000
13.38500 408.000
13.40000 401.000
13.41500 370.000
13.43000 346.000
13.44500 347.000
13.46000 319.000
13.47500 305.000
13.49000 317.000
13.50500 330.000
13.52000 320.000
13.53500 318.000
13.55000 280.000
13.56500 300.000
13.58000 325.000
13.59500 319.000
13.61000 329.000
13.62500 318.000
13.64000 310.000
13.65500 286.000
13.67000 323.000
13.68500 331.000
13.70000 342.000
13.71500 332.000
13.73000 312.000
13.74500 322.000
13.76000 341.000
13.77500 373.000
13.79000 355.000
13.80500 350.000
13.82000 340.000
13.83500 355.000
13.85000 373.000
13.86500 338.000
13.88000 300.000
13.89500 294.000
13.91000 312.000
13.92500 300.000
13.94000 292.000
13.95500 319.000
13.97000 295.000
13.98500 292.000
14.00000 268.000
14.01500 279.000
14.03000 281.000
14.04500 283.000
14.06000 265.000
14.07500 270.000
14.09000 253.000
14.10500 267.000
14.12000 240.000
14.13500 261.000
14.15000 262.000
14.16500 279.000
14.18000 285.000
14.19500 276.000
14.21000 266.000
14.22500 267.000
14.24000 261.000
14.25500 264.000
14.27000 256.000
14.28500 258.000
14.30000 249.000
14.31500 284.000
14.33000 254.000
14.34500 248.000
14.36000 250.000
14.37500 251.000
14.39000 262.000
14.40500 251.000
14.42000 241.000
14.43500 238.000
14.45000 221.000
14.46500 255.000
14.48000 266.000
14.49500 257.000
14.51000 234.000
14.52500 237.000
14.54000 254.000
14.55500 230.000
14.57000 252.000
14.58500 268.000
14.60000 258.000
14.61500 247.000
14.63000 252.000
14.64500 257.000
14.66000 259.000
14.67500 272.000
14.69000 269.000
14.70500 253.000
14.72000 245.000
14.73500 241.000
14.75000 240.000
14.76500 257.000
14.78000 254.000
14.79500 246.000
14.81000 244.000
14.82500 251.000
14.84000 255.000
14.85500 262.000
14.87000 268.000
14.88500 267.000
14.90000 242.000
14.91500 267.000
14.93000 268.000
14.94500 233.000
14.96000 263.000
14.97500 258.000
14.99000 266.000
15.00500 252.000
15.02000 249.000
15.03500 259.000
15.05000 234.000
15.06500 246.000
15.08000 258.000
15.09500 276.000
15.11000 260.000
15.12500 251.000
15.14000 252.000
15.15500 243.000
15.17000 267.000
15.18500 243.000
15.20000 250.000
15.21500 242.000
15.23000 251.000
15.24500 248.000
15.26000 242.000
15.27500 239.000
15.29000 257.000
15.30500 239.000
15.32000 238.000
15.33500 243.000
15.35000 244.000
15.36500 260.000
15.38000 245.000
15.39500 247.000
15.41000 248.000
15.42500 217.000
15.44000 255.000
15.45500 260.000
15.47000 234.000
15.48500 236.000
15.50000 244.000
15.51500 247.000
15.53000 264.000
15.54500 258.000
15.56000 255.000
15.57500 250.000
15.59000 254.000
15.60500 248.000
15.62000 242.000
15.63500 246.000
15.65000 269.000
15.66500 286.000
15.68000 278.000
15.69500 253.000
15.71000 262.000
15.72500 254.000
15.74000 232.000
15.75500 234.000
15.77000 250.000
15.78500 234.000
15.80000 242.000
15.81500 252.000
15.83000 253.000
15.84500 239.000
15.86000 266.000
15.87500 270.000
15.89000 248.000
15.90500 264.000
15.92000 277.000
15.93500 260.000
15.95000 245.000
15.96500 256.000
15.98000 265.000
15.99500 274.000
16.01000 280.000
16.02500 239.000
16.04000 254.000
16.05500 258.000
16.07000 254.000
16.08500 264.000
16.10000 256.000
16.11500 257.000
16.13000 257.000
16.14500 284.000
16.16000 262.000
16.17500 267.000
16.19000 251.000
16.20500 251.000
16.22000 258.000
16.23500 277.000
16.25000 276.000
16.26500 283.000
16.28000 283.000
16.29500 273.000
16.31000 263.000
16.32500 269.000
16.34000 263.000
16.35500 245.000
16.37000 243.000
16.38500 263.000
16.40000 234.000
16.41500 238.000
16.43000 247.000
16.44500 246.000
16.46000 258.000
16.47500 239.000
16.49000 245.000
16.50500 236.000
16.52000 230.000
16.53500 231.000
16.55000 254.000
16.56500 265.000
16.58000 252.000
16.59500 270.000
16.61000 271.000
16.62500 262.000
16.64000 247.000
16.65500 261.000
16.67000 274.000
16.68500 264.000
16.70000 260.000
16.71500 286.000
16.73000 276.000
16.74500 272.000
16.76000 281.000
16.77500 258.000
16.79000 269.000
16.80500 254.000
16.82000 250.000
16.83500 256.000
16.85000 278.000
16.86500 258.000
16.88000 254.000
16.89500 259.000
16.91000 291.000
16.92500 271.000
16.94000 257.000
16.95500 272.000
16.97000 277.000
16.98500 270.000
17.00000 279.000
17.01500 266.000
17.03000 270.000
17.04500 277.000
17.06000 280.000
17.07500 254.000
17.09000 254.000
17.10500 276.000
17.12000 261.000
17.13500 263.000
17.15000 275.000
17.16500 283.000
17.18000 262.000
17.19500 281.000
17.21000 308.000
17.22500 297.000
17.24000 279.000
17.25500 291.000
17.27000 270.000
17.28500 270.000
17.30000 264.000
17.31500 274.000
17.33000 281.000
17.34500 288.000
17.36000 288.000
17.37500 290.000
17.39000 277.000
17.40500 292.000
17.42000 284.000
17.43500 264.000
17.45000 251.000
17.46500 262.000
17.48000 284.000
17.49500 306.000
17.51000 297.000
17.52500 300.000
17.54000 306.000
17.55500 301.000
17.57000 308.000
17.58500 303.000
17.60000 295.000
17.61500 293.000
17.63000 315.000
17.64500 283.000
17.66000 278.000
17.67500 293.000
17.69000 278.000
17.70500 290.000
17.72000 285.000
17.73500 286.000
17.75000 307.000
17.76500 279.000
17.78000 282.000
17.79500 277.000
17.81000 288.000
17.82500 283.000
17.84000 297.000
17.85500 314.000
17.87000 308.000
17.88500 307.000
17.90000 314.000
17.91500 295.000
17.93000 312.000
17.94500 317.000
17.96000 299.000
17.97500 315.000
17.99000 313.000
18.00500 295.000
18.02000 297.000
18.03500 337.000
18.05000 312.000
18.06500 311.000
18.08000 335.000
18.09500 302.000
18.11000 282.000
18.12500 284.000
18.14000 306.000
18.15500 330.000
18.17000 350.000
18.18500 338.000
18.20000 316.000
18.21500 320.000
18.23000 314.000
18.24500 332.000
18.26000 364.000
18.27500 318.000
18.29000 308.000
18.30500 338.000
18.32000 341.000
18.33500 344.000
18.35000 340.000
18.36500 347.000
18.38000 315.000
18.39500 362.000
18.41000 349.000
18.42500 353.000
18.44000 355.000
18.45500 330.000
18.47000 353.000
18.48500 353.000
18.50000 360.000
18.51500 355.000
18.53000 352.000
18.54500 353.000
18.56000 344.000
18.57500 378.000
18.59000 368.000
18.60500 374.000
18.62000 384.000
18.63500 387.000
18.65000 385.000
18.66500 392.000
18.68000 396.000
18.69500 391.000
18.71000 401.000
18.72500 407.000
18.74000 416.000
18.75500 421.000
18.77000 420.000
18.78500 414.000
18.80000 406.000
18.81500 393.000
18.83000 395.000
18.84500 436.000
18.86000 411.000
18.87500 418.000
18.89000 437.000
18.90500 429.000
18.92000 422.000
18.93500 438.000
18.95000 426.000
18.96500 441.000
18.98000 453.000
18.99500 454.000
19.01000 479.000
19.02500 480.000
19.04000 467.000
19.05500 467.000
19.07000 459.000
19.08500 503.000
19.10000 484.000
19.11500 468.000
19.13000 488.000
19.14500 485.000
19.16000 490.000
19.17500 486.000
19.19000 488.000
19.20500 536.000
19.22000 482.000
19.23500 462.000
19.25000 474.000
19.26500 490.000
19.28000 469.000
19.29500 486.000
19.31000 450.000
19.32500 438.000
19.34000 475.000
19.35500 494.000
19.37000 473.000
19.38500 434.000
19.40000 429.000
19.41500 480.000
19.43000 475.000
19.44500 442.000
19.46000 452.000
19.47500 458.000
19.49000 445.000
19.50500 438.000
19.52000 460.000
19.53500 451.000
19.55000 430.000
19.56500 440.000
19.58000 413.000
19.59500 434.000
19.61000 429.000
19.62500 410.000
19.64000 440.000
19.65500 446.000
19.67000 466.000
19.68500 461.000
19.70000 450.000
19.71500 463.000
19.73000 464.000
19.74500 441.000
19.76000 485.000
19.77500 513.000
19.79000 513.000
19.80500 510.000
19.82000 501.000
19.83500 535.000
19.85000 522.000
19.86500 504.000
19.88000 610.000
19.89500 619.000
19.91000 655.000
19.92500 674.000
19.94000 740.000
19.95500 793.000
19.97000 837.000
19.98500 876.000
20.00000 928.000
20.01500 938.000
20.03000 928.000
20.04500 940.000
20.06000 924.000
20.07500 854.000
20.09000 801.000
20.10500 739.000
20.12000 675.000
20.13500 633.000
20.15000 585.000
20.16500 542.000
20.18000 523.000
20.19500 493.000
20.21000 503.000
20.22500 477.000
20.24000 454.000
20.25500 416.000
20.27000 403.000
20.28500 400.000
20.30000 409.000
20.31500 414.000
20.33000 400.000
20.34500 404.000
20.36000 381.000
20.37500 394.000
20.39000 390.000
20.40500 385.000
20.42000 366.000
20.43500 372.000
20.45000 348.000
20.46500 357.000
20.48000 381.000
20.49500 385.000
20.51000 377.000
20.52500 382.000
20.54000 385.000
20.55500 375.000
20.57000 375.000
20.58500 352.000
20.60000 369.000
20.61500 362.000
20.63000 339.000
20.64500 363.000
20.66000 362.000
20.67500 388.000
20.69000 354.000
20.70500 354.000
20.72000 362.000
20.73500 357.000
20.75000 347.000
20.76500 350.000
20.78000 343.000
20.79500 353.000
20.81000 361.000
20.82500 380.000
20.84000 382.000
20.85500 402.000
20.87000 363.000
20.88500 400.000
20.90000 415.000
20.91500 455.000
20.93000 459.000
20.94500 526.000
20.96000 579.000
20.97500 671.000
20.99000 760.000
21.00500 889.000
21.02000 1039.000
21.03500 1137.000
21.05000 1133.000
21.06500 1015.000
21.08000 882.000
21.09500 741.000
21.11000 650.000
21.12500 590.000
21.14000 541.000
21.15500 545.000
21.17000 530.000
21.18500 570.000
21.20000 530.000
21.21500 536.000
21.23000 523.000
21.24500 476.000
21.26000 512.000
21.27500 483.000
21.29000 469.000
21.30500 483.000
21.32000 489.000
21.33500 466.000
21.35000 438.000
21.36500 424.000
21.38000 482.000
21.39500 469.000
21.41000 477.000
21.42500 460.000
21.44000 457.000
21.45500 461.000
21.47000 451.000
21.48500 445.000
21.50000 436.000
21.51500 473.000
21.53000 456.000
21.54500 435.000
21.56000 419.000
21.57500 467.000
21.59000 453.000
21.60500 432.000
21.62000 455.000
21.63500 474.000
21.65000 430.000
21.66500 472.000
21.68000 454.000
21.69500 411.000
21.71000 440.000
21.72500 486.000
21.74000 456.000
21.75500 472.000
21.77000 443.000
21.78500 404.000
21.80000 437.000
21.81500 448.000
21.83000 421.000
21.84500 415.000
21.86000 460.000
21.87500 478.000
21.89000 478.000
21.90500 462.000
21.92000 494.000
21.93500 499.000
21.95000 469.000
21.96500 552.000
21.98000 541.000
21.99500 568.000
22.01000 572.000
22.02500 571.000
22.04000 609.000
22.05500 634.000
22.07000 638.000
22.08500 647.000
22.10000 663.000
22.11500 626.000
22.13000 593.000
22.14500 601.000
22.16000 585.000
22.17500 505.000
22.19000 479.000
22.20500 472.000
22.22000 468.000
22.23500 455.000
22.25000 452.000
22.26500 433.000
22.28000 395.000
22.29500 398.000
22.31000 384.000
22.32500 389.000
22.34000 372.000
22.35500 374.000
22.37000 379.000
22.38500 419.000
22.40000 390.000
22.41500 365.000
22.43000 377.000
22.44500 369.000
22.46000 391.000
22.47500 398.000
22.49000 361.000
22.50500 342.000
22.52000 351.000
22.53500 366.000
22.55000 364.000
22.56500 334.000
22.58000 349.000
22.59500 347.000
22.61000 370.000
22.62500 374.000
22.64000 332.000
22.65500 340.000
22.67000 350.000
22.68500 339.000
22.70000 324.000
22.71500 330.000
22.73000 333.000
22.74500 363.000
22.76000 357.000
22.77500 348.000
22.79000 337.000
22.80500 310.000
22.82000 332.000
22.83500 355.000
22.85000 332.000
22.86500 323.000
22.88000 340.000
22.89500 364.000
22.91000 341.000
22.92500 351.000
22.94000 322.000
22.95500 321.000
22.97000 333.000
22.98500 348.000
23.00000 342.000
23.01500 305.000
23.03000 297.000
23.04500 317.000
23.06000 324.000
23.07500 337.000
23.09000 338.000
23.10500 345.000
23.12000 351.000
23.13500 337.000
23.15000 328.000
23.16500 325.000
23.18000 323.000
23.19500 347.000
23.21000 327.000
23.22500 313.000
23.24000 315.000
23.25500 304.000
23.27000 311.000
23.28500 309.000
23.30000 300.000
23.31500 337.000
23.33000 325.000
23.34500 334.000
23.36000 326.000
23.37500 337.000
23.39000 330.000
23.40500 321.000
23.42000 311.000
23.43500 305.000
23.45000 342.000
23.46500 319.000
23.48000 332.000
23.49500 327.000
23.51000 314.000
23.52500 318.000
23.54000 308.000
23.55500 307.000
23.57000 336.000
23.58500 341.000
23.60000 330.000
23.61500 313.000
23.63000 300.000
23.64500 335.000
23.66000 333.000
23.67500 329.000
23.69000 323.000
23.70500 322.000
23.72000 308.000
23.73500 339.000
23.75000 314.000
23.76500 331.000
23.78000 308.000
23.79500 299.000
23.81000 310.000
23.82500 334.000
23.84000 337.000
23.85500 332.000
23.87000 303.000
23.88500 332.000
23.90000 321.000
23.91500 307.000
23.93000 334.000
23.94500 301.000
23.96000 288.000
23.97500 301.000
23.99000 349.000
24.00500 331.000
24.02000 318.000
24.03500 328.000
24.05000 301.000
24.06500 311.000
24.08000 322.000
24.09500 324.000
24.11000 322.000
24.12500 323.000
24.14000 315.000
24.15500 343.000
24.17000 336.000
24.18500 326.000
24.20000 326.000
24.21500 338.000
24.23000 352.000
24.24500 337.000
24.26000 362.000
24.27500 366.000
24.29000 392.000
24.30500 432.000
24.32000 423.000
24.33500 417.000
24.35000 455.000
24.36500 410.000
24.38000 397.000
24.39500 391.000
24.41000 353.000
24.42500 347.000
24.44000 343.000
24.45500 314.000
24.47000 334.000
24.48500 363.000
24.50000 318.000
24.51500 356.000
24.53000 351.000
24.54500 366.000
24.56000 350.000
24.57500 323.000
24.59000 330.000
24.60500 348.000
24.62000 352.000
24.63500 317.000
24.65000 338.000
24.66500 339.000
24.68000 354.000
24.69500 338.000
24.71000 330.000
24.72500 344.000
24.74000 326.000
24.75500 314.000
24.77000 324.000
24.78500 344.000
24.80000 339.000
24.81500 332.000
24.83000 350.000
24.84500 377.000
24.86000 355.000
24.87500 329.000
24.89000 347.000
24.90500 347.000
24.92000 344.000
24.93500 340.000
24.95000 367.000
24.96500 356.000
24.98000 329.000
24.99500 362.000
25.01000 347.000
25.02500 374.000
25.04000 338.000
25.05500 378.000
25.07000 346.000
25.08500 330.000
25.10000 343.000
25.11500 337.000
25.13000 348.000
25.14500 367.000
25.16000 349.000
25.17500 356.000
25.19000 346.000
25.20500 322.000
25.22000 382.000
25.23500 384.000
25.25000 346.000
25.26500 346.000
25.28000 356.000
25.29500 346.000
25.31000 363.000
25.32500 358.000
25.34000 354.000
25.35500 335.000
25.37000 328.000
25.38500 341.000
25.40000 339.000
25.41500 351.000
25.43000 332.000
25.44500 304.000
25.46000 317.000
25.47500 308.000
25.49000 350.000
25.50500 311.000
25.52000 315.000
25.53500 349.000
25.55000 342.000
25.56500 342.000
25.58000 345.000
25.59500 319.000
25.61000 311.000
25.62500 342.000
25.64000 324.000
25.65500 362.000
25.67000 346.000
25.68500 338.000
25.70000 348.000
25.71500 334.000
25.73000 336.000
25.74500 335.000
25.76000 364.000
25.77500 324.000
25.79000 295.000
25.80500 320.000
25.82000 348.000
25.83500 329.000
25.85000 326.000
25.86500 319.000
25.88000 306.000
25.89500 327.000
25.91000 357.000
25.92500 336.000
25.94000 336.000
25.95500 317.000
25.97000 326.000
25.98500 323.000
26.00000 381.000
26.01500 343.000
26.03000 327.000
26.04500 335.000
26.06000 353.000
26.07500 324.000
26.09000 328.000
26.10500 337.000
26.12000 355.000
26.13500 343.000
26.15000 372.000
26.16500 339.000
26.18000 350.000
26.19500 372.000
26.21000 364.000
26.22500 355.000
26.24000 325.000
26.25500 327.000
26.27000 347.000
26.28500 382.000
26.30000 334.000
26.31500 340.000
26.33000 353.000
26.34500 366.000
26.36000 339.000
26.37500 340.000
26.39000 376.000
26.40500 358.000
26.42000 374.000
26.43500 369.000
26.45000 366.000
26.46500 357.000
26.48000 356.000
26.49500 362.000
26.51000 377.000
26.52500 383.000
26.54000 386.000
26.55500 389.000
26.57000 358.000
26.58500 365.000
26.60000 397.000
26.61500 382.000
26.63000 398.000
26.64500 387.000
26.66000 372.000
26.67500 382.000
26.69000 367.000
26.70500 373.000
26.72000 389.000
26.73500 405.000
26.75000 429.000
26.76500 395.000
26.78000 393.000
26.79500 437.000
26.81000 444.000
26.82500 465.000
26.84000 405.000
26.85500 409.000
26.87000 415.000
26.88500 409.000
26.90000 395.000
26.91500 393.000
26.93000 382.000
26.94500 368.000
26.96000 409.000
26.97500 396.000
26.99000 366.000
27.00500 357.000
27.02000 356.000
27.03500 365.000
27.05000 388.000
27.06500 373.000
27.08000 352.000
27.09500 374.000
27.11000 382.000
27.12500 374.000
27.14000 347.000
27.15500 350.000
27.17000 381.000
27.18500 388.000
27.20000 355.000
27.21500 341.000
27.23000 373.000
27.24500 358.000
27.26000 338.000
27.27500 389.000
27.29000 387.000
27.30500 375.000
27.32000 372.000
27.33500 367.000
27.35000 390.000
27.36500 361.000
27.38000 380.000
27.39500 362.000
27.41000 364.000
27.42500 365.000
27.44000 359.000
27.45500 378.000
27.47000 347.000
27.48500 366.000
27.50000 323.000
27.51500 350.000
27.53000 376.000
27.54500 372.000
27.56000 355.000
27.57500 363.000
27.59000 353.000
27.60500 357.000
27.62000 350.000
27.63500 345.000
27.65000 372.000
27.66500 352.000
27.68000 362.000
27.69500 376.000
27.71000 379.000
27.72500 357.000
27.74000 343.000
27.75500 352.000
27.77000 368.000
27.78500 367.000
27.80000 331.000
27.81500 362.000
27.83000 370.000
27.84500 350.000
27.86000 371.000
27.87500 363.000
27.89000 342.000
27.90500 342.000
27.92000 373.000
27.93500 365.000
27.95000 366.000
27.96500 375.000
27.98000 381.000
27.99500 360.000
28.01000 377.000
28.02500 371.000
28.04000 335.000
28.05500 378.000
28.07000 387.000
28.08500 397.000
28.10000 402.000
28.11500 383.000
28.13000 382.000
28.14500 371.000
28.16000 390.000
28.17500 364.000
28.19000 373.000
28.20500 364.000
28.22000 376.000
28.23500 380.000
28.25000 370.000
28.26500 397.000
28.28000 399.000
28.29500 399.000
28.31000 384.000
28.32500 402.000
28.34000 435.000
28.35500 408.000
28.37000 410.000
28.38500 400.000
28.40000 413.000
28.41500 422.000
28.43000 408.000
28.44500 394.000
28.46000 395.000
28.47500 425.000
28.49000 444.000
28.50500 427.000
28.52000 417.000
28.53500 424.000
28.55000 438.000
28.56500 445.000
28.58000 467.000
28.59500 462.000
28.61000 450.000
28.62500 471.000
28.64000 459.000
28.65500 470.000
28.67000 470.000
28.68500 462.000
28.70000 495.000
28.71500 497.000
28.73000 532.000
28.74500 506.000
28.76000 451.000
28.77500 516.000
28.79000 537.000
28.80500 561.000
28.82000 580.000
28.83500 552.000
28.85000 553.000
28.86500 530.000
28.88000 534.000
28.89500 533.000
28.91000 486.000
28.92500 539.000
28.94000 542.000
28.95500 534.000
28.97000 545.000
28.98500 524.000
29.00000 509.000
29.01500 483.000
29.03000 485.000
29.04500 487.000
29.06000 450.000
29.07500 488.000
29.09000 470.000
29.10500 435.000
29.12000 446.000
29.13500 462.000
29.15000 443.000
29.16500 475.000
29.18000 424.000
29.19500 441.000
29.21000 416.000
29.22500 409.000
29.24000 390.000
29.25500 384.000
29.27000 402.000
29.28500 417.000
29.30000 396.000
29.31500 380.000
29.33000 374.000
29.34500 405.000
29.36000 409.000
29.37500 396.000
29.39000 383.000
29.40500 368.000
29.42000 374.000
29.43500 359.000
29.45000 369.000
29.46500 365.000
29.48000 352.000
29.49500 367.000
29.51000 350.000
29.52500 327.000
29.54000 347.000
29.55500 360.000
29.57000 376.000
29.58500 361.000
29.60000 319.000
29.61500 324.000
29.63000 303.000
29.64500 322.000
29.66000 330.000
29.67500 354.000
29.69000 339.000
29.70500 308.000
29.72000 325.000
29.73500 344.000
29.75000 345.000
29.76500 324.000
29.78000 324.000
29.79500 339.000
29.81000 349.000
29.82500 342.000
29.84000 328.000
29.85500 344.000
29.87000 310.000
29.88500 309.000
29.90000 297.000
29.91500 293.000
29.93000 308.000
29.94500 302.000
29.96000 283.000
29.97500 309.000
29.99000 314.000
30.00500 313.000
30.02000 323.000
30.03500 310.000
30.05000 319.000
30.06500 289.000
30.08000 306.000
30.09500 285.000
30.11000 278.000
30.12500 289.000
30.14000 285.000
30.15500 275.000
30.17000 285.000
30.18500 301.000
30.20000 276.000
30.21500 291.000
30.23000 290.000
30.24500 295.000
30.26000 270.000
30.27500 263.000
30.29000 275.000
30.30500 293.000
30.32000 298.000
30.33500 284.000
30.35000 263.000
30.36500 306.000
30.38000 263.000
30.39500 277.000
30.41000 272.000
30.42500 285.000
30.44000 272.000
30.45500 260.000
30.47000 266.000
30.48500 273.000
30.50000 269.000
30.51500 270.000
30.53000 278.000
30.54500 292.000
30.56000 282.000
30.57500 278.000
30.59000 284.000
30.60500 294.000
30.62000 256.000
30.63500 270.000
30.65000 271.000
30.66500 261.000
30.68000 267.000
30.69500 253.000
30.71000 271.000
30.72500 257.000
30.74000 279.000
30.75500 296.000
30.77000 277.000
30.78500 266.000
30.80000 261.000
30.81500 260.000
30.83000 240.000
30.84500 249.000
30.86000 258.000
30.87500 297.000
30.89000 289.000
30.90500 297.000
30.92000 276.000
30.93500 266.000
30.95000 267.000
30.96500 267.000
30.98000 269.000
30.99500 274.000
31.01000 277.000
31.02500 271.000
31.04000 245.000
31.05500 255.000
31.07000 265.000
31.08500 265.000
31.10000 277.000
31.11500 265.000
31.13000 288.000
31.14500 276.000
31.16000 262.000
31.17500 252.000
31.19000 268.000
31.20500 299.000
31.22000 279.000
31.23500 284.000
31.25000 278.000
31.26500 258.000
31.28000 254.000
31.29500 280.000
31.31000 273.000
31.32500 254.000
31.34000 273.000
31.35500 268.000
31.37000 263.000
31.38500 273.000
31.40000 262.000
31.41500 277.000
31.43000 255.000
31.44500 267.000
31.46000 277.000
31.47500 266.000
31.49000 276.000
31.50500 267.000
31.52000 287.000
31.53500 257.000
31.55000 264.000
31.56500 268.000
31.58000 270.000
31.59500 271.000
31.61000 265.000
31.62500 263.000
31.64000 259.000
31.65500 253.000
31.67000 285.000
31.68500 290.000
31.70000 279.000
31.71500 262.000
31.73000 298.000
31.74500 300.000
31.76000 275.000
31.77500 269.000
31.79000 293.000
31.80500 287.000
31.82000 294.000
31.83500 286.000
31.85000 283.000
31.86500 305.000
31.88000 286.000
31.89500 280.000
31.91000 278.000
31.92500 291.000
31.94000 277.000
31.95500 273.000
31.97000 304.000
31.98500 296.000
32.00000 312.000
32.01500 323.000
32.03000 331.000
32.04500 316.000
32.06000 357.000
32.07500 335.000
32.09000 373.000
32.10500 356.000
32.12000 367.000
32.13500 386.000
32.15000 394.000
32.16500 474.000
32.18000 477.000
32.19500 512.000
32.21000 575.000
32.22500 622.000
32.24000 645.000
32.25500 705.000
32.27000 778.000
32.28500 861.000
32.30000 958.000
32.31500 1063.000
32.33000 1185.000
32.34500 1359.000
32.36000 1462.000
32.37500 1575.000
32.39000 1566.000
32.40500 1511.000
32.42000 1399.000
32.43500 1243.000
32.45000 1119.000
32.46500 1058.000
32.48000 1002.000
32.49500 953.000
32.51000 919.000
32.52500 883.000
32.54000 873.000
32.55500 824.000
32.57000 813.000
32.58500 796.000
32.60000 783.000
32.61500 741.000
32.63000 694.000
32.64500 661.000
32.66000 646.000
32.67500 695.000
32.69000 654.000
32.70500 602.000
32.72000 602.000
32.73500 623.000
32.75000 616.000
32.76500 607.000
32.78000 611.000
32.79500 597.000
32.81000 589.000
32.82500 572.000
32.84000 574.000
32.85500 587.000
32.87000 560.000
32.88500 568.000
32.90000 564.000
32.91500 594.000
32.93000 591.000
32.94500 571.000
32.96000 602.000
32.97500 601.000
32.99000 643.000
33.00500 681.000
33.02000 662.000
33.03500 741.000
33.05000 749.000
33.06500 749.000
33.08000 759.000
33.09500 774.000
33.11000 758.000
33.12500 737.000
33.14000 706.000
33.15500 636.000
33.17000 613.000
33.18500 567.000
33.20000 568.000
33.21500 536.000
33.23000 473.000
33.24500 478.000
33.26000 426.000
33.27500 458.000
33.29000 418.000
33.30500 416.000
33.32000 446.000
33.33500 403.000
33.35000 404.000
33.36500 407.000
33.38000 401.000
33.39500 401.000
33.41000 374.000
33.42500 384.000
33.44000 377.000
33.45500 354.000
33.47000 379.000
33.48500 387.000
33.50000 344.000
33.51500 371.000
33.53000 358.000
33.54500 360.000
33.56000 342.000
33.57500 347.000
33.59000 346.000
33.60500 318.000
33.62000 319.000
33.63500 346.000
33.65000 335.000
33.66500 378.000
33.68000 351.000
33.69500 364.000
33.71000 367.000
33.72500 347.000
33.74000 355.000
33.75500 333.000
33.77000 321.000
33.78500 331.000
33.80000 316.000
33.81500 297.000
33.83000 323.000
33.84500 316.000
33.86000 306.000
33.87500 288.000
33.89000 310.000
33.90500 311.000
33.92000 298.000
33.93500 304.000
33.95000 284.000
33.96500 299.000
33.98000 286.000
33.99500 269.000
34.01000 272.000
34.02500 290.000
34.04000 292.000
34.05500 277.000
34.07000 286.000
34.08500 266.000
34.10000 269.000
34.11500 278.000
34.13000 308.000
34.14500 270.000
34.16000 293.000
34.17500 272.000
34.19000 264.000
34.20500 274.000
34.22000 263.000
34.23500 254.000
34.25000 268.000
34.26500 248.000
34.28000 267.000
34.29500 288.000
34.31000 263.000
34.32500 261.000
34.34000 255.000
34.35500 276.000
34.37000 278.000
34.38500 263.000
34.40000 280.000
34.41500 265.000
34.43000 258.000
34.44500 266.000
34.46000 265.000
34.47500 242.000
34.49000 260.000
34.50500 255.000
34.52000 245.000
34.53500 263.000
34.55000 267.000
34.56500 260.000
34.58000 266.000
34.59500 283.000
34.61000 286.000
34.62500 260.000
34.64000 263.000
34.65500 261.000
34.67000 244.000
34.68500 246.000
34.70000 252.000
34.71500 243.000
34.73000 239.000
34.74500 254.000
34.76000 268.000
34.77500 295.000
34.79000 285.000
34.80500 276.000
34.82000 281.000
34.83500 289.000
34.85000 259.000
34.86500 289.000
34.88000 280.000
34.89500 285.000
34.91000 295.000
34.92500 304.000
34.94000 316.000
34.95500 327.000
34.97000 327.000
34.98500 319.000
35.00000 321.000
35.01500 300.000
35.03000 288.000
35.04500 318.000
35.06000 344.000
35.07500 377.000
35.09000 367.000
35.10500 363.000
35.12000 359.000
35.13500 348.000
35.15000 354.000
35.16500 366.000
35.18000 343.000
35.19500 337.000
35.21000 345.000
35.22500 311.000
35.24000 330.000
35.25500 334.000
35.27000 336.000
35.28500 346.000
35.30000 325.000
35.31500 301.000
35.33000 293.000
35.34500 298.000
35.36000 276.000
35.37500 286.000
35.39000 256.000
35.40500 264.000
35.42000 273.000
35.43500 244.000
35.45000 253.000
35.46500 246.000
35.48000 267.000
35.49500 270.000
35.51000 257.000
35.52500 255.000
35.54000 253.000
35.55500 236.000
35.57000 266.000
35.58500 247.000
35.60000 237.000
35.61500 230.000
35.63000 235.000
35.64500 220.000
35.66000 239.000
35.67500 244.000
35.69000 240.000
35.70500 241.000
35.72000 222.000
35.73500 232.000
35.75000 232.000
35.76500 231.000
35.78000 237.000
35.79500 225.000
35.81000 231.000
35.82500 221.000
35.84000 228.000
35.85500 239.000
35.87000 225.000
35.88500 247.000
35.90000 236.000
35.91500 230.000
35.93000 248.000
35.94500 226.000
35.96000 210.000
35.97500 217.000
35.99000 247.000
36.00500 221.000
36.02000 215.000
36.03500 236.000
36.05000 225.000
36.06500 227.000
36.08000 228.000
36.09500 201.000
36.11000 225.000
36.12500 226.000
36.14000 207.000
36.15500 230.000
36.17000 223.000
36.18500 220.000
36.20000 232.000
36.21500 207.000
36.23000 208.000
36.24500 223.000
36.26000 236.000
36.27500 217.000
36.29000 223.000
36.30500 213.000
36.32000 198.000
36.33500 220.000
36.35000 230.000
36.36500 197.000
36.38000 214.000
36.39500 214.000
36.41000 200.000
36.42500 202.000
36.44000 202.000
36.45500 205.000
36.47000 228.000
36.48500 210.000
36.50000 220.000
36.51500 198.000
36.53000 220.000
36.54500 196.000
36.56000 207.000
36.57500 216.000
36.59000 211.000
36.60500 208.000
36.62000 212.000
36.63500 191.000
36.65000 182.000
36.66500 198.000
36.68000 197.000
36.69500 196.000
36.71000 201.000
36.72500 204.000
36.74000 223.000
36.75500 205.000
36.77000 214.000
36.78500 218.000
36.80000 216.000
36.81500 211.000
36.83000 216.000
36.84500 238.000
36.86000 218.000
36.87500 230.000
36.89000 208.000
36.90500 211.000
36.92000 214.000
36.93500 204.000
36.95000 206.000
36.96500 193.000
36.98000 207.000
36.99500 211.000
37.01000 183.000
37.02500 192.000
37.04000 187.000
37.05500 210.000
37.07000 221.000
37.08500 199.000
37.10000 211.000
37.11500 196.000
37.13000 207.000
37.14500 236.000
37.16000 199.000
37.17500 194.000
37.19000 188.000
37.20500 185.000
37.22000 201.000
37.23500 198.000
37.25000 189.000
37.26500 190.000
37.28000 208.000
37.29500 211.000
37.31000 187.000
37.32500 189.000
37.34000 199.000
37.35500 203.000
37.37000 204.000
37.38500 181.000
37.40000 196.000
37.41500 202.000
37.43000 184.000
37.44500 184.000
37.46000 210.000
37.47500 205.000
37.49000 204.000
37.50500 185.000
37.52000 196.000
37.53500 197.000
37.55000 194.000
37.56500 181.000
37.58000 184.000
37.59500 189.000
37.61000 210.000
37.62500 182.000
37.64000 198.000
37.65500 209.000
37.67000 192.000
37.68500 196.000
37.70000 190.000
37.71500 160.000
37.73000 200.000
37.74500 203.000
37.76000 207.000
37.77500 198.000
37.79000 197.000
37.80500 193.000
37.82000 202.000
37.83500 203.000
37.85000 200.000
37.86500 189.000
37.88000 184.000
37.89500 209.000
37.91000 196.000
37.92500 194.000
37.94000 216.000
37.95500 215.000
37.97000 210.000
37.98500 205.000
38.00000 198.000
38.01500 201.000
38.03000 188.000
38.04500 203.000
38.06000 199.000
38.07500 217.000
38.09000 218.000
38.10500 209.000
38.12000 220.000
38.13500 210.000
38.15000 224.000
38.16500 224.000
38.18000 222.000
38.19500 211.000
38.21000 209.000
38.22500 236.000
38.24000 237.000
38.25500 230.000
38.27000 228.000
38.28500 233.000
38.30000 229.000
38.31500 221.000
38.33000 228.000
38.34500 228.000
38.36000 244.000
38.37500 251.000
38.39000 240.000
38.40500 238.000
38.42000 242.000
38.43500 249.000
38.45000 217.000
38.46500 232.000
38.48000 211.000
38.49500 219.000
38.51000 216.000
38.52500 239.000
38.54000 217.000
38.55500 192.000
38.57000 182.000
38.58500 211.000
38.60000 200.000
38.61500 203.000
38.63000 217.000
38.64500 209.000
38.66000 220.000
38.67500 201.000
38.69000 216.000
38.70500 208.000
38.72000 185.000
38.73500 186.000
38.75000 182.000
38.76500 200.000
38.78000 234.000
38.79500 201.000
38.81000 185.000
38.82500 191.000
38.84000 197.000
38.85500 199.000
38.87000 196.000
38.88500 179.000
38.90000 186.000
38.91500 185.000
38.93000 182.000
38.94500 205.000
38.96000 205.000
38.97500 216.000
38.99000 202.000
39.00500 182.000
39.02000 180.000
39.03500 181.000
39.05000 173.000
39.06500 185.000
39.08000 178.000
39.09500 170.000
39.11000 182.000
39.12500 174.000
39.14000 171.000
39.15500 195.000
39.17000 174.000
39.18500 178.000
39.20000 208.000
39.21500 183.000
39.23000 175.000
39.24500 180.000
39.26000 191.000
39.27500 185.000
39.29000 192.000
39.30500 190.000
39.32000 179.000
39.33500 175.000
39.35000 193.000
39.36500 176.000
39.38000 183.000
39.39500 180.000
39.41000 195.000
39.42500 177.000
39.44000 170.000
39.45500 185.000
39.47000 183.000
39.48500 179.000
39.50000 177.000
39.51500 184.000
39.53000 202.000
39.54500 200.000
39.56000 189.000
39.57500 180.000
39.59000 187.000
39.60500 187.000
39.62000 183.000
39.63500 200.000
39.65000 177.000
39.66500 187.000
39.68000 192.000
39.69500 196.000
39.71000 181.000
39.72500 198.000
39.74000 193.000
39.75500 183.000
39.77000 186.000
39.78500 186.000
39.80000 168.000
39.81500 174.000
39.83000 183.000
39.84500 185.000
39.86000 195.000
39.87500 219.000
39.89000 204.000
39.90500 206.000
39.92000 186.000
39.93500 188.000
39.95000 186.000
39.96500 180.000
39.98000 198.000
39.99500 205.000
40.01000 193.000
40.02500 191.000
40.04000 189.000
40.05500 189.000
40.07000 216.000
40.08500 206.000
40.10000 211.000
40.11500 207.000
40.13000 222.000
40.14500 205.000
40.16000 192.000
40.17500 196.000
40.19000 200.000
40.20500 183.000
40.22000 199.000
40.23500 207.000
40.25000 204.000
40.26500 189.000
40.28000 215.000
40.29500 200.000
40.31000 184.000
40.32500 194.000
40.34000 187.000
40.35500 184.000
40.37000 179.000
40.38500 191.000
40.40000 206.000
40.41500 192.000
40.43000 192.000
40.44500 205.000
40.46000 184.000
40.47500 183.000
40.49000 200.000
40.50500 181.000
40.52000 178.000
40.53500 204.000
40.55000 190.000
40.56500 192.000
40.58000 211.000
40.59500 192.000
40.61000 199.000
40.62500 189.000
40.64000 214.000
40.65500 215.000
40.67000 217.000
40.68500 223.000
40.70000 222.000
40.71500 204.000
40.73000 212.000
40.74500 213.000
40.76000 218.000
40.77500 216.000
40.79000 219.000
40.80500 192.000
40.82000 211.000
40.83500 206.000
40.85000 189.000
40.86500 196.000
40.88000 175.000
40.89500 203.000
40.91000 187.000
40.92500 186.000
40.94000 197.000
40.95500 185.000
40.97000 178.000
40.98500 183.000
41.00000 170.000
41.01500 196.000
41.03000 212.000
41.04500 189.000
41.06000 180.000
41.07500 173.000
41.09000 184.000
41.10500 160.000
41.12000 182.000
41.13500 202.000
41.15000 183.000
41.16500 183.000
41.18000 182.000
41.19500 186.000
41.21000 171.000
41.22500 171.000
41.24000 181.000
41.25500 189.000
41.27000 179.000
41.28500 173.000
41.30000 192.000
41.31500 184.000
41.33000 173.000
41.34500 164.000
41.36000 187.000
41.37500 180.000
41.39000 174.000
41.40500 163.000
41.42000 173.000
41.43500 177.000
41.45000 182.000
41.46500 194.000
41.48000 203.000
41.49500 197.000
41.51000 177.000
41.52500 178.000
41.54000 191.000
41.55500 177.000
41.57000 189.000
41.58500 188.000
41.60000 180.000
41.61500 196.000
41.63000 187.000
41.64500 182.000
41.66000 192.000
41.67500 185.000
41.69000 184.000
41.70500 204.000
41.72000 197.000
41.73500 169.000
41.75000 166.000
41.76500 185.000
41.78000 187.000
41.79500 180.000
41.81000 174.000
41.82500 170.000
41.84000 184.000
41.85500 179.000
41.87000 182.000
41.88500 182.000
41.90000 192.000
41.91500 181.000
41.93000 174.000
41.94500 186.000
41.96000 181.000
41.97500 196.000
41.99000 185.000
42.00500 171.000
42.02000 180.000
42.03500 183.000
42.05000 195.000
42.06500 183.000
42.08000 173.000
42.09500 181.000
42.11000 184.000
42.12500 188.000
42.14000 186.000
42.15500 185.000
42.17000 200.000
42.18500 192.000
42.20000 197.000
42.21500 190.000
42.23000 186.000
42.24500 193.000
42.26000 184.000
42.27500 179.000
42.29000 184.000
42.30500 181.000
42.32000 198.000
42.33500 197.000
42.35000 207.000
42.36500 185.000
42.38000 203.000
42.39500 197.000
42.41000 205.000
42.42500 200.000
42.44000 199.000
42.45500 195.000
42.47000 202.000
42.48500 210.000
42.50000 215.000
42.51500 235.000
42.53000 234.000
42.54500 225.000
42.56000 242.000
42.57500 206.000
42.59000 232.000
42.60500 223.000
42.62000 240.000
42.63500 256.000
42.65000 265.000
42.66500 295.000
42.68000 274.000
42.69500 288.000
42.71000 292.000
42.72500 356.000
42.74000 351.000
42.75500 331.000
42.77000 453.000
42.78500 511.000
42.80000 550.000
42.81500 618.000
42.83000 589.000
42.84500 600.000
42.86000 533.000
42.87500 483.000
42.89000 407.000
42.90500 394.000
42.92000 367.000
42.93500 356.000
42.95000 324.000
42.96500 322.000
42.98000 327.000
42.99500 342.000
43.01000 347.000
43.02500 313.000
43.04000 315.000
43.05500 320.000
43.07000 282.000
43.08500 314.000
43.10000 294.000
43.11500 288.000
43.13000 285.000
43.14500 291.000
43.16000 300.000
43.17500 295.000
43.19000 272.000
43.20500 279.000
43.22000 283.000
43.23500 284.000
43.25000 269.000
43.26500 264.000
43.28000 280.000
43.29500 276.000
43.31000 267.000
43.32500 274.000
43.34000 279.000
43.35500 295.000
43.37000 277.000
43.38500 294.000
43.40000 269.000
43.41500 285.000
43.43000 250.000
43.44500 235.000
43.46000 248.000
43.47500 258.000
43.49000 250.000
43.50500 242.000
43.52000 221.000
43.53500 240.000
43.55000 234.000
43.56500 233.000
43.58000 225.000
43.59500 230.000
43.61000 244.000
43.62500 237.000
43.64000 202.000
43.65500 218.000
43.67000 213.000
43.68500 198.000
43.70000 201.000
43.71500 209.000
43.73000 203.000
43.74500 196.000
43.76000 192.000
43.77500 206.000
43.79000 204.000
43.80500 218.000
43.82000 216.000
43.83500 218.000
43.85000 200.000
43.86500 212.000
43.88000 221.000
43.89500 202.000
43.91000 211.000
43.92500 215.000
43.94000 217.000
43.95500 219.000
43.97000 193.000
43.98500 189.000
44.00000 183.000
44.01500 215.000
44.03000 221.000
44.04500 196.000
44.06000 226.000
44.07500 242.000
44.09000 209.000
44.10500 201.000
44.12000 195.000
44.13500 217.000
44.15000 207.000
44.16500 204.000
44.18000 211.000
44.19500 198.000
44.21000 207.000
44.22500 227.000
44.24000 207.000
44.25500 206.000
44.27000 209.000
44.28500 202.000
44.30000 194.000
44.31500 208.000
44.33000 204.000
44.34500 214.000
44.36000 218.000
44.37500 216.000
44.39000 219.000
44.40500 211.000
44.42000 208.000
44.43500 215.000
44.45000 237.000
44.46500 225.000
44.48000 236.000
44.49500 265.000
44.51000 267.000
44.52500 284.000
44.54000 290.000
44.55500 280.000
44.57000 278.000
44.58500 293.000
44.60000 304.000
44.61500 312.000
44.63000 328.000
44.64500 368.000
44.66000 360.000
44.67500 344.000
44.69000 377.000
44.70500 360.000
44.72000 351.000
44.73500 332.000
44.75000 297.000
44.76500 284.000
44.78000 279.000
44.79500 286.000
44.81000 273.000
44.82500 264.000
44.84000 286.000
44.85500 281.000
44.87000 267.000
44.88500 269.000
44.90000 286.000
44.91500 270.000
44.93000 252.000
44.94500 260.000
44.96000 272.000
44.97500 275.000
44.99000 280.000
45.00500 277.000
45.02000 261.000
45.03500 274.000
45.05000 270.000
45.06500 267.000
45.08000 271.000
45.09500 277.000
45.11000 281.000
45.12500 248.000
45.14000 246.000
45.15500 265.000
45.17000 246.000
45.18500 256.000
45.20000 237.000
45.21500 275.000
45.23000 260.000
45.24500 221.000
45.26000 238.000
45.27500 244.000
45.29000 244.000
45.30500 234.000
45.32000 237.000
45.33500 261.000
45.35000 253.000
45.36500 226.000
45.38000 220.000
45.39500 259.000
45.41000 251.000
45.42500 235.000
45.44000 235.000
45.45500 224.000
45.47000 230.000
45.48500 216.000
45.50000 206.000
45.51500 248.000
45.53000 237.000
45.54500 239.000
45.56000 237.000
45.57500 208.000
45.59000 218.000
45.60500 220.000
45.62000 230.000
45.63500 240.000
45.65000 231.000
45.66500 232.000
45.68000 225.000
45.69500 222.000
45.71000 205.000
45.72500 226.000
45.74000 209.000
45.75500 213.000
45.77000 226.000
45.78500 221.000
45.80000 210.000
45.81500 201.000
45.83000 189.000
45.84500 208.000
45.86000 222.000
45.87500 209.000
45.89000 215.000
45.90500 223.000
45.92000 190.000
45.93500 229.000
45.95000 235.000
45.96500 200.000
45.98000 199.000
45.99500 208.000
46.01000 213.000
46.02500 206.000
46.04000 227.000
46.05500 219.000
46.07000 223.000
46.08500 217.000
46.10000 213.000
46.11500 210.000
46.13000 222.000
46.14500 247.000
46.16000 224.000
46.17500 236.000
46.19000 215.000
46.20500 207.000
46.22000 213.000
46.23500 229.000
46.25000 221.000
46.26500 231.000
46.28000 218.000
46.29500 218.000
46.31000 211.000
46.32500 207.000
46.34000 207.000
46.35500 224.000
46.37000 219.000
46.38500 220.000
46.40000 233.000
46.41500 214.000
46.43000 234.000
46.44500 223.000
46.46000 205.000
46.47500 204.000
46.49000 211.000
46.50500 196.000
46.52000 230.000
46.53500 224.000
46.55000 177.000
46.56500 181.000
46.58000 196.000
46.59500 219.000
46.61000 211.000
46.62500 203.000
46.64000 215.000
46.65500 208.000
46.67000 186.000
46.68500 207.000
46.70000 212.000
46.71500 195.000
46.73000 211.000
46.74500 227.000
46.76000 215.000
46.77500 212.000
46.79000 214.000
46.80500 220.000
46.82000 212.000
46.83500 212.000
46.85000 227.000
46.86500 217.000
46.88000 211.000
46.89500 216.000
46.91000 225.000
46.92500 221.000
46.94000 212.000
46.95500 191.000
46.97000 212.000
46.98500 201.000
47.00000 196.000
47.01500 210.000
47.03000 215.000
47.04500 204.000
47.06000 218.000
47.07500 204.000
47.09000 201.000
47.10500 218.000
47.12000 231.000
47.13500 207.000
47.15000 217.000
47.16500 223.000
47.18000 202.000
47.19500 223.000
47.21000 220.000
47.22500 211.000
47.24000 218.000
47.25500 223.000
47.27000 211.000
47.28500 237.000
47.30000 242.000
47.31500 233.000
47.33000 242.000
47.34500 255.000
47.36000 236.000
47.37500 225.000
47.39000 237.000
47.40500 222.000
47.42000 237.000
47.43500 250.000
47.45000 256.000
47.46500 250.000
47.48000 245.000
47.49500 260.000
47.51000 267.000
47.52500 245.000
47.54000 247.000
47.55500 254.000
47.57000 266.000
47.58500 253.000
47.60000 243.000
47.61500 235.000
47.63000 267.000
47.64500 257.000
47.66000 261.000
47.67500 242.000
47.69000 250.000
47.70500 236.000
47.72000 249.000
47.73500 229.000
47.75000 254.000
47.76500 238.000
47.78000 230.000
47.79500 227.000
47.81000 256.000
47.82500 235.000
47.84000 212.000
47.85500 223.000
47.87000 246.000
47.88500 243.000
47.90000 243.000
47.91500 250.000
47.93000 245.000
47.94500 242.000
47.96000 212.000
47.97500 231.000
47.99000 213.000
48.00500 204.000
48.02000 223.000
48.03500 225.000
48.05000 239.000
48.06500 215.000
48.08000 219.000
48.09500 247.000
48.11000 221.000
48.12500 214.000
48.14000 211.000
48.15500 198.000
48.17000 207.000
48.18500 203.000
48.20000 225.000
48.21500 229.000
48.23000 203.000
48.24500 200.000
48.26000 218.000
48.27500 232.000
48.29000 215.000
48.30500 206.000
48.32000 221.000
48.33500 213.000
48.35000 214.000
48.36500 227.000
48.38000 213.000
48.39500 205.000
48.41000 184.000
48.42500 184.000
48.44000 211.000
48.45500 201.000
48.47000 196.000
48.48500 203.000
48.50000 193.000
48.51500 207.000
48.53000 210.000
48.54500 217.000
48.56000 212.000
48.57500 204.000
48.59000 222.000
48.60500 216.000
48.62000 195.000
48.63500 199.000
48.65000 182.000
48.66500 200.000
48.68000 197.000
48.69500 232.000
48.71000 194.000
48.72500 195.000
48.74000 214.000
48.75500 208.000
48.77000 223.000
48.78500 193.000
48.80000 191.000
48.81500 190.000
48.83000 171.000
48.84500 204.000
48.86000 206.000
48.87500 201.000
48.89000 199.000
48.90500 195.000
48.92000 187.000
48.93500 188.000
48.95000 189.000
48.96500 201.000
48.98000 210.000
48.99500 193.000
49.01000 186.000
49.02500 184.000
49.04000 218.000
49.05500 231.000
49.07000 179.000
49.08500 214.000
49.10000 201.000
49.11500 208.000
49.13000 189.000
49.14500 202.000
49.16000 201.000
49.17500 184.000
49.19000 195.000
49.20500 220.000
49.22000 217.000
49.23500 220.000
49.25000 210.000
49.26500 197.000
49.28000 202.000
49.29500 230.000
49.31000 214.000
49.32500 190.000
49.34000 200.000
49.35500 234.000
49.37000 240.000
49.38500 207.000
49.40000 217.000
49.41500 219.000
49.43000 226.000
49.44500 213.000
49.46000 219.000
49.47500 230.000
49.49000 227.000
49.50500 200.000
49.52000 212.000
49.53500 246.000
49.55000 247.000
49.56500 237.000
49.58000 221.000
49.59500 251.000
49.61000 248.000
49.62500 248.000
49.64000 281.000
49.65500 271.000
49.67000 264.000
49.68500 258.000
49.70000 321.000
49.71500 312.000
49.73000 319.000
49.74500 351.000
49.76000 384.000
49.77500 407.000
49.79000 403.000
49.80500 507.000
49.82000 556.000
49.83500 589.000
49.85000 599.000
49.86500 612.000
49.88000 608.000
49.89500 555.000
49.91000 506.000
49.92500 445.000
49.94000 422.000
49.95500 362.000
49.97000 347.000
49.98500 370.000
50.00000 354.000
50.01500 287.000
50.03000 308.000
50.04500 298.000
50.06000 275.000
50.07500 280.000
50.09000 269.000
50.10500 259.000
50.12000 259.000
50.13500 255.000
50.15000 256.000
50.16500 230.000
50.18000 237.000
50.19500 232.000
50.21000 229.000
50.22500 220.000
50.24000 230.000
50.25500 249.000
50.27000 238.000
50.28500 242.000
50.30000 220.000
50.31500 208.000
50.33000 218.000
50.34500 224.000
50.36000 233.000
50.37500 219.000
50.39000 226.000
50.40500 221.000
50.42000 203.000
50.43500 198.000
50.45000 199.000
50.46500 204.000
50.48000 206.000
50.49500 216.000
50.51000 192.000
50.52500 198.000
50.54000 197.000
50.55500 193.000
50.57000 204.000
50.58500 184.000
50.60000 196.000
50.61500 188.000
50.63000 194.000
50.64500 182.000
50.66000 179.000
50.67500 187.000
50.69000 200.000
50.70500 195.000
50.72000 181.000
50.73500 191.000
50.75000 174.000
50.76500 200.000
50.78000 189.000
50.79500 203.000
50.81000 205.000
50.82500 191.000
50.84000 202.000
50.85500 203.000
50.87000 204.000
50.88500 199.000
50.90000 186.000
50.91500 190.000
50.93000 180.000
50.94500 183.000
50.96000 189.000
50.97500 191.000
50.99000 194.000
51.00500 180.000
51.02000 192.000
51.03500 172.000
51.05000 195.000
51.06500 193.000
51.08000 211.000
51.09500 188.000
51.11000 176.000
51.12500 184.000
51.14000 172.000
51.15500 186.000
51.17000 200.000
51.18500 193.000
51.20000 170.000
51.21500 206.000
51.23000 183.000
51.24500 193.000
51.26000 171.000
51.27500 168.000
51.29000 172.000
51.30500 192.000
51.32000 173.000
51.33500 173.000
51.35000 184.000
51.36500 188.000
51.38000 188.000
51.39500 196.000
51.41000 174.000
51.42500 176.000
51.44000 174.000
51.45500 161.000
51.47000 165.000
51.48500 182.000
51.50000 196.000
51.51500 170.000
51.53000 185.000
51.54500 198.000
51.56000 188.000
51.57500 173.000
51.59000 193.000
51.60500 188.000
51.62000 179.000
51.63500 179.000
51.65000 165.000
51.66500 177.000
51.68000 177.000
51.69500 191.000
51.71000 174.000
51.72500 174.000
51.74000 169.000
51.75500 170.000
51.77000 182.000
51.78500 194.000
51.80000 175.000
51.81500 184.000
51.83000 183.000
51.84500 207.000
51.86000 180.000
51.87500 174.000
51.89000 178.000
51.90500 180.000
51.92000 176.000
51.93500 182.000
51.95000 177.000
51.96500 183.000
51.98000 192.000
51.99500 183.000
52.01000 196.000
52.02500 162.000
52.04000 187.000
52.05500 205.000
52.07000 193.000
52.08500 176.000
52.10000 169.000
52.11500 193.000
52.13000 180.000
52.14500 162.000
52.16000 176.000
52.17500 177.000
52.19000 180.000
52.20500 164.000
52.22000 203.000
52.23500 190.000
52.25000 170.000
52.26500 192.000
52.28000 192.000
52.29500 190.000
52.31000 156.000
52.32500 173.000
52.34000 172.000
52.35500 186.000
52.37000 180.000
52.38500 177.000
52.40000 173.000
52.41500 178.000
52.43000 164.000
52.44500 160.000
52.46000 195.000
52.47500 187.000
52.49000 187.000
52.50500 189.000
52.52000 203.000
52.53500 184.000
52.55000 180.000
52.56500 176.000
52.58000 173.000
52.59500 187.000
52.61000 206.000
52.62500 200.000
52.64000 195.000
52.65500 214.000
52.67000 184.000
52.68500 172.000
52.70000 185.000
52.71500 178.000
52.73000 202.000
52.74500 182.000
52.76000 172.000
52.77500 181.000
52.79000 196.000
52.80500 197.000
52.82000 178.000
52.83500 186.000
52.85000 180.000
52.86500 172.000
52.88000 178.000
52.89500 187.000
52.91000 179.000
52.92500 200.000
52.94000 191.000
52.95500 191.000
52.97000 181.000
52.98500 185.000
53.00000 187.000
53.01500 191.000
53.03000 190.000
53.04500 177.000
53.06000 186.000
53.07500 171.000
53.09000 200.000
53.10500 214.000
53.12000 199.000
53.13500 199.000
53.15000 209.000
53.16500 210.000
53.18000 207.000
53.19500 188.000
53.21000 176.000
53.22500 192.000
53.24000 187.000
53.25500 179.000
53.27000 172.000
53.28500 165.000
53.30000 177.000
53.31500 191.000
53.33000 189.000
53.34500 173.000
53.36000 192.000
53.37500 192.000
53.39000 199.000
53.40500 181.000
53.42000 172.000
53.43500 200.000
53.45000 181.000
53.46500 178.000
53.48000 175.000
53.49500 185.000
53.51000 196.000
53.52500 189.000
53.54000 179.000
53.55500 182.000
53.57000 167.000
53.58500 181.000
53.60000 178.000
53.61500 175.000
53.63000 186.000
53.64500 209.000
53.66000 183.000
53.67500 188.000
53.69000 182.000
53.70500 176.000
53.72000 182.000
53.73500 178.000
53.75000 166.000
53.76500 162.000
53.78000 165.000
53.79500 188.000
53.81000 198.000
53.82500 167.000
53.84000 177.000
53.85500 157.000
53.87000 183.000
53.88500 190.000
53.90000 180.000
53.91500 180.000
53.93000 188.000
53.94500 190.000
53.96000 178.000
53.97500 176.000
53.99000 193.000
54.00500 183.000
54.02000 203.000
54.03500 175.000
54.05000 185.000
54.06500 184.000
54.08000 182.000
54.09500 194.000
54.11000 210.000
54.12500 216.000
54.14000 201.000
54.15500 202.000
54.17000 190.000
54.18500 188.000
54.20000 190.000
54.21500 193.000
54.23000 209.000
54.24500 194.000
54.26000 197.000
54.27500 190.000
54.29000 207.000
54.30500 207.000
54.32000 210.000
54.33500 210.000
54.35000 194.000
54.36500 206.000
54.38000 200.000
54.39500 192.000
54.41000 184.000
54.42500 195.000
54.44000 204.000
54.45500 204.000
54.47000 214.000
54.48500 214.000
54.50000 212.000
54.51500 202.000
54.53000 218.000
54.54500 209.000
54.56000 199.000
54.57500 214.000
54.59000 244.000
54.60500 211.000
54.62000 209.000
54.63500 226.000
54.65000 247.000
54.66500 248.000
54.68000 262.000
54.69500 253.000
54.71000 247.000
54.72500 240.000
54.74000 215.000
54.75500 233.000
54.77000 232.000
54.78500 197.000
54.80000 203.000
54.81500 219.000
54.83000 201.000
54.84500 219.000
54.86000 209.000
54.87500 181.000
54.89000 204.000
54.90500 201.000
54.92000 199.000
54.93500 188.000
54.95000 197.000
54.96500 201.000
54.98000 189.000
54.99500 190.000
55.01000 210.000
55.02500 196.000
55.04000 227.000
55.05500 201.000
55.07000 197.000
55.08500 170.000
55.10000 202.000
55.11500 196.000
55.13000 181.000
55.14500 200.000
55.16000 211.000
55.17500 210.000
55.19000 194.000
55.20500 181.000
55.22000 200.000
55.23500 206.000
55.25000 181.000
55.26500 178.000
55.28000 191.000
55.29500 177.000
55.31000 182.000
55.32500 186.000
55.34000 187.000
55.35500 176.000
55.37000 187.000
55.38500 185.000
55.40000 207.000
55.41500 187.000
55.43000 183.000
55.44500 177.000
55.46000 170.000
55.47500 165.000
55.49000 173.000
55.50500 167.000
55.52000 183.000
55.53500 192.000
55.55000 184.000
55.56500 177.000
55.58000 166.000
55.59500 176.000
55.61000 179.000
55.62500 171.000
55.64000 169.000
55.65500 178.000
55.67000 164.000
55.68500 160.000
55.70000 144.000
55.71500 156.000
55.73000 174.000
55.74500 186.000
55.76000 177.000
55.77500 161.000
55.79000 158.000
55.80500 170.000
55.82000 170.000
55.83500 167.000
55.85000 185.000
55.86500 157.000
55.88000 164.000
55.89500 176.000
55.91000 178.000
55.92500 186.000
55.94000 198.000
55.95500 178.000
55.97000 169.000
55.98500 170.000
56.00000 171.000
56.01500 163.000
56.03000 154.000
56.04500 158.000
56.06000 163.000
56.07500 157.000
56.09000 165.000
56.10500 166.000
56.12000 170.000
56.13500 168.000
56.15000 156.000
56.16500 168.000
56.18000 167.000
56.19500 166.000
56.21000 179.000
56.22500 168.000
56.24000 142.000
56.25500 163.000
56.27000 171.000
56.28500 172.000
56.30000 178.000
56.31500 174.000
56.33000 154.000
56.34500 159.000
56.36000 169.000
56.37500 172.000
56.39000 176.000
56.40500 174.000
56.42000 171.000
56.43500 180.000
56.45000 181.000
56.46500 173.000
56.48000 163.000
56.49500 172.000
56.51000 172.000
56.52500 170.000
56.54000 154.000
56.55500 158.000
56.57000 171.000
56.58500 169.000
56.60000 166.000
56.61500 164.000
56.63000 164.000
56.64500 171.000
56.66000 164.000
56.67500 165.000
56.69000 172.000
56.70500 154.000
56.72000 154.000
56.73500 164.000
56.75000 192.000
56.76500 166.000
56.78000 172.000
56.79500 169.000
56.81000 171.000
56.82500 150.000
56.84000 168.000
56.85500 161.000
56.87000 150.000
56.88500 163.000
56.90000 170.000
56.91500 164.000
56.93000 171.000
56.94500 165.000
56.96000 176.000
56.97500 153.000
56.99000 178.000
57.00500 172.000
57.02000 166.000
57.03500 155.000
57.05000 162.000
57.06500 171.000
57.08000 173.000
57.09500 150.000
57.11000 171.000
57.12500 180.000
57.14000 168.000
57.15500 170.000
57.17000 155.000
57.18500 157.000
57.20000 180.000
57.21500 161.000
57.23000 158.000
57.24500 162.000
57.26000 184.000
57.27500 169.000
57.29000 161.000
57.30500 168.000
57.32000 174.000
57.33500 160.000
57.35000 154.000
57.36500 185.000
57.38000 188.000
57.39500 188.000
57.41000 183.000
57.42500 188.000
57.44000 199.000
57.45500 189.000
57.47000 214.000
57.48500 205.000
57.50000 203.000
57.51500 212.000
57.53000 178.000
57.54500 191.000
57.56000 198.000
57.57500 212.000
57.59000 209.000
57.60500 221.000
57.62000 217.000
57.63500 215.000
57.65000 219.000
57.66500 232.000
57.68000 242.000
57.69500 273.000
57.71000 280.000
57.72500 277.000
57.74000 267.000
57.75500 270.000
57.77000 288.000
57.78500 280.000
57.80000 269.000
57.81500 246.000
57.83000 240.000
57.84500 218.000
57.86000 205.000
57.87500 210.000
57.89000 213.000
57.90500 201.000
57.92000 196.000
57.93500 209.000
57.95000 194.000
57.96500 190.000
57.98000 203.000
57.99500 225.000
58.01000 185.000
58.02500 184.000
58.04000 175.000
58.05500 175.000
58.07000 186.000
58.08500 184.000
58.10000 173.000
58.11500 159.000
58.13000 172.000
58.14500 166.000
58.16000 187.000
58.17500 163.000
58.19000 181.000
58.20500 169.000
58.22000 179.000
58.23500 185.000
58.25000 155.000
58.26500 178.000
58.28000 170.000
58.29500 177.000
58.31000 168.000
58.32500 168.000
58.34000 152.000
58.35500 186.000
58.37000 191.000
58.38500 176.000
58.40000 167.000
58.41500 170.000
58.43000 167.000
58.44500 168.000
58.46000 164.000
58.47500 173.000
58.49000 162.000
58.50500 166.000
58.52000 163.000
58.53500 158.000
58.55000 166.000
58.56500 162.000
58.58000 153.000
58.59500 177.000
58.61000 169.000
58.62500 159.000
58.64000 158.000
58.65500 158.000
58.67000 155.000
58.68500 177.000
58.70000 163.000
58.71500 168.000
58.73000 180.000
58.74500 187.000
58.76000 183.000
58.77500 170.000
58.79000 157.000
58.80500 169.000
58.82000 171.000
58.83500 159.000
58.85000 167.000
58.86500 169.000
58.88000 161.000
58.89500 169.000
58.91000 160.000
58.92500 172.000
58.94000 177.000
58.95500 165.000
58.97000 149.000
58.98500 154.000
59.00000 155.000
59.01500 169.000
59.03000 164.000
59.04500 170.000
59.06000 154.000
59.07500 166.000
59.09000 189.000
59.10500 189.000
59.12000 162.000
59.13500 143.000
59.15000 149.000
59.16500 167.000
59.18000 158.000
59.19500 161.000
59.21000 152.000
59.22500 168.000
59.24000 167.000
59.25500 160.000
59.27000 161.000
59.28500 135.000
59.30000 153.000
59.31500 150.000
59.33000 159.000
59.34500 165.000
59.36000 147.000
59.37500 144.000
59.39000 149.000
59.40500 142.000
59.42000 147.000
59.43500 152.000
59.45000 157.000
59.46500 166.000
59.48000 175.000
59.49500 174.000
59.51000 156.000
59.52500 153.000
59.54000 148.000
59.55500 165.000
59.57000 154.000
59.58500 173.000
59.60000 162.000
59.61500 176.000
59.63000 180.000
59.64500 162.000
59.66000 169.000
59.67500 174.000
59.69000 161.000
59.70500 164.000
59.72000 151.000
59.73500 163.000
59.75000 150.000
59.76500 157.000
59.78000 146.000
59.79500 161.000
59.81000 164.000
59.82500 169.000
59.84000 165.000
59.85500 174.000
59.87000 166.000
59.88500 141.000
59.90000 151.000
59.91500 153.000
59.93000 179.000
59.94500 145.000
59.96000 151.000
59.97500 162.000
59.99000 172.000
60.00500 152.000
60.02000 140.000
60.03500 157.000
60.05000 157.000
60.06500 157.000
60.08000 178.000
60.09500 180.000
60.11000 150.000
60.12500 171.000
60.14000 159.000
60.15500 165.000
60.17000 153.000
60.18500 142.000
60.20000 152.000
60.21500 158.000
60.23000 175.000
60.24500 162.000
60.26000 138.000
60.27500 135.000
60.29000 139.000
60.30500 158.000
60.32000 149.000
60.33500 154.000
60.35000 177.000
60.36500 157.000
60.38000 157.000
60.39500 148.000
60.41000 151.000
60.42500 159.000
60.44000 167.000
60.45500 157.000
60.47000 153.000
60.48500 151.000
60.50000 140.000
60.51500 150.000
60.53000 135.000
60.54500 124.000
60.56000 125.000
60.57500 154.000
60.59000 160.000
60.60500 162.000
60.62000 152.000
60.63500 158.000
60.65000 155.000
60.66500 150.000
60.68000 146.000
60.69500 169.000
60.71000 148.000
60.72500 151.000
60.74000 155.000
60.75500 160.000
60.77000 155.000
60.78500 151.000
60.80000 158.000
60.81500 142.000
60.83000 152.000
60.84500 148.000
60.86000 173.000
60.87500 148.000
60.89000 159.000
60.90500 165.000
60.92000 137.000
60.93500 144.000
60.95000 141.000
60.96500 169.000
60.98000 149.000
60.99500 148.000
61.01000 143.000
61.02500 171.000
61.04000 171.000
61.05500 142.000
61.07000 159.000
61.08500 147.000
61.10000 156.000
61.11500 142.000
61.13000 127.000
61.14500 142.000
61.16000 145.000
61.17500 158.000
61.19000 154.000
61.20500 140.000
61.22000 155.000
61.23500 164.000
61.25000 174.000
61.26500 153.000
61.28000 144.000
61.29500 139.000
61.31000 159.000
61.32500 170.000
61.34000 161.000
61.35500 160.000
61.37000 166.000
61.38500 138.000
61.40000 152.000
61.41500 163.000
61.43000 150.000
61.44500 160.000
61.46000 150.000
61.47500 166.000
61.49000 171.000
61.50500 167.000
61.52000 146.000
61.53500 181.000
61.55000 162.000
61.56500 154.000
61.58000 162.000
61.59500 168.000
61.61000 154.000
61.62500 148.000
61.64000 167.000
61.65500 170.000
61.67000 169.000
61.68500 182.000
61.70000 173.000
61.71500 169.000
61.73000 175.000
61.74500 183.000
61.76000 170.000
61.77500 146.000
61.79000 158.000
61.80500 174.000
61.82000 192.000
61.83500 172.000
61.85000 177.000
61.86500 170.000
61.88000 166.000
61.89500 153.000
61.91000 154.000
61.92500 159.000
61.94000 166.000
61.95500 167.000
61.97000 169.000
61.98500 171.000
