2.00000    7.000
2.01500    10.000
2.03000    9.000
2.04500    6.000
2.06000    9.000
2.07500    7.000
2.09000    8.000
2.10500    6.000
2.12000    6.000
2.13500    6.000
2.15000    7.000
2.16500    5.000
2.18000    5.000
2.19500    7.000
2.21000    7.000
2.22500    11.000
2.24000    4.000
2.25500    3.000
2.27000    4.000
2.28500    8.000
2.30000    4.000
2.31500    10.000
2.33000    5.000
2.34500    4.000
2.36000    5.000
2.37500    7.000
2.39000    5.000
2.40500    5.000
2.42000    8.000
2.43500    10.000
2.45000    9.000
2.46500    4.000
2.48000    4.000
2.49500    7.000
2.51000    7.000
2.52500    7.000
2.54000    5.000
2.55500    5.000
2.57000    7.000
2.58500    6.000
2.60000    8.000
2.61500    9.000
2.63000    6.000
2.64500    11.000
2.66000    6.000
2.67500    3.000
2.69000    5.000
2.70500    9.000
2.72000    6.000
2.73500    9.000
2.75000    11.000
2.76500    10.000
2.78000    8.000
2.79500    5.000
2.81000    4.000
2.82500    5.000
2.84000    7.000
2.85500    8.000
2.87000    4.000
2.88500    7.000
2.90000    9.000
2.91500    6.000
2.93000    5.000
2.94500    6.000
2.96000    11.000
2.97500    7.000
2.99000    9.000
3.00500    7.000
3.02000    10.000
3.03500    4.000
3.05000    6.000
3.06500    7.000
3.08000    4.000
3.09500    6.000
3.11000    8.000
3.12500    10.000
3.14000    6.000
3.15500    18.000
3.17000    20.000
3.18500    27.000
3.20000    42.000
3.21500    65.000
3.23000    79.000
3.24500    119.000
3.26000    173.000
3.27500    221.000
3.29000    288.000
3.30500    353.000
3.32000    425.000
3.33500    475.000
3.35000    489.000
3.36500    465.000
3.38000    507.000
3.39500    500.000
3.41000    485.000
3.42500    494.000
3.44000    508.000
3.45500    504.000
3.47000    510.000
3.48500    496.000
3.50000    467.000
3.51500    484.000
3.53000    472.000
3.54500    477.000
3.56000    485.000
3.57500    483.000
3.59000    498.000
3.60500    500.000
3.62000    501.000
3.63500    477.000
3.65000    492.000
3.66500    469.000
3.68000    475.000
3.69500    460.000
3.71000    470.000
3.72500    468.000
3.74000    485.000
3.75500    462.000
3.77000    432.000
3.78500    454.000
3.80000    468.000
3.81500    467.000
3.83000    442.000
3.84500    464.000
3.86000    460.000
3.87500    469.000
3.89000    477.000
3.90500    466.000
3.92000    459.000
3.93500    467.000
3.95000    456.000
3.96500    490.000
3.98000    467.000
3.99500    449.000
4.01000    440.000
4.02500    453.000
4.04000    482.000
4.05500    475.000
4.07000    461.000
4.08500    452.000
4.10000    455.000
4.11500    475.000
4.13000    463.000
4.14500    467.000
4.16000    460.000
4.17500    436.000
4.19000    509.000
4.20500    461.000
4.22000    471.000
4.23500    507.000
4.25000    505.000
4.26500    459.000
4.28000    443.000
4.29500    462.000
4.31000    455.000
4.32500    445.000
4.34000    457.000
4.35500    446.000
4.37000    465.000
4.38500    452.000
4.40000    464.000
4.41500    464.000
4.43000    462.000
4.44500    462.000
4.46000    441.000
4.47500    458.000
4.49000    432.000
4.50500    468.000
4.52000    500.000
4.53500    448.000
4.55000    418.000
4.56500    432.000
4.58000    420.000
4.59500    451.000
4.61000    469.000
4.62500    454.000
4.64000    444.000
4.65500    429.000
4.67000    432.000
4.68500    434.000
4.70000    447.000
4.71500    439.000
4.73000    471.000
4.74500    462.000
4.76000    456.000
4.77500    467.000
4.79000    464.000
4.80500    479.000
4.82000    437.000
4.83500    445.000
4.85000    430.000
4.86500    466.000
4.88000    455.000
4.89500    465.000
4.91000    453.000
4.92500    442.000
4.94000    457.000
4.95500    463.000
4.97000    453.000
4.98500    467.000
5.00000    454.000
5.01500    475.000
5.03000    449.000
5.04500    466.000
5.06000    466.000
5.07500    463.000
5.09000    484.000
5.10500    455.000
5.12000    449.000
5.13500    451.000
5.15000    476.000
5.16500    467.000
5.18000    480.000
5.19500    487.000
5.21000    466.000
5.22500    475.000
5.24000    486.000
5.25500    461.000
5.27000    486.000
5.28500    449.000
5.30000    474.000
5.31500    463.000
5.33000    423.000
5.34500    444.000
5.36000    465.000
5.37500    488.000
5.39000    464.000
5.40500    489.000
5.42000    491.000
5.43500    456.000
5.45000    460.000
5.46500    458.000
5.48000    464.000
5.49500    467.000
5.51000    480.000
5.52500    477.000
5.54000    462.000
5.55500    499.000
5.57000    506.000
5.58500    492.000
5.60000    468.000
5.61500    455.000
5.63000    464.000
5.64500    453.000
5.66000    415.000
5.67500    493.000
5.69000    467.000
5.70500    498.000
5.72000    487.000
5.73500    516.000
5.75000    488.000
5.76500    469.000
5.78000    465.000
5.79500    474.000
5.81000    492.000
5.82500    476.000
5.84000    461.000
5.85500    467.000
5.87000    464.000
5.88500    462.000
5.90000    496.000
5.91500    462.000
5.93000    483.000
5.94500    491.000
5.96000    494.000
5.97500    476.000
5.99000    488.000
6.00500    495.000
6.02000    488.000
6.03500    485.000
6.05000    475.000
6.06500    486.000
6.08000    467.000
6.09500    462.000
6.11000    492.000
6.12500    494.000
6.14000    476.000
6.15500    507.000
6.17000    511.000
6.18500    483.000
6.20000    471.000
6.21500    480.000
6.23000    522.000
6.24500    466.000
6.26000    481.000
6.27500    463.000
6.29000    474.000
6.30500    471.000
6.32000    477.000
6.33500    484.000
6.35000    494.000
6.36500    465.000
6.38000    471.000
6.39500    512.000
6.41000    504.000
6.42500    471.000
6.44000    489.000
6.45500    520.000
6.47000    489.000
6.48500    484.000
6.50000    495.000
6.51500    467.000
6.53000    485.000
6.54500    519.000
6.56000    500.000
6.57500    505.000
6.59000    518.000
6.60500    477.000
6.62000    446.000
6.63500    488.000
6.65000    473.000
6.66500    501.000
6.68000    513.000
6.69500    476.000
6.71000    485.000
6.72500    474.000
6.74000    487.000
6.75500    508.000
6.77000    493.000
6.78500    497.000
6.80000    528.000
6.81500    503.000
6.83000    482.000
6.84500    475.000
6.86000    484.000
6.87500    467.000
6.89000    544.000
6.90500    534.000
6.92000    505.000
6.93500    510.000
6.95000    498.000
6.96500    496.000
6.98000    483.000
6.99500    496.000
7.01000    497.000
7.02500    513.000
7.04000    519.000
7.05500    523.000
7.07000    528.000
7.08500    522.000
7.10000    470.000
7.11500    470.000
7.13000    486.000
7.14500    510.000
7.16000    504.000
7.17500    503.000
7.19000    513.000
7.20500    532.000
7.22000    513.000
7.23500    527.000
7.25000    523.000
7.26500    524.000
7.28000    526.000
7.29500    501.000
7.31000    491.000
7.32500    524.000
7.34000    517.000
7.35500    530.000
7.37000    487.000
7.38500    498.000
7.40000    490.000
7.41500    504.000
7.43000    518.000
7.44500    527.000
7.46000    521.000
7.47500    526.000
7.49000    525.000
7.50500    532.000
7.52000    558.000
7.53500    523.000
7.55000    539.000
7.56500    536.000
7.58000    497.000
7.59500    509.000
7.61000    521.000
7.62500    520.000
7.64000    499.000
7.65500    520.000
7.67000    528.000
7.68500    517.000
7.70000    542.000
7.71500    510.000
7.73000    504.000
7.74500    540.000
7.76000    517.000
7.77500    501.000
7.79000    514.000
7.80500    520.000
7.82000    516.000
7.83500    507.000
7.85000    518.000
7.86500    524.000
7.88000    507.000
7.89500    527.000
7.91000    553.000
7.92500    562.000
7.94000    509.000
7.95500    523.000
7.97000    554.000
7.98500    546.000
8.00000    547.000
8.01500    554.000
8.03000    533.000
8.04500    557.000
8.06000    571.000
8.07500    527.000
8.09000    532.000
8.10500    546.000
8.12000    505.000
8.13500    541.000
8.15000    561.000
8.16500    548.000
8.18000    515.000
8.19500    528.000
8.21000    531.000
8.22500    548.000
8.24000    542.000
8.25500    499.000
8.27000    521.000
8.28500    553.000
8.30000    548.000
8.31500    541.000
8.33000    526.000
8.34500    550.000
8.36000    548.000
8.37500    528.000
8.39000    583.000
8.40500    575.000
8.42000    541.000
8.43500    526.000
8.45000    551.000
8.46500    567.000
8.48000    541.000
8.49500    549.000
8.51000    543.000
8.52500    566.000
8.54000    579.000
8.55500    548.000
8.57000    556.000
8.58500    567.000
8.60000    597.000
8.61500    545.000
8.63000    495.000
8.64500    551.000
8.66000    566.000
8.67500    556.000
8.69000    552.000
8.70500    574.000
8.72000    543.000
8.73500    556.000
8.75000    522.000
8.76500    514.000
8.78000    522.000
8.79500    539.000
8.81000    549.000
8.82500    547.000
8.84000    548.000
8.85500    560.000
8.87000    531.000
8.88500    559.000
8.90000    587.000
8.91500    527.000
8.93000    553.000
8.94500    579.000
8.96000    597.000
8.97500    589.000
8.99000    594.000
9.00500    577.000
9.02000    520.000
9.03500    569.000
9.05000    550.000
9.06500    544.000
9.08000    504.000
9.09500    536.000
9.11000    572.000
9.12500    577.000
9.14000    559.000
9.15500    587.000
9.17000    565.000
9.18500    553.000
9.20000    553.000
9.21500    569.000
9.23000    569.000
9.24500    556.000
9.26000    560.000
9.27500    559.000
9.29000    558.000
9.30500    594.000
9.32000    567.000
9.33500    554.000
9.35000    571.000
9.36500    570.000
9.38000    547.000
9.39500    539.000
9.41000    559.000
9.42500    566.000
9.44000    552.000
9.45500    630.000
9.47000    562.000
9.48500    573.000
9.50000    561.000
9.51500    590.000
9.53000    571.000
9.54500    595.000
9.56000    596.000
9.57500    579.000
9.59000    555.000
9.60500    553.000
9.62000    555.000
9.63500    523.000
9.65000    555.000
9.66500    531.000
9.68000    565.000
9.69500    573.000
9.71000    572.000
9.72500    524.000
9.74000    529.000
9.75500    513.000
9.77000    542.000
9.78500    562.000
9.80000    567.000
9.81500    574.000
9.83000    577.000
9.84500    575.000
9.86000    562.000
9.87500    568.000
9.89000    587.000
9.90500    584.000
9.92000    578.000
9.93500    554.000
9.95000    585.000
9.96500    564.000
9.98000    614.000
9.99500    586.000
10.01000    578.000
10.02500    561.000
10.04000    569.000
10.05500    585.000
10.07000    562.000
10.08500    578.000
10.10000    579.000
10.11500    597.000
10.13000    599.000
10.14500    576.000
10.16000    607.000
10.17500    596.000
10.19000    588.000
10.20500    560.000
10.22000    566.000
10.23500    587.000
10.25000    566.000
10.26500    573.000
10.28000    592.000
10.29500    580.000
10.31000    645.000
10.32500    604.000
10.34000    602.000
10.35500    575.000
10.37000    629.000
10.38500    642.000
10.40000    617.000
10.41500    616.000
10.43000    612.000
10.44500    602.000
10.46000    612.000
10.47500    628.000
10.49000    565.000
10.50500    630.000
10.52000    625.000
10.53500    622.000
10.55000    624.000
10.56500    639.000
10.58000    594.000
10.59500    606.000
10.61000    604.000
10.62500    589.000
10.64000    603.000
10.65500    594.000
10.67000    636.000
10.68500    631.000
10.70000    599.000
10.71500    626.000
10.73000    581.000
10.74500    587.000
10.76000    585.000
10.77500    692.000
10.79000    673.000
10.80500    603.000
10.82000    625.000
10.83500    618.000
10.85000    655.000
10.86500    628.000
10.88000    613.000
10.89500    618.000
10.91000    611.000
10.92500    625.000
10.94000    609.000
10.95500    620.000
10.97000    623.000
10.98500    648.000
11.00000    635.000
11.01500    626.000
11.03000    626.000
11.04500    615.000
11.06000    635.000
11.07500    624.000
11.09000    599.000
11.10500    646.000
11.12000    627.000
11.13500    654.000
11.15000    651.000
11.16500    619.000
11.18000    632.000
11.19500    634.000
11.21000    604.000
11.22500    639.000
11.24000    652.000
11.25500    672.000
11.27000    613.000
11.28500    609.000
11.30000    668.000
11.31500    664.000
11.33000    607.000
11.34500    628.000
11.36000    662.000
11.37500    644.000
11.39000    648.000
11.40500    642.000
11.42000    640.000
11.43500    656.000
11.45000    651.000
11.46500    619.000
11.48000    643.000
11.49500    704.000
11.51000    689.000
11.52500    626.000
11.54000    624.000
11.55500    700.000
11.57000    628.000
11.58500    635.000
11.60000    672.000
11.61500    659.000
11.63000    644.000
11.64500    649.000
11.66000    615.000
11.67500    680.000
11.69000    673.000
11.70500    625.000
11.72000    670.000
11.73500    697.000
11.75000    651.000
11.76500    665.000
11.78000    689.000
11.79500    702.000
11.81000    699.000
11.82500    684.000
11.84000    629.000
11.85500    664.000
11.87000    658.000
11.88500    650.000
11.90000    699.000
11.91500    639.000
11.93000    638.000
11.94500    675.000
11.96000    674.000
11.97500    686.000
11.99000    696.000
12.00500    698.000
12.02000    705.000
12.03500    725.000
12.05000    688.000
12.06500    659.000
12.08000    673.000
12.09500    683.000
12.11000    684.000
12.12500    715.000
12.14000    725.000
12.15500    718.000
12.17000    754.000
12.18500    735.000
12.20000    730.000
12.21500    719.000
12.23000    719.000
12.24500    749.000
12.26000    715.000
12.27500    731.000
12.29000    736.000
12.30500    796.000
12.32000    759.000
12.33500    746.000
12.35000    784.000
12.36500    766.000
12.38000    795.000
12.39500    808.000
12.41000    787.000
12.42500    832.000
12.44000    819.000
12.45500    801.000
12.47000    810.000
12.48500    833.000
12.50000    834.000
12.51500    834.000
12.53000    868.000
12.54500    911.000
12.56000    900.000
12.57500    880.000
12.59000    913.000
12.60500    916.000
12.62000    921.000
12.63500    923.000
12.65000    929.000
12.66500    916.000
12.68000    962.000
12.69500    989.000
12.71000    990.000
12.72500    951.000
12.74000    930.000
12.75500    1008.000
12.77000    984.000
12.78500    982.000
12.80000    983.000
12.81500    959.000
12.83000    917.000
12.84500    908.000
12.86000    942.000
12.87500    979.000
12.89000    969.000
12.90500    941.000
12.92000    995.000
12.93500    963.000
12.95000    965.000
12.96500    978.000
12.98000    976.000
12.99500    982.000
13.01000    981.000
13.02500    1011.000
13.04000    996.000
13.05500    991.000
13.07000    955.000
13.08500    1024.000
13.10000    937.000
13.11500    1016.000
13.13000    982.000
13.14500    980.000
13.16000    978.000
13.17500    984.000
13.19000    1012.000
13.20500    949.000
13.22000    956.000
13.23500    983.000
13.25000    1032.000
13.26500    1007.000
13.28000    985.000
13.29500    1009.000
13.31000    996.000
13.32500    983.000
13.34000    976.000
13.35500    973.000
13.37000    958.000
13.38500    960.000
13.40000    972.000
13.41500    993.000
13.43000    966.000
13.44500    986.000
13.46000    979.000
13.47500    942.000
13.49000    953.000
13.50500    911.000
13.52000    943.000
13.53500    956.000
13.55000    902.000
13.56500    927.000
13.58000    914.000
13.59500    938.000
13.61000    938.000
13.62500    985.000
13.64000    934.000
13.65500    961.000
13.67000    930.000
13.68500    886.000
13.70000    889.000
13.71500    925.000
13.73000    875.000
13.74500    929.000
13.76000    919.000
13.77500    894.000
13.79000    882.000
13.80500    872.000
13.82000    884.000
13.83500    894.000
13.85000    883.000
13.86500    843.000
13.88000    890.000
13.89500    868.000
13.91000    888.000
13.92500    884.000
13.94000    904.000
13.95500    878.000
13.97000    842.000
13.98500    886.000
14.00000    850.000
14.01500    878.000
14.03000    856.000
14.04500    813.000
14.06000    840.000
14.07500    867.000
14.09000    860.000
14.10500    889.000
14.12000    874.000
14.13500    917.000
14.15000    897.000
14.16500    865.000
14.18000    846.000
14.19500    846.000
14.21000    841.000
14.22500    882.000
14.24000    828.000
14.25500    844.000
14.27000    857.000
14.28500    842.000
14.30000    846.000
14.31500    843.000
14.33000    804.000
14.34500    803.000
14.36000    785.000
14.37500    855.000
14.39000    827.000
14.40500    819.000
14.42000    796.000
14.43500    782.000
14.45000    821.000
14.46500    817.000
14.48000    843.000
14.49500    848.000
14.51000    829.000
14.52500    812.000
14.54000    816.000
14.55500    817.000
14.57000    827.000
14.58500    812.000
14.60000    817.000
14.61500    841.000
14.63000    846.000
14.64500    768.000
14.66000    784.000
14.67500    848.000
14.69000    877.000
14.70500    847.000
14.72000    786.000
14.73500    782.000
14.75000    798.000
14.76500    826.000
14.78000    802.000
14.79500    797.000
14.81000    773.000
14.82500    792.000
14.84000    793.000
14.85500    786.000
14.87000    786.000
14.88500    822.000
14.90000    802.000
14.91500    757.000
14.93000    793.000
14.94500    842.000
14.96000    794.000
14.97500    845.000
14.99000    826.000
15.00500    815.000
15.02000    804.000
15.03500    813.000
15.05000    782.000
15.06500    769.000
15.08000    778.000
15.09500    778.000
15.11000    807.000
15.12500    764.000
15.14000    767.000
15.15500    762.000
15.17000    791.000
15.18500    763.000
15.20000    778.000
15.21500    777.000
15.23000    777.000
15.24500    768.000
15.26000    730.000
15.27500    780.000
15.29000    793.000
15.30500    788.000
15.32000    786.000
15.33500    754.000
15.35000    764.000
15.36500    783.000
15.38000    785.000
15.39500    776.000
15.41000    775.000
15.42500    799.000
15.44000    748.000
15.45500    758.000
15.47000    788.000
15.48500    777.000
15.50000    753.000
15.51500    771.000
15.53000    777.000
15.54500    777.000
15.56000    810.000
15.57500    783.000
15.59000    807.000
15.60500    762.000
15.62000    776.000
15.63500    794.000
15.65000    814.000
15.66500    770.000
15.68000    810.000
15.69500    803.000
15.71000    760.000
15.72500    760.000
15.74000    743.000
15.75500    754.000
15.77000    768.000
15.78500    781.000
15.80000    769.000
15.81500    762.000
15.83000    745.000
15.84500    762.000
15.86000    782.000
15.87500    746.000
15.89000    756.000
15.90500    778.000
15.92000    752.000
15.93500    772.000
15.95000    777.000
15.96500    770.000
15.98000    794.000
15.99500    784.000
16.01000    790.000
16.02500    810.000
16.04000    760.000
16.05500    808.000
16.07000    792.000
16.08500    791.000
16.10000    736.000
16.11500    691.000
16.13000    767.000
16.14500    794.000
16.16000    762.000
16.17500    794.000
16.19000    821.000
16.20500    766.000
16.22000    795.000
16.23500    803.000
16.25000    818.000
16.26500    799.000
16.28000    786.000
16.29500    763.000
16.31000    781.000
16.32500    789.000
16.34000    768.000
16.35500    752.000
16.37000    795.000
16.38500    782.000
16.40000    797.000
16.41500    788.000
16.43000    789.000
16.44500    770.000
16.46000    785.000
16.47500    764.000
16.49000    801.000
16.50500    753.000
16.52000    743.000
16.53500    786.000
16.55000    759.000
16.56500    780.000
16.58000    744.000
16.59500    777.000
16.61000    777.000
16.62500    795.000
16.64000    758.000
16.65500    755.000
16.67000    784.000
16.68500    744.000
16.70000    746.000
16.71500    718.000
16.73000    745.000
16.74500    766.000
16.76000    781.000
16.77500    776.000
16.79000    806.000
16.80500    783.000
16.82000    827.000
16.83500    785.000
16.85000    806.000
16.86500    770.000
16.88000    771.000
16.89500    800.000
16.91000    786.000
16.92500    796.000
16.94000    769.000
16.95500    820.000
16.97000    779.000
16.98500    807.000
17.00000    788.000
17.01500    791.000
17.03000    786.000
17.04500    781.000
17.06000    802.000
17.07500    828.000
17.09000    840.000
17.10500    761.000
17.12000    807.000
17.13500    822.000
17.15000    767.000
17.16500    793.000
17.18000    801.000
17.19500    823.000
17.21000    795.000
17.22500    814.000
17.24000    751.000
17.25500    796.000
17.27000    796.000
17.28500    780.000
17.30000    820.000
17.31500    811.000
17.33000    806.000
17.34500    775.000
17.36000    784.000
17.37500    743.000
17.39000    802.000
17.40500    772.000
17.42000    765.000
17.43500    823.000
17.45000    796.000
17.46500    782.000
17.48000    793.000
17.49500    824.000
17.51000    816.000
17.52500    851.000
17.54000    794.000
17.55500    790.000
17.57000    796.000
17.58500    835.000
17.60000    810.000
17.61500    834.000
17.63000    820.000
17.64500    829.000
17.66000    807.000
17.67500    817.000
17.69000    814.000
17.70500    818.000
17.72000    804.000
17.73500    808.000
17.75000    798.000
17.76500    826.000
17.78000    810.000
17.79500    832.000
17.81000    829.000
17.82500    835.000
17.84000    871.000
17.85500    811.000
17.87000    797.000
17.88500    821.000
17.90000    825.000
17.91500    821.000
17.93000    819.000
17.94500    816.000
17.96000    792.000
17.97500    827.000
17.99000    845.000
18.00500    811.000
18.02000    818.000
18.03500    810.000
18.05000    815.000
18.06500    820.000
18.08000    810.000
18.09500    808.000
18.11000    797.000
18.12500    804.000
18.14000    771.000
18.15500    813.000
18.17000    825.000
18.18500    814.000
18.20000    813.000
18.21500    828.000
18.23000    807.000
18.24500    787.000
18.26000    778.000
18.27500    778.000
18.29000    808.000
18.30500    811.000
18.32000    807.000
18.33500    811.000
18.35000    761.000
18.36500    778.000
18.38000    808.000
18.39500    823.000
18.41000    824.000
18.42500    845.000
18.44000    794.000
18.45500    796.000
18.47000    816.000
18.48500    823.000
18.50000    810.000
18.51500    788.000
18.53000    808.000
18.54500    786.000
18.56000    841.000
18.57500    790.000
18.59000    818.000
18.60500    799.000
18.62000    797.000
18.63500    813.000
18.65000    821.000
18.66500    859.000
18.68000    805.000
18.69500    803.000
18.71000    804.000
18.72500    828.000
18.74000    800.000
18.75500    810.000
18.77000    813.000
18.78500    787.000
18.80000    795.000
18.81500    796.000
18.83000    806.000
18.84500    776.000
18.86000    802.000
18.87500    828.000
18.89000    852.000
18.90500    803.000
18.92000    773.000
18.93500    810.000
18.95000    816.000
18.96500    792.000
18.98000    833.000
18.99500    844.000
19.01000    851.000
19.02500    830.000
19.04000    807.000
19.05500    783.000
19.07000    793.000
19.08500    762.000
19.10000    803.000
19.11500    796.000
19.13000    793.000
19.14500    772.000
19.16000    819.000
19.17500    807.000
19.19000    852.000
19.20500    812.000
19.22000    806.000
19.23500    833.000
19.25000    810.000
19.26500    800.000
19.28000    781.000
19.29500    786.000
19.31000    784.000
19.32500    775.000
19.34000    801.000
19.35500    851.000
19.37000    789.000
19.38500    815.000
19.40000    828.000
19.41500    785.000
19.43000    792.000
19.44500    802.000
19.46000    781.000
19.47500    784.000
19.49000    757.000
19.50500    749.000
19.52000    742.000
19.53500    773.000
19.55000    801.000
19.56500    773.000
19.58000    778.000
19.59500    782.000
19.61000    809.000
19.62500    765.000
19.64000    736.000
19.65500    818.000
19.67000    838.000
19.68500    793.000
19.70000    749.000
19.71500    762.000
19.73000    753.000
19.74500    752.000
19.76000    816.000
19.77500    798.000
19.79000    766.000
19.80500    800.000
19.82000    783.000
19.83500    812.000
19.85000    798.000
19.86500    795.000
19.88000    772.000
19.89500    758.000
19.91000    783.000
19.92500    774.000
19.94000    757.000
19.95500    800.000
19.97000    807.000
19.98500    790.000
20.00000    784.000
20.01500    797.000
20.03000    823.000
20.04500    850.000
20.06000    811.000
20.07500    781.000
20.09000    807.000
20.10500    825.000
20.12000    828.000
20.13500    783.000
20.15000    756.000
20.16500    787.000
20.18000    764.000
20.19500    804.000
20.21000    778.000
20.22500    807.000
20.24000    776.000
20.25500    798.000
20.27000    768.000
20.28500    781.000
20.30000    775.000
20.31500    805.000
20.33000    773.000
20.34500    731.000
20.36000    750.000
20.37500    715.000
20.39000    797.000
20.40500    803.000
20.42000    763.000
20.43500    792.000
20.45000    750.000
20.46500    806.000
20.48000    808.000
20.49500    750.000
20.51000    800.000
20.52500    804.000
20.54000    760.000
20.55500    783.000
20.57000    785.000
20.58500    782.000
20.60000    759.000
20.61500    789.000
20.63000    782.000
20.64500    762.000
20.66000    757.000
20.67500    767.000
20.69000    812.000
20.70500    795.000
20.72000    814.000
20.73500    826.000
20.75000    851.000
20.76500    792.000
20.78000    803.000
20.79500    816.000
20.81000    792.000
20.82500    853.000
20.84000    815.000
20.85500    805.000
20.87000    803.000
20.88500    790.000
20.90000    795.000
20.91500    803.000
20.93000    823.000
20.94500    794.000
20.96000    797.000
20.97500    772.000
20.99000    835.000
21.00500    823.000
21.02000    760.000
21.03500    784.000
21.05000    783.000
21.06500    805.000
21.08000    770.000
21.09500    822.000
21.11000    824.000
21.12500    821.000
21.14000    797.000
21.15500    834.000
21.17000    783.000
21.18500    777.000
21.20000    820.000
21.21500    772.000
21.23000    785.000
21.24500    801.000
21.26000    809.000
21.27500    792.000
21.29000    809.000
21.30500    790.000
21.32000    839.000
21.33500    826.000
21.35000    831.000
21.36500    809.000
21.38000    836.000
21.39500    838.000
21.41000    810.000
21.42500    819.000
21.44000    802.000
21.45500    788.000
21.47000    783.000
21.48500    799.000
21.50000    772.000
21.51500    815.000
21.53000    881.000
21.54500    869.000
21.56000    823.000
21.57500    750.000
21.59000    776.000
21.60500    806.000
21.62000    784.000
21.63500    772.000
21.65000    836.000
21.66500    814.000
21.68000    798.000
21.69500    840.000
21.71000    818.000
21.72500    824.000
21.74000    810.000
21.75500    783.000
21.77000    823.000
21.78500    796.000
21.80000    793.000
21.81500    804.000
21.83000    842.000
21.84500    789.000
21.86000    811.000
21.87500    792.000
21.89000    772.000
21.90500    834.000
21.92000    800.000
21.93500    799.000
21.95000    766.000
21.96500    802.000
21.98000    750.000
21.99500    813.000
22.01000    834.000
22.02500    815.000
22.04000    772.000
22.05500    821.000
22.07000    802.000
22.08500    850.000
22.10000    851.000
22.11500    817.000
22.13000    833.000
22.14500    853.000
22.16000    796.000
22.17500    770.000
22.19000    797.000
22.20500    817.000
22.22000    813.000
22.23500    784.000
22.25000    771.000
22.26500    781.000
22.28000    818.000
22.29500    860.000
22.31000    807.000
22.32500    802.000
22.34000    799.000
22.35500    820.000
22.37000    815.000
22.38500    877.000
22.40000    843.000
22.41500    800.000
22.43000    774.000
22.44500    802.000
22.46000    809.000
22.47500    816.000
22.49000    824.000
22.50500    831.000
22.52000    776.000
22.53500    812.000
22.55000    780.000
22.56500    784.000
22.58000    810.000
22.59500    808.000
22.61000    830.000
22.62500    840.000
22.64000    807.000
22.65500    777.000
22.67000    846.000
22.68500    800.000
22.70000    781.000
22.71500    791.000
22.73000    784.000
22.74500    762.000
22.76000    821.000
22.77500    787.000
22.79000    777.000
22.80500    805.000
22.82000    793.000
22.83500    785.000
22.85000    742.000
22.86500    813.000
22.88000    795.000
22.89500    811.000
22.91000    792.000
22.92500    780.000
22.94000    798.000
22.95500    832.000
22.97000    811.000
22.98500    836.000
23.00000    752.000
23.01500    812.000
23.03000    857.000
23.04500    819.000
23.06000    800.000
23.07500    796.000
23.09000    797.000
23.10500    826.000
23.12000    836.000
23.13500    831.000
23.15000    827.000
23.16500    833.000
23.18000    799.000
23.19500    840.000
23.21000    802.000
23.22500    829.000
23.24000    838.000
23.25500    779.000
23.27000    836.000
23.28500    838.000
23.30000    773.000
23.31500    793.000
23.33000    783.000
23.34500    793.000
23.36000    843.000
23.37500    800.000
23.39000    791.000
23.40500    772.000
23.42000    783.000
23.43500    819.000
23.45000    839.000
23.46500    811.000
23.48000    830.000
23.49500    869.000
23.51000    853.000
23.52500    760.000
23.54000    786.000
23.55500    820.000
23.57000    787.000
23.58500    774.000
23.60000    788.000
23.61500    812.000
23.63000    821.000
23.64500    834.000
23.66000    822.000
23.67500    846.000
23.69000    838.000
23.70500    826.000
23.72000    877.000
23.73500    839.000
23.75000    842.000
23.76500    856.000
23.78000    816.000
23.79500    841.000
23.81000    813.000
23.82500    816.000
23.84000    811.000
23.85500    828.000
23.87000    848.000
23.88500    846.000
23.90000    818.000
23.91500    762.000
23.93000    794.000
23.94500    767.000
23.96000    792.000
23.97500    822.000
23.99000    840.000
24.00500    818.000
24.02000    803.000
24.03500    828.000
24.05000    820.000
24.06500    811.000
24.08000    859.000
24.09500    846.000
24.11000    821.000
24.12500    841.000
24.14000    821.000
24.15500    817.000
24.17000    847.000
24.18500    874.000
24.20000    847.000
24.21500    850.000
24.23000    834.000
24.24500    808.000
24.26000    799.000
24.27500    828.000
24.29000    809.000
24.30500    808.000
24.32000    860.000
24.33500    850.000
24.35000    841.000
24.36500    871.000
24.38000    836.000
24.39500    842.000
24.41000    845.000
24.42500    811.000
24.44000    864.000
24.45500    874.000
24.47000    869.000
24.48500    809.000
24.50000    825.000
24.51500    826.000
24.53000    862.000
24.54500    809.000
24.56000    882.000
24.57500    853.000
24.59000    852.000
24.60500    826.000
24.62000    807.000
24.63500    877.000
24.65000    842.000
24.66500    881.000
24.68000    886.000
24.69500    832.000
24.71000    853.000
24.72500    885.000
24.74000    885.000
24.75500    832.000
24.77000    889.000
24.78500    895.000
24.80000    884.000
24.81500    916.000
24.83000    882.000
24.84500    874.000
24.86000    869.000
24.87500    901.000
24.89000    908.000
24.90500    896.000
24.92000    907.000
24.93500    894.000
24.95000    876.000
24.96500    910.000
24.98000    914.000
24.99500    918.000
25.01000    919.000
25.02500    910.000
25.04000    920.000
25.05500    924.000
25.07000    926.000
25.08500    953.000
25.10000    931.000
25.11500    901.000
25.13000    909.000
25.14500    947.000
25.16000    968.000
25.17500    992.000
25.19000    977.000
25.20500    957.000
25.22000    973.000
25.23500    927.000
25.25000    968.000
25.26500    984.000
25.28000    985.000
25.29500    983.000
25.31000    969.000
25.32500    969.000
25.34000    996.000
25.35500    974.000
25.37000    953.000
25.38500    1014.000
25.40000    983.000
25.41500    959.000
25.43000    1011.000
25.44500    990.000
25.46000    1037.000
25.47500    1071.000
25.49000    1043.000
25.50500    1016.000
25.52000    1025.000
25.53500    1031.000
25.55000    1049.000
25.56500    1083.000
25.58000    1027.000
25.59500    1074.000
25.61000    1083.000
25.62500    1105.000
25.64000    1067.000
25.65500    1074.000
25.67000    1107.000
25.68500    1094.000
25.70000    1096.000
25.71500    1053.000
25.73000    1082.000
25.74500    1063.000
25.76000    1078.000
25.77500    1100.000
25.79000    1092.000
25.80500    1144.000
25.82000    1172.000
25.83500    1107.000
25.85000    1096.000
25.86500    1096.000
25.88000    1140.000
25.89500    1154.000
25.91000    1219.000
25.92500    1188.000
25.94000    1225.000
25.95500    1228.000
25.97000    1279.000
25.98500    1250.000
26.00000    1250.000
26.01500    1195.000
26.03000    1249.000
26.04500    1272.000
26.06000    1256.000
26.07500    1288.000
26.09000    1301.000
26.10500    1305.000
26.12000    1264.000
26.13500    1320.000
26.15000    1328.000
26.16500    1349.000
26.18000    1338.000
26.19500    1346.000
26.21000    1373.000
26.22500    1401.000
26.24000    1389.000
26.25500    1440.000
26.27000    1416.000
26.28500    1440.000
26.30000    1438.000
26.31500    1428.000
26.33000    1457.000
26.34500    1465.000
26.36000    1419.000
26.37500    1479.000
26.39000    1497.000
26.40500    1527.000
26.42000    1511.000
26.43500    1530.000
26.45000    1567.000
26.46500    1589.000
26.48000    1663.000
26.49500    1684.000
26.51000    1649.000
26.52500    1660.000
26.54000    1682.000
26.55500    1683.000
26.57000    1726.000
26.58500    1813.000
26.60000    1793.000
26.61500    1752.000
26.63000    1780.000
26.64500    1835.000
26.66000    1821.000
26.67500    1818.000
26.69000    1811.000
26.70500    1918.000
26.72000    1954.000
26.73500    1898.000
26.75000    1928.000
26.76500    2005.000
26.78000    2025.000
26.79500    2053.000
26.81000    2063.000
26.82500    2115.000
26.84000    2142.000
26.85500    2074.000
26.87000    2049.000
26.88500    2115.000
26.90000    2224.000
26.91500    2114.000
26.93000    2226.000
26.94500    2281.000
26.96000    2264.000
26.97500    2360.000
26.99000    2409.000
27.00500    2330.000
27.02000    2428.000
27.03500    2349.000
27.05000    2394.000
27.06500    2397.000
27.08000    2414.000
27.09500    2460.000
27.11000    2514.000
27.12500    2479.000
27.14000    2443.000
27.15500    2541.000
27.17000    2520.000
27.18500    2514.000
27.20000    2609.000
27.21500    2678.000
27.23000    2611.000
27.24500    2634.000
27.26000    2637.000
27.27500    2744.000
27.29000    2747.000
27.30500    2726.000
27.32000    2800.000
27.33500    2793.000
27.35000    2743.000
27.36500    2725.000
27.38000    2801.000
27.39500    2813.000
27.41000    2801.000
27.42500    2748.000
27.44000    2820.000
27.45500    2865.000
27.47000    2828.000
27.48500    2877.000
27.50000    2808.000
27.51500    2879.000
27.53000    2784.000
27.54500    2764.000
27.56000    2791.000
27.57500    2820.000
27.59000    2716.000
27.60500    2743.000
27.62000    2696.000
27.63500    2659.000
27.65000    2658.000
27.66500    2627.000
27.68000    2576.000
27.69500    2540.000
27.71000    2557.000
27.72500    2530.000
27.74000    2447.000
27.75500    2422.000
27.77000    2380.000
27.78500    2380.000
27.80000    2384.000
27.81500    2297.000
27.83000    2258.000
27.84500    2184.000
27.86000    2219.000
27.87500    2178.000
27.89000    2073.000
27.90500    2052.000
27.92000    2051.000
27.93500    2036.000
27.95000    1916.000
27.96500    1914.000
27.98000    1950.000
27.99500    1897.000
28.01000    1854.000
28.02500    1809.000
28.04000    1788.000
28.05500    1798.000
28.07000    1801.000
28.08500    1765.000
28.10000    1691.000
28.11500    1668.000
28.13000    1621.000
28.14500    1585.000
28.16000    1644.000
28.17500    1612.000
28.19000    1513.000
28.20500    1565.000
28.22000    1571.000
28.23500    1476.000
28.25000    1494.000
28.26500    1452.000
28.28000    1399.000
28.29500    1415.000
28.31000    1425.000
28.32500    1476.000
28.34000    1396.000
28.35500    1309.000
28.37000    1335.000
28.38500    1333.000
28.40000    1358.000
28.41500    1301.000
28.43000    1335.000
28.44500    1259.000
28.46000    1193.000
28.47500    1227.000
28.49000    1199.000
28.50500    1193.000
28.52000    1165.000
28.53500    1160.000
28.55000    1153.000
28.56500    1155.000
28.58000    1142.000
28.59500    1124.000
28.61000    1093.000
28.62500    1091.000
28.64000    1137.000
28.65500    1158.000
28.67000    1098.000
28.68500    1078.000
28.70000    1063.000
28.71500    1061.000
28.73000    1057.000
28.74500    1071.000
28.76000    1028.000
28.77500    1077.000
28.79000    1061.000
28.80500    1013.000
28.82000    1049.000
28.83500    983.000
28.85000    972.000
28.86500    939.000
28.88000    942.000
28.89500    998.000
28.91000    995.000
28.92500    943.000
28.94000    931.000
28.95500    908.000
28.97000    949.000
28.98500    958.000
29.00000    929.000
29.01500    929.000
29.03000    917.000
29.04500    941.000
29.06000    903.000
29.07500    920.000
29.09000    909.000
29.10500    924.000
29.12000    917.000
29.13500    841.000
29.15000    923.000
29.16500    909.000
29.18000    920.000
29.19500    891.000
29.21000    876.000
29.22500    874.000
29.24000    834.000
29.25500    876.000
29.27000    869.000
29.28500    864.000
29.30000    835.000
29.31500    834.000
29.33000    858.000
29.34500    842.000
29.36000    832.000
29.37500    823.000
29.39000    878.000
29.40500    860.000
29.42000    838.000
29.43500    834.000
29.45000    774.000
29.46500    760.000
29.48000    780.000
29.49500    837.000
29.51000    827.000
29.52500    788.000
29.54000    802.000
29.55500    820.000
29.57000    801.000
29.58500    774.000
29.60000    771.000
29.61500    738.000
29.63000    771.000
29.64500    777.000
29.66000    756.000
29.67500    806.000
29.69000    780.000
29.70500    775.000
29.72000    780.000
29.73500    778.000
29.75000    773.000
29.76500    757.000
29.78000    753.000
29.79500    764.000
29.81000    753.000
29.82500    757.000
29.84000    728.000
29.85500    758.000
29.87000    705.000
29.88500    749.000
29.90000    769.000
29.91500    721.000
29.93000    741.000
29.94500    769.000
29.96000    742.000
29.97500    717.000
29.99000    746.000
30.00500    711.000
30.02000    727.000
30.03500    713.000
30.05000    724.000
30.06500    705.000
30.08000    702.000
30.09500    708.000
30.11000    701.000
30.12500    690.000
30.14000    671.000
30.15500    711.000
30.17000    706.000
30.18500    676.000
30.20000    706.000
30.21500    731.000
30.23000    698.000
30.24500    657.000
30.26000    676.000
30.27500    664.000
30.29000    706.000
30.30500    681.000
30.32000    674.000
30.33500    675.000
30.35000    685.000
30.36500    679.000
30.38000    682.000
30.39500    662.000
30.41000    684.000
30.42500    669.000
30.44000    668.000
30.45500    650.000
30.47000    628.000
30.48500    677.000
30.50000    669.000
30.51500    664.000
30.53000    695.000
30.54500    712.000
30.56000    683.000
30.57500    637.000
30.59000    654.000
30.60500    610.000
30.62000    643.000
30.63500    621.000
30.65000    668.000
30.66500    648.000
30.68000    695.000
30.69500    684.000
30.71000    660.000
30.72500    660.000
30.74000    628.000
30.75500    657.000
30.77000    681.000
30.78500    646.000
30.80000    662.000
30.81500    630.000
30.83000    642.000
30.84500    656.000
30.86000    634.000
30.87500    641.000
30.89000    682.000
30.90500    671.000
30.92000    675.000
30.93500    653.000
30.95000    630.000
30.96500    620.000
30.98000    654.000
30.99500    662.000
31.01000    639.000
31.02500    650.000
31.04000    636.000
31.05500    643.000
31.07000    664.000
31.08500    606.000
31.10000    613.000
31.11500    622.000
31.13000    651.000
31.14500    619.000
31.16000    612.000
31.17500    614.000
31.19000    609.000
31.20500    611.000
31.22000    587.000
31.23500    614.000
31.25000    577.000
31.26500    615.000
31.28000    604.000
31.29500    624.000
31.31000    589.000
31.32500    657.000
31.34000    637.000
31.35500    630.000
31.37000    632.000
31.38500    636.000
31.40000    606.000
31.41500    612.000
31.43000    583.000
31.44500    585.000
31.46000    598.000
31.47500    600.000
31.49000    600.000
31.50500    588.000
31.52000    566.000
31.53500    595.000
31.55000    561.000
31.56500    571.000
31.58000    559.000
31.59500    589.000
31.61000    616.000
31.62500    598.000
31.64000    608.000
31.65500    587.000
31.67000    574.000
31.68500    563.000
31.70000    575.000
31.71500    594.000
31.73000    575.000
31.74500    552.000
31.76000    560.000
31.77500    572.000
31.79000    546.000
31.80500    574.000
31.82000    570.000
31.83500    565.000
31.85000    569.000
31.86500    525.000
31.88000    550.000
31.89500    543.000
31.91000    568.000
31.92500    552.000
31.94000    539.000
31.95500    580.000
31.97000    574.000
31.98500    560.000
32.00000    544.000
32.01500    524.000
32.03000    539.000
32.04500    574.000
32.06000    538.000
32.07500    522.000
32.09000    573.000
32.10500    538.000
32.12000    551.000
32.13500    552.000
32.15000    561.000
32.16500    571.000
32.18000    523.000
32.19500    519.000
32.21000    567.000
32.22500    555.000
32.24000    544.000
32.25500    532.000
32.27000    554.000
32.28500    551.000
32.30000    543.000
32.31500    538.000
32.33000    525.000
32.34500    511.000
32.36000    505.000
32.37500    501.000
32.39000    543.000
32.40500    550.000
32.42000    536.000
32.43500    514.000
32.45000    496.000
32.46500    552.000
32.48000    542.000
32.49500    560.000
32.51000    531.000
32.52500    539.000
32.54000    539.000
32.55500    551.000
32.57000    530.000
32.58500    544.000
32.60000    524.000
32.61500    525.000
32.63000    524.000
32.64500    508.000
32.66000    515.000
32.67500    531.000
32.69000    517.000
32.70500    491.000
32.72000    525.000
32.73500    524.000
32.75000    536.000
32.76500    520.000
32.78000    530.000
32.79500    529.000
32.81000    489.000
32.82500    508.000
32.84000    523.000
32.85500    505.000
32.87000    523.000
32.88500    518.000
32.90000    517.000
32.91500    480.000
32.93000    500.000
32.94500    503.000
32.96000    514.000
32.97500    482.000
32.99000    513.000
33.00500    496.000
33.02000    486.000
33.03500    498.000
33.05000    508.000
33.06500    489.000
33.08000    494.000
33.09500    482.000
33.11000    533.000
33.12500    517.000
33.14000    496.000
33.15500    529.000
33.17000    512.000
33.18500    524.000
33.20000    490.000
33.21500    516.000
33.23000    498.000
33.24500    470.000
33.26000    511.000
33.27500    505.000
33.29000    497.000
33.30500    483.000
33.32000    483.000
33.33500    479.000
33.35000    467.000
33.36500    522.000
33.38000    517.000
33.39500    496.000
33.41000    495.000
33.42500    494.000
33.44000    480.000
33.45500    468.000
33.47000    459.000
33.48500    458.000
33.50000    489.000
33.51500    494.000
33.53000    461.000
33.54500    468.000
33.56000    497.000
33.57500    459.000
33.59000    468.000
33.60500    469.000
33.62000    442.000
33.63500    500.000
33.65000    483.000
33.66500    475.000
33.68000    500.000
33.69500    482.000
33.71000    466.000
33.72500    448.000
33.74000    480.000
33.75500    485.000
33.77000    473.000
33.78500    469.000
33.80000    488.000
33.81500    468.000
33.83000    468.000
33.84500    473.000
33.86000    467.000
33.87500    436.000
33.89000    429.000
33.90500    473.000
33.92000    505.000
33.93500    442.000
33.95000    473.000
33.96500    465.000
33.98000    439.000
33.99500    452.000
34.01000    462.000
34.02500    483.000
34.04000    458.000
34.05500    453.000
34.07000    482.000
34.08500    477.000
34.10000    461.000
34.11500    473.000
34.13000    454.000
34.14500    470.000
34.16000    459.000
34.17500    471.000
34.19000    455.000
34.20500    467.000
34.22000    479.000
34.23500    457.000
34.25000    429.000
34.26500    469.000
34.28000    456.000
34.29500    463.000
34.31000    483.000
34.32500    464.000
34.34000    446.000
34.35500    451.000
34.37000    434.000
34.38500    470.000
34.40000    450.000
34.41500    462.000
34.43000    444.000
34.44500    424.000
34.46000    459.000
34.47500    447.000
34.49000    452.000
34.50500    414.000
34.52000    415.000
34.53500    439.000
34.55000    441.000
34.56500    453.000
34.58000    475.000
34.59500    456.000
34.61000    456.000
34.62500    449.000
34.64000    414.000
34.65500    425.000
34.67000    459.000
34.68500    424.000
34.70000    423.000
34.71500    427.000
34.73000    447.000
34.74500    401.000
34.76000    419.000
34.77500    410.000
34.79000    412.000
34.80500    406.000
34.82000    420.000
34.83500    425.000
34.85000    442.000
34.86500    407.000
34.88000    410.000
34.89500    429.000
34.91000    467.000
34.92500    444.000
34.94000    420.000
34.95500    411.000
34.97000    451.000
34.98500    451.000
35.00000    449.000
35.01500    424.000
35.03000    446.000
35.04500    436.000
35.06000    438.000
35.07500    408.000
35.09000    431.000
35.10500    431.000
35.12000    410.000
35.13500    389.000
35.15000    425.000
35.16500    428.000
35.18000    429.000
35.19500    435.000
35.21000    426.000
35.22500    412.000
35.24000    409.000
35.25500    441.000
35.27000    467.000
35.28500    431.000
35.30000    413.000
35.31500    440.000
35.33000    398.000
35.34500    416.000
35.36000    408.000
35.37500    398.000
35.39000    437.000
35.40500    399.000
35.42000    417.000
35.43500    433.000
35.45000    436.000
35.46500    422.000
35.48000    418.000
35.49500    417.000
35.51000    418.000
35.52500    410.000
35.54000    423.000
35.55500    398.000
35.57000    403.000
35.58500    431.000
35.60000    429.000
35.61500    444.000
35.63000    417.000
35.64500    413.000
35.66000    405.000
35.67500    394.000
35.69000    427.000
35.70500    393.000
35.72000    421.000
35.73500    421.000
35.75000    392.000
35.76500    417.000
35.78000    411.000
35.79500    415.000
35.81000    432.000
35.82500    384.000
35.84000    418.000
35.85500    418.000
35.87000    401.000
35.88500    433.000
35.90000    409.000
35.91500    389.000
35.93000    410.000
35.94500    413.000
35.96000    411.000
35.97500    403.000
35.99000    385.000
36.00500    384.000
36.02000    396.000
36.03500    378.000
36.05000    411.000
36.06500    387.000
36.08000    407.000
36.09500    419.000
36.11000    438.000
36.12500    417.000
36.14000    417.000
36.15500    419.000
36.17000    401.000
36.18500    383.000
36.20000    376.000
36.21500    398.000
36.23000    397.000
36.24500    374.000
36.26000    415.000
36.27500    408.000
36.29000    426.000
36.30500    394.000
36.32000    412.000
36.33500    399.000
36.35000    408.000
36.36500    366.000
36.38000    363.000
36.39500    384.000
36.41000    383.000
36.42500    383.000
36.44000    404.000
36.45500    405.000
36.47000    408.000
36.48500    412.000
36.50000    398.000
36.51500    413.000
36.53000    378.000
36.54500    382.000
36.56000    388.000
36.57500    373.000
36.59000    407.000
36.60500    431.000
36.62000    429.000
36.63500    390.000
36.65000    396.000
36.66500    394.000
36.68000    427.000
36.69500    410.000
36.71000    403.000
36.72500    397.000
36.74000    401.000
36.75500    384.000
36.77000    387.000
36.78500    389.000
36.80000    386.000
36.81500    384.000
36.83000    381.000
36.84500    376.000
36.86000    423.000
36.87500    408.000
36.89000    404.000
36.90500    394.000
36.92000    340.000
36.93500    400.000
36.95000    393.000
36.96500    365.000
36.98000    392.000
36.99500    407.000
37.01000    423.000
37.02500    380.000
37.04000    389.000
37.05500    376.000
37.07000    379.000
37.08500    395.000
37.10000    386.000
37.11500    369.000
37.13000    374.000
37.14500    387.000
37.16000    407.000
37.17500    417.000
37.19000    377.000
37.20500    368.000
37.22000    363.000
37.23500    389.000
37.25000    366.000
37.26500    396.000
37.28000    380.000
37.29500    384.000
37.31000    385.000
37.32500    373.000
37.34000    400.000
37.35500    383.000
37.37000    374.000
37.38500    382.000
37.40000    387.000
37.41500    365.000
37.43000    391.000
37.44500    382.000
37.46000    387.000
37.47500    354.000
37.49000    387.000
37.50500    366.000
37.52000    380.000
37.53500    375.000
37.55000    339.000
37.56500    373.000
37.58000    390.000
37.59500    384.000
37.61000    355.000
37.62500    367.000
37.64000    370.000
37.65500    379.000
37.67000    365.000
37.68500    333.000
37.70000    363.000
37.71500    353.000
37.73000    381.000
37.74500    368.000
37.76000    338.000
37.77500    363.000
37.79000    383.000
37.80500    369.000
37.82000    388.000
37.83500    390.000
37.85000    391.000
37.86500    362.000
37.88000    401.000
37.89500    382.000
37.91000    354.000
37.92500    375.000
37.94000    366.000
37.95500    397.000
37.97000    355.000
37.98500    369.000
38.00000    359.000
38.01500    344.000
38.03000    376.000
38.04500    364.000
38.06000    370.000
38.07500    370.000
38.09000    401.000
38.10500    372.000
38.12000    338.000
38.13500    347.000
38.15000    349.000
38.16500    353.000
38.18000    391.000
38.19500    388.000
38.21000    372.000
38.22500    371.000
38.24000    346.000
38.25500    357.000
38.27000    347.000
38.28500    359.000
38.30000    368.000
38.31500    343.000
38.33000    352.000
38.34500    345.000
38.36000    351.000
38.37500    344.000
38.39000    353.000
38.40500    344.000
38.42000    355.000
38.43500    339.000
38.45000    385.000
38.46500    365.000
38.48000    366.000
38.49500    379.000
38.51000    372.000
38.52500    397.000
38.54000    378.000
38.55500    380.000
38.57000    378.000
38.58500    359.000
38.60000    381.000
38.61500    366.000
38.63000    364.000
38.64500    364.000
38.66000    350.000
38.67500    351.000
38.69000    354.000
38.70500    344.000
38.72000    350.000
38.73500    380.000
38.75000    388.000
38.76500    351.000
38.78000    352.000
38.79500    372.000
38.81000    374.000
38.82500    339.000
38.84000    366.000
38.85500    353.000
38.87000    347.000
38.88500    348.000
38.90000    353.000
38.91500    377.000
38.93000    368.000
38.94500    359.000
38.96000    341.000
38.97500    371.000
38.99000    396.000
39.00500    358.000
39.02000    360.000
39.03500    381.000
39.05000    362.000
39.06500    360.000
39.08000    346.000
39.09500    352.000
39.11000    351.000
39.12500    362.000
39.14000    339.000
39.15500    378.000
39.17000    372.000
39.18500    327.000
39.20000    349.000
39.21500    376.000
39.23000    352.000
39.24500    359.000
39.26000    349.000
39.27500    343.000
39.29000    354.000
39.30500    380.000
39.32000    404.000
39.33500    361.000
39.35000    374.000
39.36500    363.000
39.38000    356.000
39.39500    356.000
39.41000    342.000
39.42500    338.000
39.44000    359.000
39.45500    366.000
39.47000    339.000
39.48500    352.000
39.50000    377.000
39.51500    372.000
39.53000    344.000
39.54500    374.000
39.56000    365.000
39.57500    356.000
39.59000    372.000
39.60500    361.000
39.62000    367.000
39.63500    353.000
39.65000    330.000
39.66500    342.000
39.68000    335.000
39.69500    350.000
39.71000    360.000
39.72500    362.000
39.74000    353.000
39.75500    377.000
39.77000    414.000
39.78500    400.000
39.80000    355.000
39.81500    370.000
39.83000    354.000
39.84500    339.000
39.86000    343.000
39.87500    353.000
39.89000    342.000
39.90500    354.000
39.92000    362.000
39.93500    353.000
39.95000    356.000
39.96500    352.000
39.98000    359.000
39.99500    363.000
40.01000    369.000
40.02500    377.000
40.04000    360.000
40.05500    368.000
40.07000    363.000
40.08500    360.000
40.10000    378.000
40.11500    346.000
40.13000    350.000
40.14500    337.000
40.16000    363.000
40.17500    389.000
40.19000    372.000
40.20500    344.000
40.22000    349.000
40.23500    385.000
40.25000    345.000
40.26500    368.000
40.28000    359.000
40.29500    368.000
40.31000    370.000
40.32500    359.000
40.34000    357.000
40.35500    358.000
40.37000    324.000
40.38500    361.000
40.40000    367.000
40.41500    348.000
40.43000    381.000
40.44500    359.000
40.46000    352.000
40.47500    358.000
40.49000    377.000
40.50500    357.000
40.52000    368.000
40.53500    356.000
40.55000    353.000
40.56500    359.000
40.58000    384.000
40.59500    373.000
40.61000    361.000
40.62500    373.000
40.64000    372.000
40.65500    365.000
40.67000    364.000
40.68500    364.000
40.70000    339.000
40.71500    347.000
40.73000    331.000
40.74500    334.000
40.76000    363.000
40.77500    377.000
40.79000    368.000
40.80500    360.000
40.82000    370.000
40.83500    376.000
40.85000    341.000
40.86500    313.000
40.88000    355.000
40.89500    363.000
40.91000    357.000
40.92500    371.000
40.94000    371.000
40.95500    370.000
40.97000    352.000
40.98500    382.000
41.00000    370.000
41.01500    389.000
41.03000    366.000
41.04500    358.000
41.06000    368.000
41.07500    339.000
41.09000    372.000
41.10500    382.000
41.12000    353.000
41.13500    374.000
41.15000    379.000
41.16500    372.000
41.18000    349.000
41.19500    340.000
41.21000    358.000
41.22500    373.000
41.24000    348.000
41.25500    360.000
41.27000    356.000
41.28500    370.000
41.30000    347.000
41.31500    370.000
41.33000    351.000
41.34500    338.000
41.36000    345.000
41.37500    381.000
41.39000    387.000
41.40500    370.000
41.42000    356.000
41.43500    377.000
41.45000    351.000
41.46500    341.000
41.48000    341.000
41.49500    342.000
41.51000    354.000
41.52500    386.000
41.54000    368.000
41.55500    362.000
41.57000    355.000
41.58500    388.000
41.60000    380.000
41.61500    363.000
41.63000    362.000
41.64500    349.000
41.66000    382.000
41.67500    373.000
41.69000    343.000
41.70500    345.000
41.72000    371.000
41.73500    341.000
41.75000    331.000
41.76500    361.000
41.78000    371.000
41.79500    377.000
41.81000    354.000
41.82500    351.000
41.84000    365.000
41.85500    341.000
41.87000    332.000
41.88500    392.000
41.90000    387.000
41.91500    361.000
41.93000    343.000
41.94500    348.000
41.96000    335.000
41.97500    385.000
41.99000    375.000
42.00500    365.000
42.02000    383.000
42.03500    349.000
42.05000    348.000
42.06500    354.000
42.08000    355.000
42.09500    341.000
42.11000    346.000
42.12500    343.000
42.14000    347.000
42.15500    336.000
42.17000    350.000
42.18500    369.000
42.20000    343.000
42.21500    366.000
42.23000    373.000
42.24500    359.000
42.26000    344.000
42.27500    391.000
42.29000    373.000
42.30500    371.000
42.32000    345.000
42.33500    378.000
42.35000    366.000
42.36500    353.000
42.38000    357.000
42.39500    356.000
42.41000    359.000
42.42500    363.000
42.44000    355.000
42.45500    357.000
42.47000    357.000
42.48500    361.000
42.50000    345.000
42.51500    348.000
42.53000    337.000
42.54500    364.000
42.56000    365.000
42.57500    355.000
42.59000    359.000
42.60500    345.000
42.62000    349.000
42.63500    363.000
42.65000    359.000
42.66500    376.000
42.68000    365.000
42.69500    357.000
42.71000    352.000
42.72500    364.000
42.74000    369.000
42.75500    356.000
42.77000    351.000
42.78500    351.000
42.80000    368.000
42.81500    366.000
42.83000    352.000
42.84500    356.000
42.86000    375.000
42.87500    343.000
42.89000    366.000
42.90500    356.000
42.92000    356.000
42.93500    362.000
42.95000    382.000
42.96500    365.000
42.98000    371.000
42.99500    363.000
43.01000    384.000
43.02500    373.000
43.04000    372.000
43.05500    351.000
43.07000    368.000
43.08500    373.000
43.10000    387.000
43.11500    369.000
43.13000    396.000
43.14500    372.000
43.16000    387.000
43.17500    390.000
43.19000    382.000
43.20500    417.000
43.22000    398.000
43.23500    400.000
43.25000    377.000
43.26500    401.000
43.28000    365.000
43.29500    381.000
43.31000    370.000
43.32500    371.000
43.34000    384.000
43.35500    356.000
43.37000    372.000
43.38500    382.000
43.40000    385.000
43.41500    401.000
43.43000    394.000
43.44500    386.000
43.46000    356.000
43.47500    368.000
43.49000    380.000
43.50500    369.000
43.52000    381.000
43.53500    382.000
43.55000    375.000
43.56500    424.000
43.58000    414.000
43.59500    425.000
43.61000    411.000
43.62500    396.000
43.64000    391.000
43.65500    403.000
43.67000    419.000
43.68500    373.000
43.70000    381.000
43.71500    385.000
43.73000    395.000
43.74500    378.000
43.76000    383.000
43.77500    402.000
43.79000    386.000
43.80500    417.000
43.82000    406.000
43.83500    383.000
43.85000    400.000
43.86500    388.000
43.88000    378.000
43.89500    351.000
43.91000    362.000
43.92500    394.000
43.94000    397.000
43.95500    392.000
43.97000    394.000
43.98500    377.000
44.00000    365.000
44.01500    370.000
44.03000    394.000
44.04500    397.000
44.06000    393.000
44.07500    425.000
44.09000    409.000
44.10500    374.000
44.12000    389.000
44.13500    399.000
44.15000    387.000
44.16500    391.000
44.18000    388.000
44.19500    380.000
44.21000    414.000
44.22500    436.000
44.24000    399.000
44.25500    417.000
44.27000    410.000
44.28500    389.000
44.30000    391.000
44.31500    367.000
44.33000    406.000
44.34500    385.000
44.36000    381.000
44.37500    377.000
44.39000    424.000
44.40500    422.000
44.42000    410.000
44.43500    380.000
44.45000    389.000
44.46500    383.000
44.48000    365.000
44.49500    357.000
44.51000    375.000
44.52500    377.000
44.54000    374.000
44.55500    399.000
44.57000    366.000
44.58500    406.000
44.60000    378.000
44.61500    388.000
44.63000    364.000
44.64500    392.000
44.66000    374.000
44.67500    395.000
44.69000    393.000
44.70500    370.000
44.72000    394.000
44.73500    382.000
44.75000    377.000
44.76500    381.000
44.78000    410.000
44.79500    410.000
44.81000    387.000
44.82500    394.000
44.84000    405.000
44.85500    399.000
44.87000    393.000
44.88500    380.000
44.90000    365.000
44.91500    368.000
44.93000    407.000
44.94500    380.000
44.96000    375.000
44.97500    404.000
44.99000    387.000
45.00500    382.000
45.02000    373.000
45.03500    387.000
45.05000    384.000
45.06500    369.000
45.08000    366.000
45.09500    386.000
45.11000    369.000
45.12500    395.000
45.14000    375.000
45.15500    394.000
45.17000    402.000
45.18500    356.000
45.20000    387.000
45.21500    383.000
45.23000    387.000
45.24500    385.000
45.26000    376.000
45.27500    384.000
45.29000    396.000
45.30500    378.000
45.32000    382.000
45.33500    371.000
45.35000    369.000
45.36500    370.000
45.38000    388.000
45.39500    406.000
45.41000    371.000
45.42500    357.000
45.44000    367.000
45.45500    368.000
45.47000    379.000
45.48500    373.000
45.50000    395.000
45.51500    361.000
45.53000    346.000
45.54500    355.000
45.56000    325.000
45.57500    380.000
45.59000    381.000
45.60500    370.000
45.62000    358.000
45.63500    371.000
45.65000    376.000
45.66500    389.000
45.68000    376.000
45.69500    403.000
45.71000    374.000
45.72500    390.000
45.74000    359.000
45.75500    345.000
45.77000    357.000
45.78500    419.000
45.80000    365.000
45.81500    369.000
45.83000    388.000
45.84500    371.000
45.86000    368.000
45.87500    357.000
45.89000    365.000
45.90500    362.000
45.92000    384.000
45.93500    372.000
45.95000    350.000
45.96500    374.000
45.98000    355.000
45.99500    361.000
46.01000    345.000
46.02500    371.000
46.04000    364.000
46.05500    329.000
46.07000    332.000
46.08500    387.000
46.10000    364.000
46.11500    356.000
46.13000    365.000
46.14500    360.000
46.16000    382.000
46.17500    352.000
46.19000    353.000
46.20500    337.000
46.22000    331.000
46.23500    347.000
46.25000    372.000
46.26500    332.000
46.28000    328.000
46.29500    340.000
46.31000    374.000
46.32500    354.000
46.34000    367.000
46.35500    343.000
46.37000    352.000
46.38500    346.000
46.40000    373.000
46.41500    355.000
46.43000    369.000
46.44500    362.000
46.46000    376.000
46.47500    348.000
46.49000    358.000
46.50500    373.000
46.52000    388.000
46.53500    374.000
46.55000    358.000
46.56500    357.000
46.58000    381.000
46.59500    366.000
46.61000    366.000
46.62500    375.000
46.64000    333.000
46.65500    349.000
46.67000    366.000
46.68500    379.000
46.70000    323.000
46.71500    338.000
46.73000    359.000
46.74500    340.000
46.76000    340.000
46.77500    346.000
46.79000    348.000
46.80500    377.000
46.82000    338.000
46.83500    366.000
46.85000    330.000
46.86500    311.000
46.88000    365.000
46.89500    361.000
46.91000    340.000
46.92500    363.000
46.94000    355.000
46.95500    325.000
46.97000    349.000
46.98500    342.000
47.00000    334.000
47.01500    335.000
47.03000    345.000
47.04500    346.000
47.06000    357.000
47.07500    358.000
47.09000    342.000
47.10500    338.000
47.12000    347.000
47.13500    347.000
47.15000    358.000
47.16500    346.000
47.18000    336.000
47.19500    364.000
47.21000    325.000
47.22500    332.000
47.24000    354.000
47.25500    346.000
47.27000    356.000
47.28500    330.000
47.30000    345.000
47.31500    359.000
47.33000    345.000
47.34500    346.000
47.36000    357.000
47.37500    339.000
47.39000    376.000
47.40500    372.000
47.42000    368.000
47.43500    363.000
47.45000    331.000
47.46500    339.000
47.48000    356.000
47.49500    331.000
47.51000    344.000
47.52500    333.000
47.54000    334.000
47.55500    305.000
47.57000    337.000
47.58500    332.000
47.60000    312.000
47.61500    334.000
47.63000    324.000
47.64500    331.000
47.66000    346.000
47.67500    306.000
47.69000    301.000
47.70500    322.000
47.72000    352.000
47.73500    329.000
47.75000    338.000
47.76500    338.000
47.78000    340.000
47.79500    331.000
47.81000    331.000
47.82500    328.000
47.84000    357.000
47.85500    352.000
47.87000    336.000
47.88500    358.000
47.90000    357.000
47.91500    330.000
47.93000    327.000
47.94500    316.000
47.96000    344.000
47.97500    348.000
47.99000    333.000
48.00500    343.000
48.02000    351.000
48.03500    327.000
48.05000    329.000
48.06500    330.000
48.08000    337.000
48.09500    323.000
48.11000    318.000
48.12500    322.000
48.14000    322.000
48.15500    316.000
48.17000    332.000
48.18500    331.000
48.20000    339.000
48.21500    346.000
48.23000    325.000
48.24500    325.000
48.26000    343.000
48.27500    332.000
48.29000    315.000
48.30500    330.000
48.32000    315.000
48.33500    300.000
48.35000    330.000
48.36500    329.000
48.38000    318.000
48.39500    316.000
48.41000    333.000
48.42500    302.000
48.44000    307.000
48.45500    330.000
48.47000    314.000
48.48500    333.000
48.50000    336.000
48.51500    298.000
48.53000    317.000
48.54500    307.000
48.56000    313.000
48.57500    325.000
48.59000    329.000
48.60500    309.000
48.62000    323.000
48.63500    330.000
48.65000    317.000
48.66500    301.000
48.68000    342.000
48.69500    324.000
48.71000    333.000
48.72500    321.000
48.74000    330.000
48.75500    327.000
48.77000    323.000
48.78500    342.000
48.80000    320.000
48.81500    304.000
48.83000    317.000
48.84500    338.000
48.86000    306.000
48.87500    314.000
48.89000    347.000
48.90500    327.000
48.92000    343.000
48.93500    315.000
48.95000    312.000
48.96500    320.000
48.98000    329.000
48.99500    339.000
49.01000    344.000
49.02500    353.000
49.04000    323.000
49.05500    332.000
49.07000    327.000
49.08500    342.000
49.10000    322.000
49.11500    297.000
49.13000    311.000
49.14500    325.000
49.16000    306.000
49.17500    322.000
49.19000    335.000
49.20500    309.000
49.22000    291.000
49.23500    303.000
49.25000    288.000
49.26500    332.000
49.28000    341.000
49.29500    316.000
49.31000    300.000
49.32500    327.000
49.34000    303.000
49.35500    323.000
49.37000    311.000
49.38500    313.000
49.40000    305.000
49.41500    282.000
49.43000    291.000
49.44500    309.000
49.46000    307.000
49.47500    303.000
49.49000    327.000
49.50500    325.000
49.52000    326.000
49.53500    322.000
49.55000    323.000
49.56500    282.000
49.58000    299.000
49.59500    303.000
49.61000    303.000
49.62500    310.000
49.64000    302.000
49.65500    311.000
49.67000    295.000
49.68500    302.000
49.70000    315.000
49.71500    299.000
49.73000    310.000
49.74500    306.000
49.76000    322.000
49.77500    287.000
49.79000    278.000
49.80500    307.000
49.82000    335.000
49.83500    306.000
49.85000    325.000
49.86500    329.000
49.88000    321.000
49.89500    289.000
49.91000    307.000
49.92500    314.000
49.94000    313.000
49.95500    310.000
49.97000    323.000
49.98500    347.000
50.00000    309.000
50.01500    316.000
50.03000    291.000
50.04500    289.000
50.06000    315.000
50.07500    297.000
50.09000    303.000
50.10500    294.000
50.12000    320.000
50.13500    312.000
50.15000    310.000
50.16500    274.000
50.18000    320.000
50.19500    343.000
50.21000    321.000
50.22500    310.000
50.24000    302.000
50.25500    296.000
50.27000    309.000
50.28500    332.000
50.30000    300.000
50.31500    330.000
50.33000    329.000
50.34500    323.000
50.36000    299.000
50.37500    306.000
50.39000    299.000
50.40500    308.000
50.42000    314.000
50.43500    311.000
50.45000    309.000
50.46500    329.000
50.48000    321.000
50.49500    319.000
50.51000    319.000
50.52500    297.000
50.54000    315.000
50.55500    327.000
50.57000    329.000
50.58500    307.000
50.60000    318.000
50.61500    328.000
50.63000    341.000
50.64500    299.000
50.66000    299.000
50.67500    302.000
50.69000    334.000
50.70500    318.000
50.72000    288.000
50.73500    303.000
50.75000    296.000
50.76500    283.000
50.78000    295.000
50.79500    321.000
50.81000    315.000
50.82500    303.000
50.84000    306.000
50.85500    302.000
50.87000    291.000
50.88500    310.000
50.90000    302.000
50.91500    283.000
50.93000    303.000
50.94500    300.000
50.96000    289.000
50.97500    279.000
50.99000    318.000
51.00500    336.000
51.02000    317.000
51.03500    313.000
51.05000    294.000
51.06500    314.000
51.08000    310.000
51.09500    320.000
51.11000    330.000
51.12500    304.000
51.14000    296.000
51.15500    311.000
51.17000    314.000
51.18500    300.000
51.20000    296.000
51.21500    299.000
51.23000    309.000
51.24500    310.000
51.26000    307.000
51.27500    304.000
51.29000    295.000
51.30500    308.000
51.32000    322.000
51.33500    310.000
51.35000    323.000
51.36500    309.000
51.38000    318.000
51.39500    327.000
51.41000    332.000
51.42500    311.000
51.44000    286.000
51.45500    297.000
51.47000    308.000
51.48500    298.000
51.50000    298.000
51.51500    320.000
51.53000    326.000
51.54500    311.000
51.56000    293.000
51.57500    306.000
51.59000    294.000
51.60500    307.000
51.62000    318.000
51.63500    308.000
51.65000    316.000
51.66500    311.000
51.68000    294.000
51.69500    321.000
51.71000    323.000
51.72500    341.000
51.74000    331.000
51.75500    299.000
51.77000    312.000
51.78500    317.000
51.80000    296.000
51.81500    305.000
51.83000    284.000
51.84500    293.000
51.86000    299.000
51.87500    310.000
51.89000    320.000
51.90500    288.000
51.92000    307.000
51.93500    312.000
51.95000    283.000
51.96500    291.000
51.98000    283.000
51.99500    279.000
52.01000    288.000
52.02500    316.000
52.04000    303.000
52.05500    313.000
52.07000    324.000
52.08500    320.000
52.10000    309.000
52.11500    306.000
52.13000    283.000
52.14500    297.000
52.16000    299.000
52.17500    297.000
52.19000    308.000
52.20500    310.000
52.22000    296.000
52.23500    321.000
52.25000    308.000
52.26500    274.000
52.28000    269.000
52.29500    322.000
52.31000    299.000
52.32500    317.000
52.34000    315.000
52.35500    300.000
52.37000    273.000
52.38500    279.000
52.40000    276.000
52.41500    276.000
52.43000    319.000
52.44500    320.000
52.46000    311.000
52.47500    310.000
52.49000    286.000
52.50500    318.000
52.52000    308.000
52.53500    326.000
52.55000    310.000
52.56500    290.000
52.58000    313.000
52.59500    295.000
52.61000    268.000
52.62500    311.000
52.64000    316.000
52.65500    301.000
52.67000    297.000
52.68500    293.000
52.70000    273.000
52.71500    290.000
52.73000    283.000
52.74500    297.000
52.76000    303.000
52.77500    289.000
52.79000    330.000
52.80500    317.000
52.82000    313.000
52.83500    308.000
52.85000    288.000
52.86500    312.000
52.88000    279.000
52.89500    284.000
52.91000    273.000
52.92500    297.000
52.94000    311.000
52.95500    309.000
52.97000    303.000
52.98500    308.000
53.00000    290.000
53.01500    289.000
53.03000    295.000
53.04500    290.000
53.06000    283.000
53.07500    305.000
53.09000    297.000
53.10500    297.000
53.12000    272.000
53.13500    282.000
53.15000    304.000
53.16500    313.000
53.18000    307.000
53.19500    317.000
53.21000    304.000
53.22500    303.000
53.24000    279.000
53.25500    291.000
53.27000    309.000
53.28500    316.000
53.30000    311.000
53.31500    288.000
53.33000    293.000
53.34500    316.000
53.36000    308.000
53.37500    268.000
53.39000    266.000
53.40500    293.000
53.42000    311.000
53.43500    305.000
53.45000    310.000
53.46500    285.000
53.48000    268.000
53.49500    290.000
53.51000    292.000
53.52500    306.000
53.54000    297.000
53.55500    285.000
53.57000    310.000
53.58500    313.000
53.60000    295.000
53.61500    318.000
53.63000    313.000
53.64500    327.000
53.66000    301.000
53.67500    271.000
53.69000    306.000
53.70500    303.000
53.72000    297.000
53.73500    302.000
53.75000    285.000
53.76500    279.000
53.78000    302.000
53.79500    300.000
53.81000    310.000
53.82500    281.000
53.84000    308.000
53.85500    315.000
53.87000    290.000
53.88500    291.000
53.90000    296.000
53.91500    264.000
53.93000    280.000
53.94500    291.000
53.96000    303.000
53.97500    304.000
53.99000    310.000
54.00500    277.000
54.02000    277.000
54.03500    278.000
54.05000    287.000
54.06500    292.000
54.08000    284.000
54.09500    288.000
54.11000    287.000
54.12500    287.000
54.14000    287.000
54.15500    283.000
54.17000    277.000
54.18500    285.000
54.20000    264.000
54.21500    280.000
54.23000    293.000
54.24500    294.000
54.26000    270.000
54.27500    299.000
54.29000    326.000
54.30500    287.000
54.32000    281.000
54.33500    272.000
54.35000    280.000
54.36500    285.000
54.38000    278.000
54.39500    304.000
54.41000    298.000
54.42500    296.000
54.44000    283.000
54.45500    290.000
54.47000    280.000
54.48500    280.000
54.50000    292.000
54.51500    290.000
54.53000    316.000
54.54500    301.000
54.56000    278.000
54.57500    283.000
54.59000    278.000
54.60500    276.000
54.62000    294.000
54.63500    295.000
54.65000    290.000
54.66500    311.000
54.68000    290.000
54.69500    285.000
54.71000    296.000
54.72500    287.000
54.74000    265.000
54.75500    317.000
54.77000    321.000
54.78500    297.000
54.80000    318.000
54.81500    328.000
54.83000    315.000
54.84500    295.000
54.86000    293.000
54.87500    272.000
54.89000    296.000
54.90500    309.000
54.92000    304.000
54.93500    316.000
54.95000    269.000
54.96500    283.000
54.98000    298.000
54.99500    301.000
55.01000    284.000
55.02500    290.000
55.04000    307.000
55.05500    299.000
55.07000    277.000
55.08500    303.000
55.10000    321.000
55.11500    289.000
55.13000    299.000
55.14500    316.000
55.16000    330.000
55.17500    309.000
55.19000    304.000
55.20500    285.000
55.22000    293.000
55.23500    312.000
55.25000    312.000
55.26500    297.000
55.28000    286.000
55.29500    314.000
55.31000    307.000
55.32500    311.000
55.34000    305.000
55.35500    287.000
55.37000    306.000
55.38500    330.000
55.40000    302.000
55.41500    283.000
55.43000    301.000
55.44500    290.000
55.46000    275.000
55.47500    313.000
55.49000    313.000
55.50500    298.000
55.52000    313.000
55.53500    295.000
55.55000    314.000
55.56500    316.000
55.58000    311.000
55.59500    308.000
55.61000    291.000
55.62500    299.000
55.64000    299.000
55.65500    319.000
55.67000    291.000
55.68500    297.000
55.70000    304.000
55.71500    305.000
55.73000    270.000
55.74500    340.000
55.76000    301.000
55.77500    269.000
55.79000    302.000
55.80500    297.000
55.82000    295.000
55.83500    293.000
55.85000    312.000
55.86500    288.000
55.88000    305.000
55.89500    292.000
55.91000    283.000
55.92500    293.000
55.94000    274.000
55.95500    314.000
55.97000    303.000
55.98500    315.000
56.00000    296.000
56.01500    305.000
56.03000    302.000
56.04500    317.000
56.06000    319.000
56.07500    287.000
56.09000    294.000
56.10500    310.000
56.12000    330.000
56.13500    310.000
56.15000    314.000
56.16500    313.000
56.18000    298.000
56.19500    306.000
56.21000    304.000
56.22500    305.000
56.24000    299.000
56.25500    322.000
56.27000    327.000
56.28500    315.000
56.30000    299.000
56.31500    318.000
56.33000    304.000
56.34500    295.000
56.36000    304.000
56.37500    315.000
56.39000    294.000
56.40500    311.000
56.42000    331.000
56.43500    306.000
56.45000    295.000
56.46500    279.000
56.48000    303.000
56.49500    328.000
56.51000    331.000
56.52500    328.000
56.54000    313.000
56.55500    317.000
56.57000    314.000
56.58500    312.000
56.60000    301.000
56.61500    308.000
56.63000    300.000
56.64500    308.000
56.66000    339.000
56.67500    291.000
56.69000    302.000
56.70500    327.000
56.72000    313.000
56.73500    277.000
56.75000    321.000
56.76500    330.000
56.78000    319.000
56.79500    324.000
56.81000    312.000
56.82500    289.000
56.84000    306.000
56.85500    302.000
56.87000    308.000
56.88500    311.000
56.90000    294.000
56.91500    334.000
56.93000    306.000
56.94500    295.000
56.96000    318.000
56.97500    319.000
56.99000    318.000
57.00500    303.000
57.02000    315.000
57.03500    299.000
57.05000    283.000
57.06500    275.000
57.08000    307.000
57.09500    337.000
57.11000    335.000
57.12500    303.000
57.14000    304.000
57.15500    299.000
57.17000    296.000
57.18500    286.000
57.20000    292.000
57.21500    283.000
57.23000    295.000
57.24500    299.000
57.26000    307.000
57.27500    317.000
57.29000    306.000
57.30500    306.000
57.32000    309.000
57.33500    281.000
57.35000    286.000
57.36500    287.000
57.38000    288.000
57.39500    296.000
57.41000    296.000
57.42500    292.000
57.44000    289.000
57.45500    284.000
57.47000    278.000
57.48500    299.000
57.50000    283.000
57.51500    296.000
57.53000    279.000
57.54500    299.000
57.56000    290.000
57.57500    285.000
57.59000    282.000
57.60500    284.000
57.62000    303.000
57.63500    293.000
57.65000    273.000
57.66500    294.000
57.68000    287.000
57.69500    285.000
57.71000    282.000
57.72500    274.000
57.74000    255.000
57.75500    266.000
57.77000    270.000
57.78500    290.000
57.80000    284.000
57.81500    266.000
57.83000    266.000
57.84500    245.000
57.86000    256.000
57.87500    285.000
57.89000    284.000
57.90500    279.000
57.92000    278.000
57.93500    281.000
57.95000    271.000
57.96500    270.000
57.98000    257.000
57.99500    264.000
58.01000    278.000
58.02500    290.000
58.04000    263.000
58.05500    262.000
58.07000    251.000
58.08500    281.000
58.10000    264.000
58.11500    273.000
58.13000    263.000
58.14500    277.000
58.16000    264.000
58.17500    255.000
58.19000    274.000
58.20500    257.000
58.22000    272.000
58.23500    265.000
58.25000    239.000
58.26500    252.000
58.28000    276.000
58.29500    270.000
58.31000    250.000
58.32500    268.000
58.34000    273.000
58.35500    266.000
58.37000    264.000
58.38500    274.000
58.40000    282.000
58.41500    242.000
58.43000    243.000
58.44500    270.000
58.46000    265.000
58.47500    266.000
58.49000    270.000
58.50500    263.000
58.52000    260.000
58.53500    257.000
58.55000    246.000
58.56500    263.000
58.58000    258.000
58.59500    268.000
58.61000    262.000
58.62500    255.000
58.64000    243.000
58.65500    249.000
58.67000    263.000
58.68500    258.000
58.70000    269.000
58.71500    256.000
58.73000    245.000
58.74500    255.000
58.76000    244.000
58.77500    264.000
58.79000    238.000
58.80500    256.000
58.82000    233.000
58.83500    264.000
58.85000    258.000
58.86500    248.000
58.88000    236.000
58.89500    243.000
58.91000    240.000
58.92500    225.000
58.94000    227.000
58.95500    259.000
58.97000    251.000
58.98500    259.000
59.00000    270.000
59.01500    269.000
59.03000    270.000
59.04500    267.000
59.06000    257.000
59.07500    235.000
59.09000    256.000
59.10500    266.000
59.12000    263.000
59.13500    261.000
59.15000    248.000
59.16500    262.000
59.18000    224.000
59.19500    248.000
59.21000    237.000
59.22500    247.000
59.24000    256.000
59.25500    267.000
59.27000    246.000
59.28500    236.000
59.30000    241.000
59.31500    254.000
59.33000    243.000
59.34500    232.000
59.36000    263.000
59.37500    234.000
59.39000    226.000
59.40500    234.000
59.42000    245.000
59.43500    242.000
59.45000    244.000
59.46500    245.000
59.48000    266.000
59.49500    237.000
59.51000    235.000
59.52500    254.000
59.54000    235.000
59.55500    245.000
59.57000    244.000
59.58500    252.000
59.60000    269.000
59.61500    238.000
59.63000    236.000
59.64500    215.000
59.66000    249.000
59.67500    269.000
59.69000    255.000
59.70500    236.000
59.72000    266.000
59.73500    257.000
59.75000    236.000
59.76500    257.000
59.78000    241.000
59.79500    249.000
59.81000    253.000
59.82500    240.000
59.84000    243.000
59.85500    234.000
59.87000    247.000
59.88500    241.000
59.90000    235.000
59.91500    239.000
59.93000    242.000
59.94500    263.000
59.96000    231.000
59.97500    227.000
59.99000    241.000
60.00500    238.000
60.02000    239.000
60.03500    245.000
60.05000    217.000
60.06500    232.000
60.08000    220.000
60.09500    225.000
60.11000    231.000
60.12500    226.000
60.14000    226.000
60.15500    232.000
60.17000    243.000
60.18500    208.000
60.20000    216.000
60.21500    260.000
60.23000    258.000
60.24500    239.000
60.26000    255.000
60.27500    237.000
60.29000    232.000
60.30500    239.000
60.32000    215.000
60.33500    219.000
60.35000    240.000
60.36500    231.000
60.38000    238.000
60.39500    228.000
60.41000    261.000
60.42500    252.000
60.44000    253.000
60.45500    229.000
60.47000    250.000
60.48500    256.000
60.50000    231.000
60.51500    252.000
60.53000    230.000
60.54500    241.000
60.56000    231.000
60.57500    236.000
60.59000    235.000
60.60500    243.000
60.62000    236.000
60.63500    263.000
60.65000    241.000
60.66500    227.000
60.68000    255.000
60.69500    248.000
60.71000    224.000
60.72500    220.000
60.74000    226.000
60.75500    247.000
60.77000    218.000
60.78500    220.000
60.80000    231.000
60.81500    224.000
60.83000    214.000
60.84500    213.000
60.86000    219.000
60.87500    216.000
60.89000    234.000
60.90500    230.000
60.92000    245.000
60.93500    236.000
60.95000    221.000
60.96500    228.000
60.98000    236.000
60.99500    219.000
61.01000    230.000
61.02500    237.000
61.04000    240.000
61.05500    239.000
61.07000    234.000
61.08500    218.000
61.10000    226.000
61.11500    224.000
61.13000    219.000
61.14500    212.000
61.16000    230.000
61.17500    233.000
61.19000    240.000
61.20500    243.000
61.22000    226.000
61.23500    233.000
61.25000    244.000
61.26500    219.000
61.28000    224.000
61.29500    230.000
61.31000    221.000
61.32500    217.000
61.34000    221.000
61.35500    245.000
61.37000    220.000
61.38500    216.000
61.40000    247.000
61.41500    239.000
61.43000    252.000
61.44500    239.000
61.46000    232.000
61.47500    234.000
61.49000    236.000
61.50500    219.000
61.52000    231.000
61.53500    223.000
61.55000    213.000
61.56500    217.000
61.58000    214.000
61.59500    218.000
61.61000    211.000
61.62500    234.000
61.64000    226.000
61.65500    212.000
61.67000    202.000
61.68500    215.000
61.70000    202.000
61.71500    212.000
61.73000    217.000
61.74500    217.000
61.76000    241.000
61.77500    206.000
61.79000    212.000
61.80500    207.000
61.82000    224.000
61.83500    219.000
61.85000    213.000
61.86500    226.000
61.88000    226.000
61.89500    221.000
61.91000    223.000
61.92500    204.000
61.94000    225.000
61.95500    235.000
61.97000    231.000
61.98500    224.000
