2.00000 0.000
2.01500 0.000
2.03000 2.000
2.04500 2.000
2.06000 1.000
2.07500 1.000
2.09000 4.000
2.10500 5.000
2.12000 4.000
2.13500 2.000
2.15000 2.000
2.16500 2.000
2.18000 1.000
2.19500 1.000
2.21000 2.000
2.22500 1.000
2.24000 4.000
2.25500 3.000
2.27000 1.000
2.28500 4.000
2.30000 5.000
2.31500 5.000
2.33000 2.000
2.34500 2.000
2.36000 2.000
2.37500 3.000
2.39000 1.000
2.40500 1.000
2.42000 1.000
2.43500 1.000
2.45000 2.000
2.46500 1.000
2.48000 1.000
2.49500 0.000
2.51000 0.000
2.52500 2.000
2.54000 2.000
2.55500 2.000
2.57000 1.000
2.58500 0.000
2.60000 0.000
2.61500 0.000
2.63000 0.000
2.64500 2.000
2.66000 3.000
2.67500 3.000
2.69000 1.000
2.70500 1.000
2.72000 2.000
2.73500 4.000
2.75000 3.000
2.76500 1.000
2.78000 1.000
2.79500 0.000
2.81000 0.000
2.82500 1.000
2.84000 1.000
2.85500 2.000
2.87000 1.000
2.88500 1.000
2.90000 3.000
2.91500 2.000
2.93000 2.000
2.94500 2.000
2.96000 4.000
2.97500 0.000
2.99000 1.000
3.00500 2.000
3.02000 2.000
3.03500 2.000
3.05000 3.000
3.06500 3.000
3.08000 2.000
3.09500 0.000
3.11000 1.000
3.12500 1.000
3.14000 3.000
3.15500 6.000
3.17000 5.000
3.18500 5.000
3.20000 9.000
3.21500 11.000
3.23000 20.000
3.24500 22.000
3.26000 25.000
3.27500 31.000
3.29000 37.000
3.30500 32.000
3.32000 39.000
3.33500 47.000
3.35000 48.000
3.36500 48.000
3.38000 46.000
3.39500 45.000
3.41000 54.000
3.42500 52.000
3.44000 49.000
3.45500 45.000
3.47000 47.000
3.48500 47.000
3.50000 50.000
3.51500 41.000
3.53000 49.000
3.54500 50.000
3.56000 57.000
3.57500 49.000
3.59000 61.000
3.60500 58.000
3.62000 63.000
3.63500 48.000
3.65000 72.000
3.66500 65.000
3.68000 66.000
3.69500 63.000
3.71000 69.000
3.72500 64.000
3.74000 59.000
3.75500 50.000
3.77000 58.000
3.78500 67.000
3.80000 61.000
3.81500 52.000
3.83000 70.000
3.84500 60.000
3.86000 64.000
3.87500 68.000
3.89000 55.000
3.90500 53.000
3.92000 69.000
3.93500 81.000
3.95000 80.000
3.96500 68.000
3.98000 65.000
3.99500 70.000
4.01000 63.000
4.02500 76.000
4.04000 71.000
4.05500 71.000
4.07000 74.000
4.08500 78.000
4.10000 73.000
4.11500 71.000
4.13000 84.000
4.14500 80.000
4.16000 74.000
4.17500 71.000
4.19000 75.000
4.20500 67.000
4.22000 67.000
4.23500 69.000
4.25000 73.000
4.26500 79.000
4.28000 82.000
4.29500 78.000
4.31000 81.000
4.32500 81.000
4.34000 89.000
4.35500 84.000
4.37000 95.000
4.38500 88.000
4.40000 80.000
4.41500 80.000
4.43000 73.000
4.44500 78.000
4.46000 80.000
4.47500 76.000
4.49000 74.000
4.50500 87.000
4.52000 72.000
4.53500 74.000
4.55000 74.000
4.56500 95.000
4.58000 91.000
4.59500 97.000
4.61000 86.000
4.62500 98.000
4.64000 96.000
4.65500 95.000
4.67000 110.000
4.68500 87.000
4.70000 85.000
4.71500 95.000
4.73000 101.000
4.74500 92.000
4.76000 95.000
4.77500 93.000
4.79000 82.000
4.80500 98.000
4.82000 91.000
4.83500 95.000
4.85000 103.000
4.86500 86.000
4.88000 93.000
4.89500 102.000
4.91000 103.000
4.92500 92.000
4.94000 98.000
4.95500 94.000
4.97000 97.000
4.98500 86.000
5.00000 105.000
5.01500 84.000
5.03000 87.000
5.04500 104.000
5.06000 106.000
5.07500 90.000
5.09000 116.000
5.10500 98.000
5.12000 104.000
5.13500 101.000
5.15000 99.000
5.16500 89.000
5.18000 91.000
5.19500 111.000
5.21000 120.000
5.22500 103.000
5.24000 101.000
5.25500 104.000
5.27000 95.000
5.28500 104.000
5.30000 105.000
5.31500 92.000
5.33000 97.000
5.34500 114.000
5.36000 116.000
5.37500 111.000
5.39000 112.000
5.40500 95.000
5.42000 107.000
5.43500 99.000
5.45000 117.000
5.46500 104.000
5.48000 91.000
5.49500 91.000
5.51000 105.000
5.52500 113.000
5.54000 123.000
5.55500 114.000
5.57000 125.000
5.58500 121.000
5.60000 118.000
5.61500 119.000
5.63000 116.000
5.64500 119.000
5.66000 103.000
5.67500 112.000
5.69000 125.000
5.70500 106.000
5.72000 105.000
5.73500 103.000
5.75000 85.000
5.76500 115.000
5.78000 122.000
5.79500 116.000
5.81000 106.000
5.82500 115.000
5.84000 104.000
5.85500 104.000
5.87000 112.000
5.88500 117.000
5.90000 111.000
5.91500 112.000
5.93000 112.000
5.94500 119.000
5.96000 122.000
5.97500 110.000
5.99000 118.000
6.00500 104.000
6.02000 101.000
6.03500 106.000
6.05000 104.000
6.06500 113.000
6.08000 119.000
6.09500 126.000
6.11000 126.000
6.12500 119.000
6.14000 128.000
6.15500 123.000
6.17000 116.000
6.18500 135.000
6.20000 129.000
6.21500 120.000
6.23000 108.000
6.24500 116.000
6.26000 115.000
6.27500 116.000
6.29000 114.000
6.30500 110.000
6.32000 105.000
6.33500 115.000
6.35000 124.000
6.36500 108.000
6.38000 121.000
6.39500 112.000
6.41000 123.000
6.42500 120.000
6.44000 117.000
6.45500 121.000
6.47000 123.000
6.48500 132.000
6.50000 124.000
6.51500 122.000
6.53000 103.000
6.54500 116.000
6.56000 129.000
6.57500 124.000
6.59000 144.000
6.60500 128.000
6.62000 129.000
6.63500 110.000
6.65000 123.000
6.66500 129.000
6.68000 117.000
6.69500 120.000
6.71000 113.000
6.72500 110.000
6.74000 104.000
6.75500 118.000
6.77000 130.000
6.78500 136.000
6.80000 123.000
6.81500 136.000
6.83000 129.000
6.84500 125.000
6.86000 104.000
6.87500 119.000
6.89000 126.000
6.90500 129.000
6.92000 113.000
6.93500 118.000
6.95000 134.000
6.96500 136.000
6.98000 126.000
6.99500 121.000
7.01000 148.000
7.02500 149.000
7.04000 152.000
7.05500 131.000
7.07000 136.000
7.08500 130.000
7.10000 128.000
7.11500 133.000
7.13000 133.000
7.14500 131.000
7.16000 128.000
7.17500 119.000
7.19000 130.000
7.20500 129.000
7.22000 124.000
7.23500 132.000
7.25000 116.000
7.26500 145.000
7.28000 135.000
7.29500 127.000
7.31000 150.000
7.32500 139.000
7.34000 139.000
7.35500 125.000
7.37000 115.000
7.38500 135.000
7.40000 120.000
7.41500 141.000
7.43000 132.000
7.44500 130.000
7.46000 137.000
7.47500 156.000
7.49000 132.000
7.50500 122.000
7.52000 115.000
7.53500 115.000
7.55000 127.000
7.56500 138.000
7.58000 127.000
7.59500 124.000
7.61000 127.000
7.62500 134.000
7.64000 140.000
7.65500 129.000
7.67000 131.000
7.68500 136.000
7.70000 129.000
7.71500 131.000
7.73000 138.000
7.74500 144.000
7.76000 136.000
7.77500 143.000
7.79000 112.000
7.80500 143.000
7.82000 128.000
7.83500 124.000
7.85000 139.000
7.86500 122.000
7.88000 138.000
7.89500 141.000
7.91000 128.000
7.92500 126.000
7.94000 145.000
7.95500 141.000
7.97000 140.000
7.98500 128.000
8.00000 135.000
8.01500 167.000
8.03000 146.000
8.04500 137.000
8.06000 138.000
8.07500 122.000
8.09000 127.000
8.10500 133.000
8.12000 115.000
8.13500 138.000
8.15000 139.000
8.16500 147.000
8.18000 148.000
8.19500 151.000
8.21000 132.000
8.22500 147.000
8.24000 140.000
8.25500 134.000
8.27000 142.000
8.28500 129.000
8.30000 137.000
8.31500 129.000
8.33000 132.000
8.34500 154.000
8.36000 149.000
8.37500 137.000
8.39000 140.000
8.40500 139.000
8.42000 136.000
8.43500 140.000
8.45000 145.000
8.46500 141.000
8.48000 141.000
8.49500 145.000
8.51000 141.000
8.52500 153.000
8.54000 147.000
8.55500 138.000
8.57000 134.000
8.58500 131.000
8.60000 117.000
8.61500 130.000
8.63000 131.000
8.64500 136.000
8.66000 135.000
8.67500 138.000
8.69000 131.000
8.70500 156.000
8.72000 160.000
8.73500 140.000
8.75000 125.000
8.76500 130.000
8.78000 147.000
8.79500 148.000
8.81000 140.000
8.82500 140.000
8.84000 138.000
8.85500 117.000
8.87000 137.000
8.88500 147.000
8.90000 134.000
8.91500 161.000
8.93000 150.000
8.94500 133.000
8.96000 155.000
8.97500 141.000
8.99000 124.000
9.00500 142.000
9.02000 146.000
9.03500 143.000
9.05000 144.000
9.06500 126.000
9.08000 124.000
9.09500 132.000
9.11000 132.000
9.12500 150.000
9.14000 147.000
9.15500 151.000
9.17000 129.000
9.18500 129.000
9.20000 126.000
9.21500 152.000
9.23000 144.000
9.24500 146.000
9.26000 135.000
9.27500 133.000
9.29000 144.000
9.30500 156.000
9.32000 137.000
9.33500 132.000
9.35000 121.000
9.36500 156.000
9.38000 142.000
9.39500 149.000
9.41000 156.000
9.42500 159.000
9.44000 146.000
9.45500 146.000
9.47000 148.000
9.48500 137.000
9.50000 146.000
9.51500 162.000
9.53000 154.000
9.54500 150.000
9.56000 141.000
9.57500 142.000
9.59000 135.000
9.60500 149.000
9.62000 140.000
9.63500 147.000
9.65000 142.000
9.66500 138.000
9.68000 139.000
9.69500 133.000
9.71000 141.000
9.72500 140.000
9.74000 141.000
9.75500 135.000
9.77000 141.000
9.78500 152.000
9.80000 130.000
9.81500 135.000
9.83000 141.000
9.84500 157.000
9.86000 140.000
9.87500 143.000
9.89000 139.000
9.90500 157.000
9.92000 143.000
9.93500 146.000
9.95000 133.000
9.96500 136.000
9.98000 135.000
9.99500 150.000
10.01000 151.000
10.02500 148.000
10.04000 147.000
10.05500 140.000
10.07000 139.000
10.08500 153.000
10.10000 162.000
10.11500 154.000
10.13000 146.000
10.14500 147.000
10.16000 150.000
10.17500 147.000
10.19000 147.000
10.20500 137.000
10.22000 151.000
10.23500 147.000
10.25000 143.000
10.26500 150.000
10.28000 141.000
10.29500 162.000
10.31000 150.000
10.32500 139.000
10.34000 147.000
10.35500 149.000
10.37000 133.000
10.38500 143.000
10.40000 144.000
10.41500 143.000
10.43000 136.000
10.44500 152.000
10.46000 157.000
10.47500 139.000
10.49000 135.000
10.50500 126.000
10.52000 151.000
10.53500 144.000
10.55000 153.000
10.56500 150.000
10.58000 135.000
10.59500 146.000
10.61000 142.000
10.62500 123.000
10.64000 149.000
10.65500 139.000
10.67000 142.000
10.68500 146.000
10.70000 143.000
10.71500 148.000
10.73000 144.000
10.74500 146.000
10.76000 147.000
10.77500 135.000
10.79000 143.000
10.80500 138.000
10.82000 154.000
10.83500 155.000
10.85000 149.000
10.86500 154.000
10.88000 151.000
10.89500 165.000
10.91000 151.000
10.92500 139.000
10.94000 147.000
10.95500 152.000
10.97000 136.000
10.98500 141.000
11.00000 143.000
11.01500 132.000
11.03000 153.000
11.04500 153.000
11.06000 161.000
11.07500 160.000
11.09000 149.000
11.10500 150.000
11.12000 157.000
11.13500 153.000
11.15000 146.000
11.16500 144.000
11.18000 153.000
11.19500 166.000
11.21000 156.000
11.22500 142.000
11.24000 145.000
11.25500 141.000
11.27000 134.000
11.28500 143.000
11.30000 154.000
11.31500 153.000
11.33000 149.000
11.34500 151.000
11.36000 142.000
11.37500 154.000
11.39000 150.000
11.40500 145.000
11.42000 153.000
11.43500 149.000
11.45000 160.000
11.46500 147.000
11.48000 144.000
11.49500 144.000
11.51000 138.000
11.52500 156.000
11.54000 132.000
11.55500 138.000
11.57000 141.000
11.58500 157.000
11.60000 161.000
11.61500 155.000
11.63000 131.000
11.64500 159.000
11.66000 153.000
11.67500 157.000
11.69000 141.000
11.70500 154.000
11.72000 155.000
11.73500 131.000
11.75000 138.000
11.76500 143.000
11.78000 157.000
11.79500 149.000
11.81000 138.000
11.82500 154.000
11.84000 159.000
11.85500 163.000
11.87000 163.000
11.88500 162.000
11.90000 146.000
11.91500 149.000
11.93000 156.000
11.94500 149.000
11.96000 151.000
11.97500 153.000
11.99000 151.000
12.00500 138.000
12.02000 148.000
12.03500 160.000
12.05000 143.000
12.06500 138.000
12.08000 152.000
12.09500 139.000
12.11000 146.000
12.12500 150.000
12.14000 158.000
12.15500 149.000
12.17000 141.000
12.18500 131.000
12.20000 137.000
12.21500 152.000
12.23000 141.000
12.24500 137.000
12.26000 129.000
12.27500 156.000
12.29000 165.000
12.30500 152.000
12.32000 165.000
12.33500 162.000
12.35000 153.000
12.36500 136.000
12.38000 135.000
12.39500 136.000
12.41000 143.000
12.42500 138.000
12.44000 154.000
12.45500 150.000
12.47000 149.000
12.48500 148.000
12.50000 159.000
12.51500 151.000
12.53000 156.000
12.54500 149.000
12.56000 159.000
12.57500 166.000
12.59000 157.000
12.60500 157.000
12.62000 170.000
12.63500 160.000
12.65000 148.000
12.66500 144.000
12.68000 148.000
12.69500 160.000
12.71000 179.000
12.72500 147.000
12.74000 150.000
12.75500 156.000
12.77000 158.000
12.78500 155.000
12.80000 156.000
12.81500 154.000
12.83000 163.000
12.84500 171.000
12.86000 161.000
12.87500 165.000
12.89000 183.000
12.90500 204.000
12.92000 204.000
12.93500 239.000
12.95000 242.000
12.96500 250.000
12.98000 278.000
12.99500 294.000
13.01000 333.000
13.02500 417.000
13.04000 435.000
13.05500 470.000
13.07000 597.000
13.08500 776.000
13.10000 934.000
13.11500 1158.000
13.13000 1212.000
13.14500 988.000
13.16000 627.000
13.17500 360.000
13.19000 234.000
13.20500 197.000
13.22000 211.000
13.23500 190.000
13.25000 182.000
13.26500 171.000
13.28000 153.000
13.29500 152.000
13.31000 150.000
13.32500 156.000
13.34000 168.000
13.35500 161.000
13.37000 152.000
13.38500 167.000
13.40000 155.000
13.41500 162.000
13.43000 141.000
13.44500 138.000
13.46000 179.000
13.47500 144.000
13.49000 148.000
13.50500 161.000
13.52000 156.000
13.53500 153.000
13.55000 150.000
13.56500 156.000
13.58000 141.000
13.59500 141.000
13.61000 153.000
13.62500 150.000
13.64000 138.000
13.65500 164.000
13.67000 152.000
13.68500 158.000
13.70000 168.000
13.71500 156.000
13.73000 163.000
13.74500 148.000
13.76000 140.000
13.77500 151.000
13.79000 162.000
13.80500 145.000
13.82000 157.000
13.83500 167.000
13.85000 133.000
13.86500 138.000
13.88000 150.000
13.89500 148.000
13.91000 156.000
13.92500 162.000
13.94000 154.000
13.95500 152.000
13.97000 156.000
13.98500 179.000
14.00000 148.000
14.01500 145.000
14.03000 156.000
14.04500 171.000
14.06000 162.000
14.07500 142.000
14.09000 135.000
14.10500 146.000
14.12000 149.000
14.13500 160.000
14.15000 147.000
14.16500 139.000
14.18000 149.000
14.19500 190.000
14.21000 180.000
14.22500 167.000
14.24000 152.000
14.25500 135.000
14.27000 127.000
14.28500 162.000
14.30000 164.000
14.31500 158.000
14.33000 150.000
14.34500 144.000
14.36000 157.000
14.37500 149.000
14.39000 146.000
14.40500 164.000
14.42000 151.000
14.43500 137.000
14.45000 145.000
14.46500 164.000
14.48000 168.000
14.49500 152.000
14.51000 162.000
14.52500 149.000
14.54000 166.000
14.55500 187.000
14.57000 147.000
14.58500 150.000
14.60000 162.000
14.61500 168.000
14.63000 155.000
14.64500 171.000
14.66000 180.000
14.67500 163.000
14.69000 174.000
14.70500 185.000
14.72000 205.000
14.73500 217.000
14.75000 234.000
14.76500 249.000
14.78000 266.000
14.79500 359.000
14.81000 478.000
14.82500 551.000
14.84000 582.000
14.85500 708.000
14.87000 950.000
14.88500 1186.000
14.90000 1141.000
14.91500 798.000
14.93000 432.000
14.94500 271.000
14.96000 199.000
14.97500 178.000
14.99000 174.000
15.00500 161.000
15.02000 147.000
15.03500 153.000
15.05000 134.000
15.06500 174.000
15.08000 165.000
15.09500 165.000
15.11000 166.000
15.12500 141.000
15.14000 148.000
15.15500 160.000
15.17000 159.000
15.18500 157.000
15.20000 167.000
15.21500 168.000
15.23000 175.000
15.24500 150.000
15.26000 161.000
15.27500 153.000
15.29000 132.000
15.30500 152.000
15.32000 139.000
15.33500 141.000
15.35000 163.000
15.36500 162.000
15.38000 174.000
15.39500 159.000
15.41000 159.000
15.42500 158.000
15.44000 131.000
15.45500 143.000
15.47000 144.000
15.48500 155.000
15.50000 137.000
15.51500 171.000
15.53000 151.000
15.54500 155.000
15.56000 156.000
15.57500 148.000
15.59000 160.000
15.60500 162.000
15.62000 145.000
15.63500 140.000
15.65000 137.000
15.66500 156.000
15.68000 159.000
15.69500 171.000
15.71000 161.000
15.72500 161.000
15.74000 155.000
15.75500 154.000
15.77000 139.000
15.78500 139.000
15.80000 150.000
15.81500 157.000
15.83000 160.000
15.84500 163.000
15.86000 160.000
15.87500 160.000
15.89000 169.000
15.90500 160.000
15.92000 168.000
15.93500 135.000
15.95000 145.000
15.96500 167.000
15.98000 171.000
15.99500 141.000
16.01000 159.000
16.02500 150.000
16.04000 159.000
16.05500 174.000
16.07000 162.000
16.08500 167.000
16.10000 165.000
16.11500 170.000
16.13000 145.000
16.14500 151.000
16.16000 165.000
16.17500 153.000
16.19000 162.000
16.20500 149.000
16.22000 160.000
16.23500 156.000
16.25000 155.000
16.26500 159.000
16.28000 167.000
16.29500 156.000
16.31000 152.000
16.32500 151.000
16.34000 157.000
16.35500 151.000
16.37000 171.000
16.38500 171.000
16.40000 158.000
16.41500 156.000
16.43000 171.000
16.44500 161.000
16.46000 144.000
16.47500 136.000
16.49000 170.000
16.50500 160.000
16.52000 173.000
16.53500 169.000
16.55000 161.000
16.56500 166.000
16.58000 152.000
16.59500 163.000
16.61000 156.000
16.62500 162.000
16.64000 164.000
16.65500 159.000
16.67000 139.000
16.68500 164.000
16.70000 176.000
16.71500 166.000
16.73000 159.000
16.74500 177.000
16.76000 157.000
16.77500 174.000
16.79000 178.000
16.80500 161.000
16.82000 162.000
16.83500 153.000
16.85000 165.000
16.86500 147.000
16.88000 172.000
16.89500 157.000
16.91000 158.000
16.92500 167.000
16.94000 151.000
16.95500 157.000
16.97000 167.000
16.98500 146.000
17.00000 172.000
17.01500 172.000
17.03000 170.000
17.04500 162.000
17.06000 170.000
17.07500 166.000
17.09000 168.000
17.10500 161.000
17.12000 160.000
17.13500 160.000
17.15000 161.000
17.16500 154.000
17.18000 156.000
17.19500 169.000
17.21000 163.000
17.22500 181.000
17.24000 185.000
17.25500 165.000
17.27000 174.000
17.28500 208.000
17.30000 208.000
17.31500 234.000
17.33000 265.000
17.34500 283.000
17.36000 313.000
17.37500 345.000
17.39000 397.000
17.40500 496.000
17.42000 614.000
17.43500 805.000
17.45000 1092.000
17.46500 1339.000
17.48000 1278.000
17.49500 925.000
17.51000 602.000
17.52500 420.000
17.54000 445.000
17.55500 526.000
17.57000 604.000
17.58500 725.000
17.60000 865.000
17.61500 1144.000
17.63000 1486.000
17.64500 1884.000
17.66000 2537.000
17.67500 3542.000
17.69000 4678.000
17.70500 4948.000
17.72000 4187.000
17.73500 2713.000
17.75000 1498.000
17.76500 914.000
17.78000 732.000
17.79500 671.000
17.81000 716.000
17.82500 886.000
17.84000 1079.000
17.85500 1459.000
17.87000 1995.000
17.88500 2643.000
17.90000 2703.000
17.91500 1954.000
17.93000 1133.000
17.94500 588.000
17.96000 358.000
17.97500 285.000
17.99000 237.000
18.00500 222.000
18.02000 219.000
18.03500 218.000
18.05000 241.000
18.06500 249.000
18.08000 253.000
18.09500 254.000
18.11000 220.000
18.12500 200.000
18.14000 189.000
18.15500 188.000
18.17000 171.000
18.18500 163.000
18.20000 152.000
18.21500 182.000
18.23000 167.000
18.24500 144.000
18.26000 170.000
18.27500 160.000
18.29000 162.000
18.30500 164.000
18.32000 175.000
18.33500 178.000
18.35000 186.000
18.36500 168.000
18.38000 160.000
18.39500 165.000
18.41000 152.000
18.42500 151.000
18.44000 155.000
18.45500 164.000
18.47000 153.000
18.48500 145.000
18.50000 158.000
18.51500 164.000
18.53000 165.000
18.54500 171.000
18.56000 167.000
18.57500 171.000
18.59000 172.000
18.60500 169.000
18.62000 157.000
18.63500 178.000
18.65000 164.000
18.66500 167.000
18.68000 157.000
18.69500 170.000
18.71000 171.000
18.72500 173.000
18.74000 152.000
18.75500 161.000
18.77000 161.000
18.78500 160.000
18.80000 159.000
18.81500 172.000
18.83000 161.000
18.84500 163.000
18.86000 161.000
18.87500 159.000
18.89000 160.000
18.90500 161.000
18.92000 159.000
18.93500 166.000
18.95000 161.000
18.96500 158.000
18.98000 163.000
18.99500 178.000
19.01000 157.000
19.02500 164.000
19.04000 162.000
19.05500 165.000
19.07000 155.000
19.08500 155.000
19.10000 166.000
19.11500 159.000
19.13000 150.000
19.14500 158.000
19.16000 169.000
19.17500 169.000
19.19000 177.000
19.20500 173.000
19.22000 158.000
19.23500 157.000
19.25000 175.000
19.26500 164.000
19.28000 150.000
19.29500 168.000
19.31000 152.000
19.32500 161.000
19.34000 160.000
19.35500 158.000
19.37000 168.000
19.38500 174.000
19.40000 182.000
19.41500 185.000
19.43000 163.000
19.44500 162.000
19.46000 156.000
19.47500 168.000
19.49000 176.000
19.50500 171.000
19.52000 162.000
19.53500 167.000
19.55000 164.000
19.56500 153.000
19.58000 147.000
19.59500 152.000
19.61000 177.000
19.62500 165.000
19.64000 143.000
19.65500 155.000
19.67000 155.000
19.68500 177.000
19.70000 164.000
19.71500 179.000
19.73000 169.000
19.74500 172.000
19.76000 155.000
19.77500 170.000
19.79000 173.000
19.80500 175.000
19.82000 181.000
19.83500 168.000
19.85000 163.000
19.86500 167.000
19.88000 162.000
19.89500 163.000
19.91000 156.000
19.92500 153.000
19.94000 158.000
19.95500 174.000
19.97000 171.000
19.98500 163.000
20.00000 170.000
20.01500 181.000
20.03000 165.000
20.04500 174.000
20.06000 167.000
20.07500 156.000
20.09000 164.000
20.10500 171.000
20.12000 169.000
20.13500 185.000
20.15000 178.000
20.16500 177.000
20.18000 173.000
20.19500 157.000
20.21000 181.000
20.22500 189.000
20.24000 164.000
20.25500 174.000
20.27000 169.000
20.28500 182.000
20.30000 178.000
20.31500 165.000
20.33000 175.000
20.34500 146.000
20.36000 176.000
20.37500 186.000
20.39000 175.000
20.40500 183.000
20.42000 171.000
20.43500 176.000
20.45000 166.000
20.46500 160.000
20.48000 177.000
20.49500 180.000
20.51000 171.000
20.52500 177.000
20.54000 170.000
20.55500 172.000
20.57000 170.000
20.58500 180.000
20.60000 169.000
20.61500 178.000
20.63000 167.000
20.64500 165.000
20.66000 172.000
20.67500 154.000
20.69000 176.000
20.70500 171.000
20.72000 161.000
20.73500 161.000
20.75000 178.000
20.76500 174.000
20.78000 158.000
20.79500 176.000
20.81000 181.000
20.82500 185.000
20.84000 185.000
20.85500 172.000
20.87000 172.000
20.88500 172.000
20.90000 170.000
20.91500 157.000
20.93000 158.000
20.94500 163.000
20.96000 186.000
20.97500 174.000
20.99000 169.000
21.00500 166.000
21.02000 172.000
21.03500 165.000
21.05000 167.000
21.06500 164.000
21.08000 168.000
21.09500 188.000
21.11000 167.000
21.12500 178.000
21.14000 169.000
21.15500 171.000
21.17000 173.000
21.18500 156.000
21.20000 166.000
21.21500 193.000
21.23000 180.000
21.24500 176.000
21.26000 187.000
21.27500 187.000
21.29000 182.000
21.30500 174.000
21.32000 205.000
21.33500 209.000
21.35000 194.000
21.36500 186.000
21.38000 186.000
21.39500 197.000
21.41000 203.000
21.42500 230.000
21.44000 256.000
21.45500 293.000
21.47000 360.000
21.48500 434.000
21.50000 507.000
21.51500 467.000
21.53000 513.000
21.54500 512.000
21.56000 596.000
21.57500 801.000
21.59000 1241.000
21.60500 1728.000
21.62000 2193.000
21.63500 2759.000
21.65000 3512.000
21.66500 4516.000
21.68000 3903.000
21.69500 2391.000
21.71000 1231.000
21.72500 692.000
21.74000 452.000
21.75500 351.000
21.77000 323.000
21.78500 270.000
21.80000 255.000
21.81500 257.000
21.83000 237.000
21.84500 239.000
21.86000 233.000
21.87500 233.000
21.89000 276.000
21.90500 265.000
21.92000 275.000
21.93500 354.000
21.95000 397.000
21.96500 437.000
21.98000 592.000
21.99500 764.000
22.01000 1073.000
22.02500 1491.000
22.04000 2131.000
22.05500 2671.000
22.07000 2940.000
22.08500 2609.000
22.10000 1894.000
22.11500 1176.000
22.13000 706.000
22.14500 450.000
22.16000 317.000
22.17500 303.000
22.19000 270.000
22.20500 222.000
22.22000 211.000
22.23500 218.000
22.25000 214.000
22.26500 212.000
22.28000 223.000
22.29500 193.000
22.31000 164.000
22.32500 179.000
22.34000 199.000
22.35500 198.000
22.37000 172.000
22.38500 175.000
22.40000 191.000
22.41500 171.000
22.43000 178.000
22.44500 172.000
22.46000 172.000
22.47500 174.000
22.49000 186.000
22.50500 171.000
22.52000 183.000
22.53500 167.000
22.55000 180.000
22.56500 175.000
22.58000 159.000
22.59500 178.000
22.61000 182.000
22.62500 197.000
22.64000 154.000
22.65500 177.000
22.67000 182.000
22.68500 165.000
22.70000 173.000
22.71500 182.000
22.73000 185.000
22.74500 173.000
22.76000 163.000
22.77500 184.000
22.79000 175.000
22.80500 177.000
22.82000 210.000
22.83500 176.000
22.85000 173.000
22.86500 167.000
22.88000 189.000
22.89500 188.000
22.91000 167.000
22.92500 166.000
22.94000 155.000
22.95500 173.000
22.97000 172.000
22.98500 197.000
23.00000 160.000
23.01500 172.000
23.03000 163.000
23.04500 174.000
23.06000 179.000
23.07500 186.000
23.09000 174.000
23.10500 174.000
23.12000 174.000
23.13500 173.000
23.15000 160.000
23.16500 190.000
23.18000 184.000
23.19500 181.000
23.21000 177.000
23.22500 189.000
23.24000 169.000
23.25500 185.000
23.27000 171.000
23.28500 181.000
23.30000 177.000
23.31500 170.000
23.33000 181.000
23.34500 166.000
23.36000 180.000
23.37500 170.000
23.39000 161.000
23.40500 171.000
23.42000 181.000
23.43500 166.000
23.45000 180.000
23.46500 163.000
23.48000 154.000
23.49500 185.000
23.51000 186.000
23.52500 179.000
23.54000 172.000
23.55500 179.000
23.57000 164.000
23.58500 191.000
23.60000 178.000
23.61500 170.000
23.63000 175.000
23.64500 182.000
23.66000 167.000
23.67500 171.000
23.69000 185.000
23.70500 184.000
23.72000 180.000
23.73500 203.000
23.75000 191.000
23.76500 205.000
23.78000 208.000
23.79500 210.000
23.81000 187.000
23.82500 176.000
23.84000 173.000
23.85500 183.000
23.87000 177.000
23.88500 165.000
23.90000 180.000
23.91500 179.000
23.93000 158.000
23.94500 164.000
23.96000 179.000
23.97500 195.000
23.99000 163.000
24.00500 185.000
24.02000 191.000
24.03500 195.000
24.05000 183.000
24.06500 163.000
24.08000 159.000
24.09500 149.000
24.11000 159.000
24.12500 171.000
24.14000 181.000
24.15500 184.000
24.17000 173.000
24.18500 171.000
24.20000 177.000
24.21500 179.000
24.23000 186.000
24.24500 156.000
24.26000 180.000
24.27500 187.000
24.29000 172.000
24.30500 180.000
24.32000 157.000
24.33500 183.000
24.35000 175.000
24.36500 193.000
24.38000 198.000
24.39500 175.000
24.41000 155.000
24.42500 167.000
24.44000 174.000
24.45500 161.000
24.47000 167.000
24.48500 173.000
24.50000 175.000
24.51500 184.000
24.53000 175.000
24.54500 173.000
24.56000 173.000
24.57500 173.000
24.59000 161.000
24.60500 170.000
24.62000 171.000
24.63500 171.000
24.65000 178.000
24.66500 186.000
24.68000 172.000
24.69500 180.000
24.71000 213.000
24.72500 181.000
24.74000 159.000
24.75500 153.000
24.77000 196.000
24.78500 171.000
24.80000 157.000
24.81500 155.000
24.83000 173.000
24.84500 194.000
24.86000 181.000
24.87500 174.000
24.89000 168.000
24.90500 173.000
24.92000 174.000
24.93500 167.000
24.95000 162.000
24.96500 169.000
24.98000 166.000
24.99500 189.000
25.01000 187.000
25.02500 160.000
25.04000 187.000
25.05500 182.000
25.07000 182.000
25.08500 176.000
25.10000 191.000
25.11500 197.000
25.13000 189.000
25.14500 190.000
25.16000 171.000
25.17500 185.000
25.19000 177.000
25.20500 167.000
25.22000 171.000
25.23500 164.000
25.25000 168.000
25.26500 184.000
25.28000 189.000
25.29500 182.000
25.31000 194.000
25.32500 184.000
25.34000 182.000
25.35500 205.000
25.37000 201.000
25.38500 234.000
25.40000 259.000
25.41500 269.000
25.43000 315.000
25.44500 358.000
25.46000 437.000
25.47500 484.000
25.49000 490.000
25.50500 371.000
25.52000 277.000
25.53500 239.000
25.55000 214.000
25.56500 193.000
25.58000 207.000
25.59500 215.000
25.61000 236.000
25.62500 230.000
25.64000 266.000
25.65500 308.000
25.67000 411.000
25.68500 501.000
25.70000 570.000
25.71500 743.000
25.73000 1027.000
25.74500 1396.000
25.76000 2006.000
25.77500 2455.000
25.79000 2575.000
25.80500 2123.000
25.82000 1468.000
25.83500 872.000
25.85000 483.000
25.86500 367.000
25.88000 290.000
25.89500 273.000
25.91000 252.000
25.92500 250.000
25.94000 260.000
25.95500 255.000
25.97000 288.000
25.98500 277.000
26.00000 290.000
26.01500 358.000
26.03000 418.000
26.04500 480.000
26.06000 532.000
26.07500 629.000
26.09000 887.000
26.10500 1160.000
26.12000 1529.000
26.13500 2064.000
26.15000 3050.000
26.16500 4339.000
26.18000 5236.000
26.19500 6154.000
26.21000 5865.000
26.22500 4111.000
26.24000 2392.000
26.25500 1418.000
26.27000 879.000
26.28500 646.000
26.30000 508.000
26.31500 424.000
26.33000 387.000
26.34500 360.000
26.36000 375.000
26.37500 376.000
26.39000 409.000
26.40500 408.000
26.42000 414.000
26.43500 465.000
26.45000 403.000
26.46500 331.000
26.48000 281.000
26.49500 254.000
26.51000 218.000
26.52500 221.000
26.54000 223.000
26.55500 229.000
26.57000 222.000
26.58500 188.000
26.60000 209.000
26.61500 191.000
26.63000 193.000
26.64500 184.000
26.66000 173.000
26.67500 195.000
26.69000 187.000
26.70500 192.000
26.72000 189.000
26.73500 184.000
26.75000 186.000
26.76500 187.000
26.78000 186.000
26.79500 193.000
26.81000 180.000
26.82500 178.000
26.84000 192.000
26.85500 184.000
26.87000 187.000
26.88500 190.000
26.90000 206.000
26.91500 200.000
26.93000 212.000
26.94500 223.000
26.96000 281.000
26.97500 360.000
26.99000 420.000
27.00500 532.000
27.02000 770.000
27.03500 1082.000
27.05000 1528.000
27.06500 2151.000
27.08000 2873.000
27.09500 3243.000
27.11000 3136.000
27.12500 2384.000
27.14000 1361.000
27.15500 762.000
27.17000 536.000
27.18500 439.000
27.20000 435.000
27.21500 430.000
27.23000 513.000
27.24500 705.000
27.26000 714.000
27.27500 612.000
27.29000 414.000
27.30500 288.000
27.32000 254.000
27.33500 216.000
27.35000 185.000
27.36500 193.000
27.38000 178.000
27.39500 172.000
27.41000 172.000
27.42500 183.000
27.44000 183.000
27.45500 180.000
27.47000 188.000
27.48500 182.000
27.50000 161.000
27.51500 170.000
27.53000 174.000
27.54500 179.000
27.56000 161.000
27.57500 167.000
27.59000 166.000
27.60500 165.000
27.62000 154.000
27.63500 156.000
27.65000 175.000
27.66500 151.000
27.68000 164.000
27.69500 191.000
27.71000 182.000
27.72500 172.000
27.74000 165.000
27.75500 167.000
27.77000 174.000
27.78500 165.000
27.80000 171.000
27.81500 169.000
27.83000 153.000
27.84500 175.000
27.86000 179.000
27.87500 182.000
27.89000 172.000
27.90500 156.000
27.92000 162.000
27.93500 171.000
27.95000 186.000
27.96500 161.000
27.98000 176.000
27.99500 191.000
28.01000 215.000
28.02500 190.000
28.04000 206.000
28.05500 178.000
28.07000 191.000
28.08500 195.000
28.10000 198.000
28.11500 211.000
28.13000 201.000
28.14500 191.000
28.16000 155.000
28.17500 176.000
28.19000 167.000
28.20500 161.000
28.22000 174.000
28.23500 164.000
28.25000 160.000
28.26500 173.000
28.28000 154.000
28.29500 163.000
28.31000 178.000
28.32500 148.000
28.34000 179.000
28.35500 189.000
28.37000 200.000
28.38500 187.000
28.40000 186.000
28.41500 189.000
28.43000 235.000
28.44500 224.000
28.46000 215.000
28.47500 237.000
28.49000 220.000
28.50500 175.000
28.52000 178.000
28.53500 196.000
28.55000 186.000
28.56500 192.000
28.58000 191.000
28.59500 194.000
28.61000 186.000
28.62500 198.000
28.64000 234.000
28.65500 255.000
28.67000 275.000
28.68500 303.000
28.70000 339.000
28.71500 463.000
28.73000 575.000
28.74500 677.000
28.76000 923.000
28.77500 1267.000
28.79000 1646.000
28.80500 2133.000
28.82000 2469.000
28.83500 2560.000
28.85000 2117.000
28.86500 1537.000
28.88000 1017.000
28.89500 662.000
28.91000 483.000
28.92500 370.000
28.94000 343.000
28.95500 273.000
28.97000 255.000
28.98500 266.000
29.00000 256.000
29.01500 268.000
29.03000 269.000
29.04500 265.000
29.06000 291.000
29.07500 232.000
29.09000 210.000
29.10500 193.000
29.12000 187.000
29.13500 177.000
29.15000 188.000
29.16500 182.000
29.18000 189.000
29.19500 187.000
29.21000 184.000
29.22500 180.000
29.24000 167.000
29.25500 167.000
29.27000 157.000
29.28500 169.000
29.30000 169.000
29.31500 176.000
29.33000 180.000
29.34500 167.000
29.36000 182.000
29.37500 187.000
29.39000 186.000
29.40500 196.000
29.42000 215.000
29.43500 190.000
29.45000 191.000
29.46500 198.000
29.48000 190.000
29.49500 181.000
29.51000 191.000
29.52500 187.000
29.54000 180.000
29.55500 184.000
29.57000 193.000
29.58500 220.000
29.60000 202.000
29.61500 211.000
29.63000 203.000
29.64500 243.000
29.66000 255.000
29.67500 314.000
29.69000 348.000
29.70500 429.000
29.72000 532.000
29.73500 682.000
29.75000 917.000
29.76500 1240.000
29.78000 1710.000
29.79500 2341.000
29.81000 2773.000
29.82500 2752.000
29.84000 2519.000
29.85500 1952.000
29.87000 1201.000
29.88500 746.000
29.90000 566.000
29.91500 414.000
29.93000 353.000
29.94500 321.000
29.96000 281.000
29.97500 255.000
29.99000 216.000
30.00500 214.000
30.02000 217.000
30.03500 203.000
30.05000 192.000
30.06500 183.000
30.08000 187.000
30.09500 172.000
30.11000 184.000
30.12500 191.000
30.14000 165.000
30.15500 173.000
30.17000 177.000
30.18500 155.000
30.20000 172.000
30.21500 193.000
30.23000 166.000
30.24500 179.000
30.26000 211.000
30.27500 226.000
30.29000 247.000
30.30500 285.000
30.32000 298.000
30.33500 364.000
30.35000 326.000
30.36500 306.000
30.38000 261.000
30.39500 210.000
30.41000 196.000
30.42500 189.000
30.44000 182.000
30.45500 168.000
30.47000 156.000
30.48500 146.000
30.50000 148.000
30.51500 166.000
30.53000 150.000
30.54500 137.000
30.56000 171.000
30.57500 150.000
30.59000 158.000
30.60500 154.000
30.62000 167.000
30.63500 154.000
30.65000 151.000
30.66500 152.000
30.68000 145.000
30.69500 146.000
30.71000 135.000
30.72500 134.000
30.74000 143.000
30.75500 145.000
30.77000 147.000
30.78500 153.000
30.80000 152.000
30.81500 145.000
30.83000 140.000
30.84500 164.000
30.86000 143.000
30.87500 163.000
30.89000 151.000
30.90500 141.000
30.92000 153.000
30.93500 146.000
30.95000 139.000
30.96500 153.000
30.98000 142.000
30.99500 161.000
31.01000 152.000
31.02500 156.000
31.04000 126.000
31.05500 137.000
31.07000 149.000
31.08500 153.000
31.10000 147.000
31.11500 144.000
31.13000 133.000
31.14500 129.000
31.16000 145.000
31.17500 145.000
31.19000 141.000
31.20500 144.000
31.22000 150.000
31.23500 159.000
31.25000 148.000
31.26500 134.000
31.28000 147.000
31.29500 147.000
31.31000 122.000
31.32500 125.000
31.34000 133.000
31.35500 125.000
31.37000 114.000
31.38500 123.000
31.40000 132.000
31.41500 145.000
31.43000 138.000
31.44500 143.000
31.46000 146.000
31.47500 147.000
31.49000 135.000
31.50500 135.000
31.52000 147.000
31.53500 149.000
31.55000 161.000
31.56500 138.000
31.58000 135.000
31.59500 141.000
31.61000 145.000
31.62500 129.000
31.64000 120.000
31.65500 130.000
31.67000 141.000
31.68500 138.000
31.70000 128.000
31.71500 139.000
31.73000 122.000
31.74500 136.000
31.76000 133.000
31.77500 116.000
31.79000 137.000
31.80500 143.000
31.82000 145.000
31.83500 138.000
31.85000 124.000
31.86500 132.000
31.88000 118.000
31.89500 147.000
31.91000 151.000
31.92500 132.000
31.94000 134.000
31.95500 128.000
31.97000 136.000
31.98500 151.000
32.00000 141.000
32.01500 128.000
32.03000 137.000
32.04500 130.000
32.06000 137.000
32.07500 124.000
32.09000 130.000
32.10500 143.000
32.12000 139.000
32.13500 133.000
32.15000 128.000
32.16500 125.000
32.18000 144.000
32.19500 155.000
32.21000 139.000
32.22500 144.000
32.24000 145.000
32.25500 130.000
32.27000 143.000
32.28500 139.000
32.30000 128.000
32.31500 119.000
32.33000 122.000
32.34500 128.000
32.36000 119.000
32.37500 126.000
32.39000 140.000
32.40500 146.000
32.42000 139.000
32.43500 128.000
32.45000 131.000
32.46500 132.000
32.48000 127.000
32.49500 137.000
32.51000 140.000
32.52500 137.000
32.54000 133.000
32.55500 134.000
32.57000 140.000
32.58500 132.000
32.60000 137.000
32.61500 153.000
32.63000 134.000
32.64500 112.000
32.66000 128.000
32.67500 124.000
32.69000 127.000
32.70500 110.000
32.72000 139.000
32.73500 143.000
32.75000 139.000
32.76500 120.000
32.78000 118.000
32.79500 124.000
32.81000 129.000
32.82500 132.000
32.84000 130.000
32.85500 130.000
32.87000 120.000
32.88500 110.000
32.90000 129.000
32.91500 136.000
32.93000 127.000
32.94500 142.000
32.96000 135.000
32.97500 128.000
32.99000 113.000
33.00500 109.000
33.02000 133.000
33.03500 133.000
33.05000 130.000
33.06500 130.000
33.08000 120.000
33.09500 134.000
33.11000 133.000
33.12500 126.000
33.14000 123.000
33.15500 118.000
33.17000 129.000
33.18500 124.000
33.20000 138.000
33.21500 137.000
33.23000 142.000
33.24500 139.000
33.26000 149.000
33.27500 136.000
33.29000 160.000
33.30500 175.000
33.32000 184.000
33.33500 205.000
33.35000 249.000
33.36500 318.000
33.38000 335.000
33.39500 392.000
33.41000 409.000
33.42500 420.000
33.44000 347.000
33.45500 268.000
33.47000 230.000
33.48500 213.000
33.50000 171.000
33.51500 195.000
33.53000 143.000
33.54500 122.000
33.56000 127.000
33.57500 143.000
33.59000 143.000
33.60500 128.000
33.62000 142.000
33.63500 122.000
33.65000 135.000
33.66500 136.000
33.68000 156.000
33.69500 144.000
33.71000 135.000
33.72500 155.000
33.74000 161.000
33.75500 162.000
33.77000 201.000
33.78500 227.000
33.80000 247.000
33.81500 284.000
33.83000 342.000
33.84500 341.000
33.86000 329.000
33.87500 285.000
33.89000 256.000
33.90500 211.000
33.92000 167.000
33.93500 163.000
33.95000 149.000
33.96500 149.000
33.98000 130.000
33.99500 110.000
34.01000 137.000
34.02500 129.000
34.04000 126.000
34.05500 120.000
34.07000 120.000
34.08500 142.000
34.10000 135.000
34.11500 133.000
34.13000 125.000
34.14500 118.000
34.16000 119.000
34.17500 138.000
34.19000 136.000
34.20500 127.000
34.22000 130.000
34.23500 131.000
34.25000 140.000
34.26500 150.000
34.28000 159.000
34.29500 170.000
34.31000 188.000
34.32500 231.000
34.34000 245.000
34.35500 250.000
34.37000 267.000
34.38500 244.000
34.40000 219.000
34.41500 202.000
34.43000 174.000
34.44500 157.000
34.46000 130.000
34.47500 120.000
34.49000 134.000
34.50500 128.000
34.52000 133.000
34.53500 108.000
34.55000 111.000
34.56500 114.000
34.58000 124.000
34.59500 114.000
34.61000 129.000
34.62500 119.000
34.64000 125.000
34.65500 111.000
34.67000 126.000
34.68500 134.000
34.70000 117.000
34.71500 118.000
34.73000 115.000
34.74500 121.000
34.76000 128.000
34.77500 126.000
34.79000 110.000
34.80500 127.000
34.82000 124.000
34.83500 116.000
34.85000 114.000
34.86500 112.000
34.88000 104.000
34.89500 111.000
34.91000 129.000
34.92500 110.000
34.94000 140.000
34.95500 138.000
34.97000 154.000
34.98500 196.000
35.00000 236.000
35.01500 277.000
35.03000 323.000
35.04500 391.000
35.06000 443.000
35.07500 419.000
35.09000 330.000
35.10500 259.000
35.12000 200.000
35.13500 156.000
35.15000 142.000
35.16500 135.000
35.18000 131.000
35.19500 130.000
35.21000 105.000
35.22500 114.000
35.24000 124.000
35.25500 135.000
35.27000 122.000
35.28500 114.000
35.30000 108.000
35.31500 111.000
35.33000 121.000
35.34500 128.000
35.36000 133.000
35.37500 113.000
35.39000 104.000
35.40500 128.000
35.42000 112.000
35.43500 132.000
35.45000 120.000
35.46500 132.000
35.48000 130.000
35.49500 125.000
35.51000 109.000
35.52500 123.000
35.54000 112.000
35.55500 115.000
35.57000 120.000
35.58500 133.000
35.60000 123.000
35.61500 124.000
35.63000 139.000
35.64500 124.000
35.66000 139.000
35.67500 133.000
35.69000 134.000
35.70500 150.000
35.72000 168.000
35.73500 201.000
35.75000 202.000
35.76500 255.000
35.78000 300.000
35.79500 401.000
35.81000 531.000
35.82500 656.000
35.84000 699.000
35.85500 663.000
35.87000 572.000
35.88500 462.000
35.90000 329.000
35.91500 300.000
35.93000 274.000
35.94500 228.000
35.96000 232.000
35.97500 211.000
35.99000 197.000
36.00500 197.000
36.02000 166.000
36.03500 168.000
36.05000 146.000
36.06500 153.000
36.08000 156.000
36.09500 156.000
36.11000 154.000
36.12500 166.000
36.14000 182.000
36.15500 204.000
36.17000 285.000
36.18500 331.000
36.20000 450.000
36.21500 576.000
36.23000 683.000
36.24500 644.000
36.26000 580.000
36.27500 482.000
36.29000 339.000
36.30500 271.000
36.32000 199.000
36.33500 184.000
36.35000 168.000
36.36500 180.000
36.38000 179.000
36.39500 184.000
36.41000 207.000
36.42500 247.000
36.44000 323.000
36.45500 371.000
36.47000 575.000
36.48500 853.000
36.50000 911.000
36.51500 847.000
36.53000 547.000
36.54500 362.000
36.56000 249.000
36.57500 219.000
36.59000 180.000
36.60500 167.000
36.62000 180.000
36.63500 206.000
36.65000 184.000
36.66500 189.000
36.68000 153.000
36.69500 159.000
36.71000 145.000
36.72500 131.000
36.74000 148.000
36.75500 141.000
36.77000 160.000
36.78500 175.000
36.80000 187.000
36.81500 184.000
36.83000 155.000
36.84500 157.000
36.86000 129.000
36.87500 111.000
36.89000 131.000
36.90500 112.000
36.92000 122.000
36.93500 111.000
36.95000 121.000
36.96500 115.000
36.98000 116.000
36.99500 158.000
37.01000 147.000
37.02500 159.000
37.04000 173.000
37.05500 180.000
37.07000 220.000
37.08500 299.000
37.10000 397.000
37.11500 543.000
37.13000 713.000
37.14500 844.000
37.16000 954.000
37.17500 894.000
37.19000 792.000
37.20500 584.000
37.22000 387.000
37.23500 279.000
37.25000 206.000
37.26500 177.000
37.28000 136.000
37.29500 138.000
37.31000 138.000
37.32500 130.000
37.34000 137.000
37.35500 130.000
37.37000 128.000
37.38500 118.000
37.40000 109.000
37.41500 123.000
37.43000 119.000
37.44500 106.000
37.46000 117.000
37.47500 123.000
37.49000 123.000
37.50500 107.000
37.52000 113.000
37.53500 113.000
37.55000 122.000
37.56500 130.000
37.58000 145.000
37.59500 159.000
37.61000 199.000
37.62500 226.000
37.64000 211.000
37.65500 243.000
37.67000 222.000
37.68500 220.000
37.70000 183.000
37.71500 149.000
37.73000 139.000
37.74500 125.000
37.76000 109.000
37.77500 118.000
37.79000 111.000
37.80500 98.000
37.82000 107.000
37.83500 122.000
37.85000 112.000
37.86500 99.000
37.88000 96.000
37.89500 105.000
37.91000 102.000
37.92500 99.000
37.94000 94.000
37.95500 113.000
37.97000 105.000
37.98500 110.000
38.00000 108.000
38.01500 128.000
38.03000 110.000
38.04500 106.000
38.06000 99.000
38.07500 96.000
38.09000 108.000
38.10500 100.000
38.12000 96.000
38.13500 124.000
38.15000 130.000
38.16500 153.000
38.18000 149.000
38.19500 161.000
38.21000 186.000
38.22500 204.000
38.24000 249.000
38.25500 307.000
38.27000 368.000
38.28500 424.000
38.30000 549.000
38.31500 784.000
38.33000 1092.000
38.34500 1343.000
38.36000 1396.000
38.37500 1232.000
38.39000 967.000
38.40500 651.000
38.42000 407.000
38.43500 263.000
38.45000 202.000
38.46500 166.000
38.48000 142.000
38.49500 151.000
38.51000 137.000
38.52500 129.000
38.54000 128.000
38.55500 121.000
38.57000 145.000
38.58500 159.000
38.60000 157.000
38.61500 175.000
38.63000 196.000
38.64500 207.000
38.66000 199.000
38.67500 155.000
38.69000 154.000
38.70500 136.000
38.72000 129.000
38.73500 122.000
38.75000 97.000
38.76500 101.000
38.78000 103.000
38.79500 102.000
38.81000 101.000
38.82500 114.000
38.84000 111.000
38.85500 96.000
38.87000 92.000
38.88500 90.000
38.90000 88.000
38.91500 92.000
38.93000 106.000
38.94500 110.000
38.96000 89.000
38.97500 91.000
38.99000 91.000
39.00500 81.000
39.02000 87.000
39.03500 89.000
39.05000 96.000
39.06500 101.000
39.08000 107.000
39.09500 107.000
39.11000 94.000
39.12500 101.000
39.14000 103.000
39.15500 88.000
39.17000 95.000
39.18500 97.000
39.20000 99.000
39.21500 95.000
39.23000 98.000
39.24500 82.000
39.26000 101.000
39.27500 90.000
39.29000 101.000
39.30500 106.000
39.32000 97.000
39.33500 98.000
39.35000 92.000
39.36500 86.000
39.38000 91.000
39.39500 89.000
39.41000 104.000
39.42500 106.000
39.44000 108.000
39.45500 92.000
39.47000 77.000
39.48500 86.000
39.50000 90.000
39.51500 100.000
39.53000 97.000
39.54500 113.000
39.56000 115.000
39.57500 148.000
39.59000 133.000
39.60500 130.000
39.62000 130.000
39.63500 121.000
39.65000 114.000
39.66500 97.000
39.68000 103.000
39.69500 83.000
39.71000 87.000
39.72500 89.000
39.74000 96.000
39.75500 80.000
39.77000 91.000
39.78500 108.000
39.80000 93.000
39.81500 91.000
39.83000 104.000
39.84500 111.000
39.86000 100.000
39.87500 86.000
39.89000 89.000
39.90500 84.000
39.92000 92.000
39.93500 97.000
39.95000 89.000
39.96500 95.000
39.98000 84.000
39.99500 104.000
40.01000 105.000
40.02500 97.000
40.04000 104.000
40.05500 109.000
40.07000 108.000
40.08500 119.000
40.10000 126.000
40.11500 120.000
40.13000 98.000
40.14500 107.000
40.16000 109.000
40.17500 101.000
40.19000 107.000
40.20500 96.000
40.22000 83.000
40.23500 92.000
40.25000 89.000
40.26500 87.000
40.28000 90.000
40.29500 95.000
40.31000 71.000
40.32500 90.000
40.34000 87.000
40.35500 93.000
40.37000 88.000
40.38500 82.000
40.40000 96.000
40.41500 109.000
40.43000 99.000
40.44500 98.000
40.46000 97.000
40.47500 86.000
40.49000 107.000
40.50500 102.000
40.52000 101.000
40.53500 113.000
40.55000 138.000
40.56500 146.000
40.58000 151.000
40.59500 155.000
40.61000 119.000
40.62500 103.000
40.64000 98.000
40.65500 108.000
40.67000 99.000
40.68500 84.000
40.70000 83.000
40.71500 105.000
40.73000 95.000
40.74500 94.000
40.76000 94.000
40.77500 95.000
40.79000 109.000
40.80500 118.000
40.82000 94.000
40.83500 87.000
40.85000 95.000
40.86500 105.000
40.88000 107.000
40.89500 106.000
40.91000 141.000
40.92500 147.000
40.94000 181.000
40.95500 221.000
40.97000 268.000
40.98500 320.000
41.00000 311.000
41.01500 291.000
41.03000 235.000
41.04500 207.000
41.06000 140.000
41.07500 144.000
41.09000 117.000
41.10500 112.000
41.12000 108.000
41.13500 110.000
41.15000 107.000
41.16500 94.000
41.18000 99.000
41.19500 96.000
41.21000 92.000
41.22500 98.000
41.24000 96.000
41.25500 96.000
41.27000 93.000
41.28500 86.000
41.30000 95.000
41.31500 95.000
41.33000 86.000
41.34500 90.000
41.36000 84.000
41.37500 94.000
41.39000 90.000
41.40500 74.000
41.42000 77.000
41.43500 79.000
41.45000 84.000
41.46500 83.000
41.48000 80.000
41.49500 88.000
41.51000 93.000
41.52500 90.000
41.54000 101.000
41.55500 97.000
41.57000 90.000
41.58500 95.000
41.60000 87.000
41.61500 88.000
41.63000 95.000
41.64500 99.000
41.66000 95.000
41.67500 110.000
41.69000 122.000
41.70500 130.000
41.72000 145.000
41.73500 150.000
41.75000 180.000
41.76500 243.000
41.78000 245.000
41.79500 233.000
41.81000 198.000
41.82500 185.000
41.84000 141.000
41.85500 147.000
41.87000 127.000
41.88500 123.000
41.90000 133.000
41.91500 122.000
41.93000 132.000
41.94500 132.000
41.96000 137.000
41.97500 118.000
41.99000 147.000
42.00500 113.000
42.02000 107.000
42.03500 96.000
42.05000 96.000
42.06500 85.000
42.08000 86.000
42.09500 92.000
42.11000 93.000
42.12500 89.000
42.14000 90.000
42.15500 83.000
42.17000 73.000
42.18500 86.000
42.20000 75.000
42.21500 72.000
42.23000 82.000
42.24500 82.000
42.26000 84.000
42.27500 88.000
42.29000 80.000
42.30500 99.000
42.32000 90.000
42.33500 77.000
42.35000 91.000
42.36500 79.000
42.38000 85.000
42.39500 94.000
42.41000 90.000
42.42500 93.000
42.44000 107.000
42.45500 114.000
42.47000 144.000
42.48500 167.000
42.50000 164.000
42.51500 210.000
42.53000 202.000
42.54500 159.000
42.56000 134.000
42.57500 113.000
42.59000 112.000
42.60500 105.000
42.62000 93.000
42.63500 98.000
42.65000 88.000
42.66500 91.000
42.68000 92.000
42.69500 97.000
42.71000 96.000
42.72500 96.000
42.74000 96.000
42.75500 90.000
42.77000 103.000
42.78500 95.000
42.80000 77.000
42.81500 88.000
42.83000 84.000
42.84500 86.000
42.86000 81.000
42.87500 82.000
42.89000 94.000
42.90500 72.000
42.92000 82.000
42.93500 95.000
42.95000 99.000
42.96500 103.000
42.98000 92.000
42.99500 97.000
43.01000 88.000
43.02500 83.000
43.04000 87.000
43.05500 90.000
43.07000 84.000
43.08500 95.000
43.10000 87.000
43.11500 83.000
43.13000 84.000
43.14500 99.000
43.16000 98.000
43.17500 101.000
43.19000 96.000
43.20500 111.000
43.22000 102.000
43.23500 77.000
43.25000 88.000
43.26500 92.000
43.28000 102.000
43.29500 105.000
43.31000 84.000
43.32500 78.000
43.34000 63.000
43.35500 78.000
43.37000 89.000
43.38500 85.000
43.40000 74.000
43.41500 82.000
43.43000 81.000
43.44500 76.000
43.46000 87.000
43.47500 91.000
43.49000 90.000
43.50500 95.000
43.52000 98.000
43.53500 87.000
43.55000 81.000
43.56500 96.000
43.58000 91.000
43.59500 85.000
43.61000 89.000
43.62500 96.000
43.64000 93.000
43.65500 95.000
43.67000 107.000
43.68500 97.000
43.70000 102.000
43.71500 89.000
43.73000 103.000
43.74500 101.000
43.76000 128.000
43.77500 132.000
43.79000 151.000
43.80500 130.000
43.82000 120.000
43.83500 113.000
43.85000 113.000
43.86500 109.000
43.88000 105.000
43.89500 107.000
43.91000 123.000
43.92500 125.000
43.94000 131.000
43.95500 147.000
43.97000 195.000
43.98500 213.000
44.00000 195.000
44.01500 214.000
44.03000 168.000
44.04500 175.000
44.06000 132.000
44.07500 109.000
44.09000 116.000
44.10500 117.000
44.12000 118.000
44.13500 112.000
44.15000 130.000
44.16500 108.000
44.18000 116.000
44.19500 106.000
44.21000 114.000
44.22500 103.000
44.24000 77.000
44.25500 82.000
44.27000 93.000
44.28500 91.000
44.30000 94.000
44.31500 102.000
44.33000 88.000
44.34500 85.000
44.36000 81.000
44.37500 81.000
44.39000 84.000
44.40500 74.000
44.42000 74.000
44.43500 75.000
44.45000 78.000
44.46500 92.000
44.48000 115.000
44.49500 83.000
44.51000 86.000
44.52500 105.000
44.54000 93.000
44.55500 117.000
44.57000 114.000
44.58500 112.000
44.60000 117.000
44.61500 126.000
44.63000 114.000
44.64500 127.000
44.66000 105.000
44.67500 106.000
44.69000 107.000
44.70500 102.000
44.72000 116.000
44.73500 114.000
44.75000 135.000
44.76500 155.000
44.78000 192.000
44.79500 244.000
44.81000 302.000
44.82500 376.000
44.84000 436.000
44.85500 460.000
44.87000 372.000
44.88500 312.000
44.90000 227.000
44.91500 180.000
44.93000 161.000
44.94500 162.000
44.96000 137.000
44.97500 128.000
44.99000 113.000
45.00500 122.000
45.02000 139.000
45.03500 139.000
45.05000 131.000
45.06500 121.000
45.08000 123.000
45.09500 125.000
45.11000 111.000
45.12500 91.000
45.14000 101.000
45.15500 106.000
45.17000 98.000
45.18500 103.000
45.20000 99.000
45.21500 101.000
45.23000 128.000
45.24500 112.000
45.26000 107.000
45.27500 102.000
45.29000 100.000
45.30500 100.000
45.32000 90.000
45.33500 93.000
45.35000 96.000
45.36500 101.000
45.38000 91.000
45.39500 108.000
45.41000 113.000
45.42500 105.000
45.44000 130.000
45.45500 110.000
45.47000 125.000
45.48500 145.000
45.50000 155.000
45.51500 174.000
45.53000 130.000
45.54500 140.000
45.56000 120.000
45.57500 119.000
45.59000 115.000
45.60500 127.000
45.62000 127.000
45.63500 114.000
45.65000 101.000
45.66500 114.000
45.68000 121.000
45.69500 148.000
45.71000 163.000
45.72500 150.000
45.74000 146.000
45.75500 172.000
45.77000 156.000
45.78500 130.000
45.80000 127.000
45.81500 119.000
45.83000 108.000
45.84500 83.000
45.86000 87.000
45.87500 97.000
45.89000 97.000
45.90500 87.000
45.92000 92.000
45.93500 101.000
45.95000 96.000
45.96500 85.000
45.98000 73.000
45.99500 89.000
46.01000 89.000
46.02500 94.000
46.04000 81.000
46.05500 93.000
46.07000 86.000
46.08500 95.000
46.10000 92.000
46.11500 86.000
46.13000 88.000
46.14500 89.000
46.16000 80.000
46.17500 71.000
46.19000 81.000
46.20500 81.000
46.22000 83.000
46.23500 108.000
46.25000 98.000
46.26500 105.000
46.28000 113.000
46.29500 102.000
46.31000 114.000
46.32500 114.000
46.34000 87.000
46.35500 87.000
46.37000 94.000
46.38500 93.000
46.40000 82.000
46.41500 77.000
46.43000 77.000
46.44500 82.000
46.46000 82.000
46.47500 90.000
46.49000 81.000
46.50500 71.000
46.52000 88.000
46.53500 77.000
46.55000 81.000
46.56500 91.000
46.58000 83.000
46.59500 83.000
46.61000 92.000
46.62500 88.000
46.64000 96.000
46.65500 91.000
46.67000 88.000
46.68500 88.000
46.70000 80.000
46.71500 101.000
46.73000 85.000
46.74500 87.000
46.76000 89.000
46.77500 79.000
46.79000 76.000
46.80500 91.000
46.82000 89.000
46.83500 96.000
46.85000 98.000
46.86500 89.000
46.88000 103.000
46.89500 110.000
46.91000 110.000
46.92500 115.000
46.94000 113.000
46.95500 126.000
46.97000 153.000
46.98500 186.000
47.00000 216.000
47.01500 245.000
47.03000 278.000
47.04500 288.000
47.06000 266.000
47.07500 264.000
47.09000 217.000
47.10500 146.000
47.12000 136.000
47.13500 121.000
47.15000 114.000
47.16500 108.000
47.18000 97.000
47.19500 102.000
47.21000 94.000
47.22500 100.000
47.24000 95.000
47.25500 85.000
47.27000 85.000
47.28500 90.000
47.30000 98.000
47.31500 95.000
47.33000 98.000
47.34500 87.000
47.36000 91.000
47.37500 95.000
47.39000 103.000
47.40500 112.000
47.42000 112.000
47.43500 132.000
47.45000 159.000
47.46500 229.000
47.48000 286.000
47.49500 380.000
47.51000 537.000
47.52500 697.000
47.54000 839.000
47.55500 945.000
47.57000 986.000
47.58500 768.000
47.60000 527.000
47.61500 381.000
47.63000 294.000
47.64500 206.000
47.66000 158.000
47.67500 126.000
47.69000 123.000
47.70500 126.000
47.72000 116.000
47.73500 95.000
47.75000 105.000
47.76500 97.000
47.78000 79.000
47.79500 88.000
47.81000 104.000
47.82500 88.000
47.84000 96.000
47.85500 103.000
47.87000 104.000
47.88500 89.000
47.90000 86.000
47.91500 83.000
47.93000 77.000
47.94500 91.000
47.96000 87.000
47.97500 92.000
47.99000 82.000
48.00500 83.000
48.02000 88.000
48.03500 87.000
48.05000 77.000
48.06500 89.000
48.08000 99.000
48.09500 86.000
48.11000 98.000
48.12500 96.000
48.14000 94.000
48.15500 97.000
48.17000 88.000
48.18500 95.000
48.20000 101.000
48.21500 133.000
48.23000 154.000
48.24500 168.000
48.26000 177.000
48.27500 236.000
48.29000 288.000
48.30500 338.000
48.32000 361.000
48.33500 334.000
48.35000 260.000
48.36500 215.000
48.38000 184.000
48.39500 146.000
48.41000 135.000
48.42500 134.000
48.44000 118.000
48.45500 101.000
48.47000 90.000
48.48500 88.000
48.50000 102.000
48.51500 98.000
48.53000 92.000
48.54500 87.000
48.56000 97.000
48.57500 95.000
48.59000 101.000
48.60500 95.000
48.62000 96.000
48.63500 77.000
48.65000 82.000
48.66500 86.000
48.68000 87.000
48.69500 87.000
48.71000 78.000
48.72500 75.000
48.74000 70.000
48.75500 78.000
48.77000 82.000
48.78500 79.000
48.80000 73.000
48.81500 86.000
48.83000 81.000
48.84500 79.000
48.86000 83.000
48.87500 81.000
48.89000 72.000
48.90500 80.000
48.92000 83.000
48.93500 70.000
48.95000 67.000
48.96500 74.000
48.98000 71.000
48.99500 83.000
49.01000 84.000
49.02500 88.000
49.04000 89.000
49.05500 76.000
49.07000 83.000
49.08500 85.000
49.10000 72.000
49.11500 82.000
49.13000 88.000
49.14500 84.000
49.16000 81.000
49.17500 90.000
49.19000 81.000
49.20500 93.000
49.22000 63.000
49.23500 83.000
49.25000 92.000
49.26500 90.000
49.28000 74.000
49.29500 76.000
49.31000 81.000
49.32500 82.000
49.34000 84.000
49.35500 84.000
49.37000 73.000
49.38500 85.000
49.40000 79.000
49.41500 83.000
49.43000 78.000
49.44500 84.000
49.46000 87.000
49.47500 77.000
49.49000 86.000
49.50500 86.000
49.52000 83.000
49.53500 81.000
49.55000 87.000
49.56500 92.000
49.58000 87.000
49.59500 97.000
49.61000 95.000
49.62500 97.000
49.64000 101.000
49.65500 107.000
49.67000 95.000
49.68500 88.000
49.70000 71.000
49.71500 71.000
49.73000 78.000
49.74500 76.000
49.76000 81.000
49.77500 82.000
49.79000 83.000
49.80500 92.000
49.82000 83.000
49.83500 93.000
49.85000 84.000
49.86500 73.000
49.88000 72.000
49.89500 77.000
49.91000 81.000
49.92500 68.000
49.94000 75.000
49.95500 81.000
49.97000 83.000
49.98500 83.000
50.00000 96.000
50.01500 86.000
50.03000 82.000
50.04500 104.000
50.06000 95.000
50.07500 112.000
50.09000 135.000
50.10500 120.000
50.12000 133.000
50.13500 147.000
50.15000 134.000
50.16500 120.000
50.18000 119.000
50.19500 129.000
50.21000 146.000
50.22500 162.000
50.24000 199.000
50.25500 210.000
50.27000 211.000
50.28500 270.000
50.30000 289.000
50.31500 276.000
50.33000 245.000
50.34500 216.000
50.36000 195.000
50.37500 190.000
50.39000 174.000
50.40500 164.000
50.42000 161.000
50.43500 169.000
50.45000 160.000
50.46500 148.000
50.48000 142.000
50.49500 133.000
50.51000 116.000
50.52500 113.000
50.54000 100.000
50.55500 100.000
50.57000 95.000
50.58500 85.000
50.60000 83.000
50.61500 99.000
50.63000 86.000
50.64500 96.000
50.66000 86.000
50.67500 85.000
50.69000 94.000
50.70500 85.000
50.72000 71.000
50.73500 78.000
50.75000 77.000
50.76500 84.000
50.78000 75.000
50.79500 74.000
50.81000 82.000
50.82500 88.000
50.84000 75.000
50.85500 98.000
50.87000 88.000
50.88500 85.000
50.90000 99.000
50.91500 79.000
50.93000 83.000
50.94500 69.000
50.96000 76.000
50.97500 71.000
50.99000 75.000
51.00500 84.000
51.02000 79.000
51.03500 82.000
51.05000 89.000
51.06500 97.000
51.08000 97.000
51.09500 79.000
51.11000 89.000
51.12500 97.000
51.14000 94.000
51.15500 108.000
51.17000 112.000
51.18500 92.000
51.20000 90.000
51.21500 96.000
51.23000 103.000
51.24500 91.000
51.26000 73.000
51.27500 84.000
51.29000 96.000
51.30500 83.000
51.32000 75.000
51.33500 74.000
51.35000 89.000
51.36500 77.000
51.38000 60.000
51.39500 82.000
51.41000 88.000
51.42500 94.000
51.44000 78.000
51.45500 90.000
51.47000 80.000
51.48500 78.000
51.50000 88.000
51.51500 92.000
51.53000 99.000
51.54500 91.000
51.56000 93.000
51.57500 82.000
51.59000 96.000
51.60500 114.000
51.62000 120.000
51.63500 123.000
51.65000 137.000
51.66500 156.000
51.68000 145.000
51.69500 159.000
51.71000 137.000
51.72500 132.000
51.74000 123.000
51.75500 113.000
51.77000 104.000
51.78500 131.000
51.80000 107.000
51.81500 120.000
51.83000 130.000
51.84500 127.000
51.86000 124.000
51.87500 98.000
51.89000 106.000
51.90500 106.000
51.92000 90.000
51.93500 94.000
51.95000 88.000
51.96500 79.000
51.98000 92.000
51.99500 88.000
52.01000 88.000
52.02500 90.000
52.04000 99.000
52.05500 98.000
52.07000 102.000
52.08500 102.000
52.10000 99.000
52.11500 104.000
52.13000 139.000
52.14500 141.000
52.16000 130.000
52.17500 137.000
52.19000 126.000
52.20500 156.000
52.22000 183.000
52.23500 184.000
52.25000 186.000
52.26500 231.000
52.28000 189.000
52.29500 167.000
52.31000 172.000
52.32500 155.000
52.34000 129.000
52.35500 112.000
52.37000 105.000
52.38500 99.000
52.40000 95.000
52.41500 94.000
52.43000 85.000
52.44500 83.000
52.46000 76.000
52.47500 83.000
52.49000 88.000
52.50500 88.000
52.52000 91.000
52.53500 83.000
52.55000 94.000
52.56500 89.000
52.58000 101.000
52.59500 93.000
52.61000 94.000
52.62500 104.000
52.64000 123.000
52.65500 146.000
52.67000 120.000
52.68500 146.000
52.70000 144.000
52.71500 135.000
52.73000 128.000
52.74500 114.000
52.76000 109.000
52.77500 105.000
52.79000 126.000
52.80500 127.000
52.82000 131.000
52.83500 152.000
52.85000 165.000
52.86500 190.000
52.88000 208.000
52.89500 253.000
52.91000 301.000
52.92500 379.000
52.94000 420.000
52.95500 449.000
52.97000 489.000
52.98500 431.000
53.00000 414.000
53.01500 405.000
53.03000 349.000
53.04500 274.000
53.06000 223.000
53.07500 169.000
53.09000 157.000
53.10500 121.000
53.12000 111.000
53.13500 113.000
53.15000 122.000
53.16500 96.000
53.18000 87.000
53.19500 90.000
53.21000 83.000
53.22500 102.000
53.24000 78.000
53.25500 84.000
53.27000 101.000
53.28500 96.000
53.30000 74.000
53.31500 79.000
53.33000 76.000
53.34500 86.000
53.36000 74.000
53.37500 100.000
53.39000 86.000
53.40500 77.000
53.42000 68.000
53.43500 80.000
53.45000 82.000
53.46500 77.000
53.48000 82.000
53.49500 83.000
53.51000 79.000
53.52500 91.000
53.54000 83.000
53.55500 83.000
53.57000 87.000
53.58500 96.000
53.60000 97.000
53.61500 114.000
53.63000 119.000
53.64500 106.000
53.66000 119.000
53.67500 113.000
53.69000 109.000
53.70500 87.000
53.72000 100.000
53.73500 92.000
53.75000 84.000
53.76500 75.000
53.78000 87.000
53.79500 96.000
53.81000 82.000
53.82500 93.000
53.84000 93.000
53.85500 105.000
53.87000 74.000
53.88500 85.000
53.90000 96.000
53.91500 98.000
53.93000 81.000
53.94500 82.000
53.96000 94.000
53.97500 93.000
53.99000 76.000
54.00500 83.000
54.02000 92.000
54.03500 79.000
54.05000 89.000
54.06500 97.000
54.08000 91.000
54.09500 92.000
54.11000 97.000
54.12500 95.000
54.14000 102.000
54.15500 116.000
54.17000 122.000
54.18500 129.000
54.20000 130.000
54.21500 127.000
54.23000 122.000
54.24500 104.000
54.26000 115.000
54.27500 85.000
54.29000 104.000
54.30500 89.000
54.32000 94.000
54.33500 107.000
54.35000 110.000
54.36500 105.000
54.38000 113.000
54.39500 106.000
54.41000 104.000
54.42500 118.000
54.44000 145.000
54.45500 176.000
54.47000 176.000
54.48500 190.000
54.50000 213.000
54.51500 237.000
54.53000 244.000
54.54500 216.000
54.56000 167.000
54.57500 150.000
54.59000 132.000
54.60500 118.000
54.62000 104.000
54.63500 101.000
54.65000 97.000
54.66500 96.000
54.68000 91.000
54.69500 87.000
54.71000 93.000
54.72500 109.000
54.74000 111.000
54.75500 119.000
54.77000 141.000
54.78500 175.000
54.80000 174.000
54.81500 207.000
54.83000 243.000
54.84500 252.000
54.86000 247.000
54.87500 212.000
54.89000 207.000
54.90500 162.000
54.92000 138.000
54.93500 144.000
54.95000 125.000
54.96500 151.000
54.98000 137.000
54.99500 131.000
55.01000 127.000
55.02500 129.000
55.04000 130.000
55.05500 123.000
55.07000 118.000
55.08500 113.000
55.10000 120.000
55.11500 145.000
55.13000 153.000
55.14500 194.000
55.16000 207.000
55.17500 238.000
55.19000 261.000
55.20500 236.000
55.22000 245.000
55.23500 222.000
55.25000 173.000
55.26500 162.000
55.28000 150.000
55.29500 146.000
55.31000 170.000
55.32500 185.000
55.34000 221.000
55.35500 222.000
55.37000 236.000
55.38500 258.000
55.40000 320.000
55.41500 289.000
55.43000 280.000
55.44500 242.000
55.46000 210.000
55.47500 180.000
55.49000 153.000
55.50500 155.000
55.52000 177.000
55.53500 207.000
55.55000 218.000
55.56500 247.000
55.58000 277.000
55.59500 320.000
55.61000 364.000
55.62500 353.000
55.64000 384.000
55.65500 394.000
55.67000 352.000
55.68500 321.000
55.70000 309.000
55.71500 243.000
55.73000 205.000
55.74500 159.000
55.76000 126.000
55.77500 125.000
55.79000 119.000
55.80500 143.000
55.82000 149.000
55.83500 174.000
55.85000 190.000
55.86500 183.000
55.88000 195.000
55.89500 176.000
55.91000 155.000
55.92500 152.000
55.94000 142.000
55.95500 117.000
55.97000 88.000
55.98500 100.000
56.00000 94.000
56.01500 93.000
56.03000 94.000
56.04500 88.000
56.06000 102.000
56.07500 114.000
56.09000 108.000
56.10500 111.000
56.12000 142.000
56.13500 152.000
56.15000 163.000
56.16500 191.000
56.18000 246.000
56.19500 291.000
56.21000 377.000
56.22500 395.000
56.24000 374.000
56.25500 334.000
56.27000 258.000
56.28500 183.000
56.30000 141.000
56.31500 109.000
56.33000 120.000
56.34500 122.000
56.36000 94.000
56.37500 92.000
56.39000 87.000
56.40500 85.000
56.42000 88.000
56.43500 76.000
56.45000 83.000
56.46500 88.000
56.48000 91.000
56.49500 82.000
56.51000 87.000
56.52500 80.000
56.54000 88.000
56.55500 94.000
56.57000 99.000
56.58500 100.000
56.60000 103.000
56.61500 98.000
56.63000 116.000
56.64500 145.000
56.66000 160.000
56.67500 169.000
56.69000 184.000
56.70500 165.000
56.72000 170.000
56.73500 170.000
56.75000 142.000
56.76500 112.000
56.78000 114.000
56.79500 114.000
56.81000 95.000
56.82500 91.000
56.84000 84.000
56.85500 87.000
56.87000 96.000
56.88500 78.000
56.90000 80.000
56.91500 63.000
56.93000 75.000
56.94500 97.000
56.96000 86.000
56.97500 93.000
56.99000 88.000
57.00500 95.000
57.02000 86.000
57.03500 101.000
57.05000 103.000
57.06500 106.000
57.08000 115.000
57.09500 119.000
57.11000 115.000
57.12500 132.000
57.14000 159.000
57.15500 170.000
57.17000 183.000
57.18500 167.000
57.20000 175.000
57.21500 160.000
57.23000 143.000
57.24500 138.000
57.26000 127.000
57.27500 110.000
57.29000 106.000
57.30500 96.000
57.32000 85.000
57.33500 90.000
57.35000 91.000
57.36500 83.000
57.38000 96.000
57.39500 105.000
57.41000 105.000
57.42500 88.000
57.44000 87.000
57.45500 82.000
57.47000 87.000
57.48500 82.000
57.50000 63.000
57.51500 74.000
57.53000 85.000
57.54500 83.000
57.56000 79.000
57.57500 92.000
57.59000 92.000
57.60500 82.000
57.62000 84.000
57.63500 89.000
57.65000 79.000
57.66500 95.000
57.68000 95.000
57.69500 96.000
57.71000 86.000
57.72500 94.000
57.74000 99.000
57.75500 108.000
57.77000 104.000
57.78500 103.000
57.80000 107.000
57.81500 95.000
57.83000 94.000
57.84500 96.000
57.86000 92.000
57.87500 102.000
57.89000 106.000
57.90500 109.000
57.92000 84.000
57.93500 88.000
57.95000 87.000
57.96500 74.000
57.98000 81.000
57.99500 86.000
58.01000 92.000
58.02500 86.000
58.04000 86.000
58.05500 77.000
58.07000 81.000
58.08500 84.000
58.10000 70.000
58.11500 70.000
58.13000 74.000
58.14500 83.000
58.16000 79.000
58.17500 86.000
58.19000 74.000
58.20500 71.000
58.22000 78.000
58.23500 72.000
58.25000 83.000
58.26500 84.000
58.28000 77.000
58.29500 66.000
58.31000 78.000
58.32500 90.000
58.34000 77.000
58.35500 74.000
58.37000 84.000
58.38500 90.000
58.40000 74.000
58.41500 100.000
58.43000 105.000
58.44500 87.000
58.46000 98.000
58.47500 69.000
58.49000 83.000
58.50500 84.000
58.52000 73.000
58.53500 80.000
58.55000 75.000
58.56500 75.000
58.58000 71.000
58.59500 85.000
58.61000 78.000
58.62500 80.000
58.64000 77.000
58.65500 81.000
58.67000 76.000
58.68500 75.000
58.70000 63.000
58.71500 82.000
58.73000 82.000
58.74500 72.000
58.76000 83.000
58.77500 85.000
58.79000 88.000
58.80500 87.000
58.82000 83.000
58.83500 91.000
58.85000 85.000
58.86500 91.000
58.88000 100.000
58.89500 101.000
58.91000 90.000
58.92500 103.000
58.94000 81.000
58.95500 81.000
58.97000 80.000
58.98500 80.000
59.00000 77.000
59.01500 81.000
59.03000 69.000
59.04500 75.000
59.06000 89.000
59.07500 82.000
59.09000 96.000
59.10500 82.000
59.12000 79.000
59.13500 78.000
59.15000 73.000
59.16500 76.000
59.18000 71.000
59.19500 78.000
59.21000 89.000
59.22500 68.000
59.24000 92.000
59.25500 82.000
59.27000 89.000
59.28500 85.000
59.30000 83.000
59.31500 80.000
59.33000 83.000
59.34500 69.000
59.36000 74.000
59.37500 75.000
59.39000 73.000
59.40500 68.000
59.42000 70.000
59.43500 78.000
59.45000 73.000
59.46500 76.000
59.48000 79.000
59.49500 72.000
59.51000 56.000
59.52500 69.000
59.54000 73.000
59.55500 67.000
59.57000 71.000
59.58500 78.000
59.60000 67.000
59.61500 68.000
59.63000 58.000
59.64500 81.000
59.66000 82.000
59.67500 78.000
59.69000 68.000
59.70500 69.000
59.72000 84.000
59.73500 75.000
59.75000 76.000
59.76500 71.000
59.78000 66.000
59.79500 57.000
59.81000 64.000
59.82500 78.000
59.84000 74.000
59.85500 83.000
59.87000 78.000
59.88500 77.000
59.90000 80.000
59.91500 83.000
59.93000 84.000
59.94500 89.000
59.96000 105.000
59.97500 103.000
59.99000 88.000
60.00500 107.000
60.02000 103.000
60.03500 94.000
60.05000 91.000
60.06500 98.000
60.08000 79.000
60.09500 78.000
60.11000 80.000
60.12500 70.000
60.14000 67.000
60.15500 86.000
60.17000 93.000
60.18500 86.000
60.20000 77.000
60.21500 73.000
60.23000 78.000
60.24500 77.000
60.26000 87.000
60.27500 69.000
60.29000 68.000
60.30500 81.000
60.32000 80.000
60.33500 75.000
60.35000 81.000
60.36500 59.000
60.38000 72.000
60.39500 78.000
60.41000 82.000
60.42500 75.000
60.44000 81.000
60.45500 83.000
60.47000 102.000
60.48500 91.000
60.50000 83.000
60.51500 97.000
60.53000 112.000
60.54500 139.000
60.56000 124.000
60.57500 119.000
60.59000 136.000
60.60500 124.000
60.62000 124.000
60.63500 104.000
60.65000 100.000
60.66500 91.000
60.68000 74.000
60.69500 74.000
60.71000 78.000
60.72500 82.000
60.74000 80.000
60.75500 76.000
60.77000 72.000
60.78500 67.000
60.80000 71.000
60.81500 77.000
60.83000 80.000
60.84500 72.000
60.86000 68.000
60.87500 75.000
60.89000 73.000
60.90500 82.000
60.92000 83.000
60.93500 77.000
60.95000 67.000
60.96500 58.000
60.98000 65.000
60.99500 76.000
61.01000 62.000
61.02500 77.000
61.04000 66.000
61.05500 77.000
61.07000 67.000
61.08500 66.000
61.10000 76.000
61.11500 70.000
61.13000 65.000
61.14500 71.000
61.16000 82.000
61.17500 71.000
61.19000 66.000
61.20500 74.000
61.22000 71.000
61.23500 64.000
61.25000 85.000
61.26500 75.000
61.28000 67.000
61.29500 68.000
61.31000 65.000
61.32500 74.000
61.34000 83.000
61.35500 74.000
61.37000 70.000
61.38500 69.000
61.40000 74.000
61.41500 65.000
61.43000 71.000
61.44500 68.000
61.46000 67.000
61.47500 59.000
61.49000 71.000
61.50500 69.000
61.52000 68.000
61.53500 76.000
61.55000 71.000
61.56500 60.000
61.58000 69.000
61.59500 80.000
61.61000 76.000
61.62500 72.000
61.64000 70.000
61.65500 66.000
61.67000 73.000
61.68500 76.000
61.70000 83.000
61.71500 84.000
61.73000 70.000
61.74500 64.000
61.76000 67.000
61.77500 62.000
61.79000 64.000
61.80500 68.000
61.82000 77.000
61.83500 83.000
61.85000 84.000
61.86500 86.000
61.88000 89.000
61.89500 85.000
61.91000 87.000
61.92500 98.000
61.94000 104.000
61.95500 105.000
61.97000 115.000
61.98500 105.000
