2.00000 748.000
2.01500 696.000
2.03000 682.000
2.04500 693.000
2.06000 652.000
2.07500 663.000
2.09000 639.000
2.10500 609.000
2.12000 578.000
2.13500 617.000
2.15000 592.000
2.16500 561.000
2.18000 552.000
2.19500 584.000
2.21000 537.000
2.22500 552.000
2.24000 515.000
2.25500 517.000
2.27000 506.000
2.28500 489.000
2.30000 507.000
2.31500 478.000
2.33000 477.000
2.34500 478.000
2.36000 448.000
2.37500 427.000
2.39000 424.000
2.40500 457.000
2.42000 420.000
2.43500 432.000
2.45000 441.000
2.46500 403.000
2.48000 367.000
2.49500 382.000
2.51000 404.000
2.52500 399.000
2.54000 392.000
2.55500 388.000
2.57000 374.000
2.58500 367.000
2.60000 346.000
2.61500 337.000
2.63000 342.000
2.64500 339.000
2.66000 339.000
2.67500 346.000
2.69000 313.000
2.70500 313.000
2.72000 316.000
2.73500 293.000
2.75000 293.000
2.76500 337.000
2.78000 297.000
2.79500 305.000
2.81000 295.000
2.82500 316.000
2.84000 302.000
2.85500 282.000
2.87000 286.000
2.88500 274.000
2.90000 284.000
2.91500 272.000
2.93000 306.000
2.94500 278.000
2.96000 246.000
2.97500 274.000
2.99000 281.000
3.00500 268.000
3.02000 248.000
3.03500 269.000
3.05000 273.000
3.06500 264.000
3.08000 233.000
3.09500 249.000
3.11000 251.000
3.12500 270.000
3.14000 253.000
3.15500 262.000
3.17000 251.000
3.18500 257.000
3.20000 244.000
3.21500 244.000
3.23000 237.000
3.24500 232.000
3.26000 241.000
3.27500 237.000
3.29000 238.000
3.30500 235.000
3.32000 203.000
3.33500 216.000
3.35000 240.000
3.36500 239.000
3.38000 217.000
3.39500 207.000
3.41000 194.000
3.42500 192.000
3.44000 212.000
3.45500 198.000
3.47000 223.000
3.48500 229.000
3.50000 218.000
3.51500 209.000
3.53000 209.000
3.54500 207.000
3.56000 216.000
3.57500 183.000
3.59000 213.000
3.60500 213.000
3.62000 212.000
3.63500 215.000
3.65000 199.000
3.66500 187.000
3.68000 207.000
3.69500 210.000
3.71000 191.000
3.72500 203.000
3.74000 196.000
3.75500 197.000
3.77000 195.000
3.78500 191.000
3.80000 196.000
3.81500 202.000
3.83000 184.000
3.84500 179.000
3.86000 198.000
3.87500 177.000
3.89000 204.000
3.90500 187.000
3.92000 196.000
3.93500 187.000
3.95000 191.000
3.96500 213.000
3.98000 197.000
3.99500 172.000
4.01000 189.000
4.02500 200.000
4.04000 175.000
4.05500 201.000
4.07000 210.000
4.08500 183.000
4.10000 180.000
4.11500 191.000
4.13000 201.000
4.14500 177.000
4.16000 180.000
4.17500 197.000
4.19000 165.000
4.20500 166.000
4.22000 189.000
4.23500 167.000
4.25000 171.000
4.26500 189.000
4.28000 189.000
4.29500 174.000
4.31000 190.000
4.32500 180.000
4.34000 176.000
4.35500 169.000
4.37000 180.000
4.38500 187.000
4.40000 174.000
4.41500 154.000
4.43000 175.000
4.44500 171.000
4.46000 176.000
4.47500 174.000
4.49000 183.000
4.50500 168.000
4.52000 177.000
4.53500 176.000
4.55000 161.000
4.56500 171.000
4.58000 178.000
4.59500 174.000
4.61000 165.000
4.62500 175.000
4.64000 157.000
4.65500 167.000
4.67000 166.000
4.68500 172.000
4.70000 167.000
4.71500 158.000
4.73000 168.000
4.74500 173.000
4.76000 160.000
4.77500 168.000
4.79000 145.000
4.80500 179.000
4.82000 180.000
4.83500 178.000
4.85000 170.000
4.86500 163.000
4.88000 157.000
4.89500 157.000
4.91000 171.000
4.92500 200.000
4.94000 188.000
4.95500 163.000
4.97000 177.000
4.98500 172.000
5.00000 168.000
5.01500 161.000
5.03000 172.000
5.04500 180.000
5.06000 175.000
5.07500 173.000
5.09000 175.000
5.10500 166.000
5.12000 168.000
5.13500 174.000
5.15000 165.000
5.16500 160.000
5.18000 164.000
5.19500 175.000
5.21000 164.000
5.22500 148.000
5.24000 141.000
5.25500 185.000
5.27000 181.000
5.28500 167.000
5.30000 165.000
5.31500 172.000
5.33000 166.000
5.34500 175.000
5.36000 184.000
5.37500 167.000
5.39000 193.000
5.40500 177.000
5.42000 170.000
5.43500 160.000
5.45000 148.000
5.46500 167.000
5.48000 169.000
5.49500 180.000
5.51000 172.000
5.52500 182.000
5.54000 161.000
5.55500 163.000
5.57000 170.000
5.58500 166.000
5.60000 156.000
5.61500 171.000
5.63000 165.000
5.64500 160.000
5.66000 167.000
5.67500 177.000
5.69000 150.000
5.70500 163.000
5.72000 177.000
5.73500 177.000
5.75000 158.000
5.76500 173.000
5.78000 181.000
5.79500 180.000
5.81000 172.000
5.82500 179.000
5.84000 183.000
5.85500 167.000
5.87000 171.000
5.88500 142.000
5.90000 149.000
5.91500 153.000
5.93000 172.000
5.94500 147.000
5.96000 189.000
5.97500 190.000
5.99000 167.000
6.00500 167.000
6.02000 167.000
6.03500 174.000
6.05000 179.000
6.06500 163.000
6.08000 161.000
6.09500 177.000
6.11000 174.000
6.12500 163.000
6.14000 152.000
6.15500 158.000
6.17000 160.000
6.18500 172.000
6.20000 180.000
6.21500 176.000
6.23000 183.000
6.24500 160.000
6.26000 166.000
6.27500 171.000
6.29000 171.000
6.30500 194.000
6.32000 195.000
6.33500 189.000
6.35000 185.000
6.36500 151.000
6.38000 174.000
6.39500 176.000
6.41000 174.000
6.42500 156.000
6.44000 148.000
6.45500 172.000
6.47000 167.000
6.48500 168.000
6.50000 197.000
6.51500 186.000
6.53000 177.000
6.54500 187.000
6.56000 168.000
6.57500 166.000
6.59000 179.000
6.60500 176.000
6.62000 172.000
6.63500 168.000
6.65000 172.000
6.66500 170.000
6.68000 170.000
6.69500 162.000
6.71000 158.000
6.72500 179.000
6.74000 157.000
6.75500 174.000
6.77000 167.000
6.78500 175.000
6.80000 179.000
6.81500 167.000
6.83000 162.000
6.84500 161.000
6.86000 163.000
6.87500 179.000
6.89000 171.000
6.90500 179.000
6.92000 169.000
6.93500 191.000
6.95000 149.000
6.96500 165.000
6.98000 184.000
6.99500 174.000
7.01000 166.000
7.02500 177.000
7.04000 191.000
7.05500 171.000
7.07000 179.000
7.08500 161.000
7.10000 179.000
7.11500 179.000
7.13000 169.000
7.14500 154.000
7.16000 175.000
7.17500 196.000
7.19000 174.000
7.20500 168.000
7.22000 188.000
7.23500 179.000
7.25000 168.000
7.26500 176.000
7.28000 171.000
7.29500 156.000
7.31000 158.000
7.32500 165.000
7.34000 164.000
7.35500 174.000
7.37000 182.000
7.38500 184.000
7.40000 188.000
7.41500 171.000
7.43000 169.000
7.44500 175.000
7.46000 186.000
7.47500 182.000
7.49000 194.000
7.50500 167.000
7.52000 161.000
7.53500 173.000
7.55000 174.000
7.56500 186.000
7.58000 166.000
7.59500 160.000
7.61000 164.000
7.62500 178.000
7.64000 160.000
7.65500 160.000
7.67000 167.000
7.68500 179.000
7.70000 155.000
7.71500 171.000
7.73000 168.000
7.74500 162.000
7.76000 165.000
7.77500 174.000
7.79000 171.000
7.80500 158.000
7.82000 162.000
7.83500 167.000
7.85000 157.000
7.86500 164.000
7.88000 192.000
7.89500 178.000
7.91000 165.000
7.92500 174.000
7.94000 191.000
7.95500 199.000
7.97000 177.000
7.98500 172.000
8.00000 177.000
8.01500 197.000
8.03000 190.000
8.04500 197.000
8.06000 199.000
8.07500 180.000
8.09000 181.000
8.10500 178.000
8.12000 190.000
8.13500 194.000
8.15000 199.000
8.16500 196.000
8.18000 210.000
8.19500 189.000
8.21000 197.000
8.22500 206.000
8.24000 208.000
8.25500 189.000
8.27000 209.000
8.28500 200.000
8.30000 195.000
8.31500 193.000
8.33000 209.000
8.34500 212.000
8.36000 208.000
8.37500 216.000
8.39000 229.000
8.40500 222.000
8.42000 239.000
8.43500 245.000
8.45000 234.000
8.46500 236.000
8.48000 243.000
8.49500 247.000
8.51000 222.000
8.52500 255.000
8.54000 262.000
8.55500 233.000
8.57000 225.000
8.58500 245.000
8.60000 253.000
8.61500 238.000
8.63000 244.000
8.64500 254.000
8.66000 251.000
8.67500 232.000
8.69000 245.000
8.70500 235.000
8.72000 231.000
8.73500 227.000
8.75000 234.000
8.76500 237.000
8.78000 210.000
8.79500 217.000
8.81000 207.000
8.82500 239.000
8.84000 211.000
8.85500 211.000
8.87000 205.000
8.88500 216.000
8.90000 218.000
8.91500 185.000
8.93000 187.000
8.94500 199.000
8.96000 187.000
8.97500 195.000
8.99000 191.000
9.00500 179.000
9.02000 176.000
9.03500 161.000
9.05000 173.000
9.06500 175.000
9.08000 175.000
9.09500 193.000
9.11000 183.000
9.12500 190.000
9.14000 189.000
9.15500 172.000
9.17000 194.000
9.18500 180.000
9.20000 172.000
9.21500 183.000
9.23000 194.000
9.24500 182.000
9.26000 163.000
9.27500 165.000
9.29000 167.000
9.30500 170.000
9.32000 167.000
9.33500 171.000
9.35000 181.000
9.36500 178.000
9.38000 160.000
9.39500 169.000
9.41000 188.000
9.42500 182.000
9.44000 177.000
9.45500 180.000
9.47000 185.000
9.48500 177.000
9.50000 173.000
9.51500 165.000
9.53000 169.000
9.54500 185.000
9.56000 187.000
9.57500 194.000
9.59000 186.000
9.60500 172.000
9.62000 199.000
9.63500 185.000
9.65000 178.000
9.66500 186.000
9.68000 187.000
9.69500 195.000
9.71000 170.000
9.72500 173.000
9.74000 154.000
9.75500 176.000
9.77000 183.000
9.78500 176.000
9.80000 168.000
9.81500 157.000
9.83000 180.000
9.84500 192.000
9.86000 190.000
9.87500 171.000
9.89000 182.000
9.90500 182.000
9.92000 183.000
9.93500 178.000
9.95000 174.000
9.96500 178.000
9.98000 188.000
9.99500 195.000
10.01000 204.000
10.02500 207.000
10.04000 195.000
10.05500 216.000
10.07000 212.000
10.08500 208.000
10.10000 209.000
10.11500 209.000
10.13000 204.000
10.14500 182.000
10.16000 193.000
10.17500 188.000
10.19000 193.000
10.20500 183.000
10.22000 177.000
10.23500 202.000
10.25000 191.000
10.26500 182.000
10.28000 173.000
10.29500 162.000
10.31000 166.000
10.32500 180.000
10.34000 178.000
10.35500 189.000
10.37000 177.000
10.38500 187.000
10.40000 182.000
10.41500 186.000
10.43000 194.000
10.44500 179.000
10.46000 196.000
10.47500 197.000
10.49000 182.000
10.50500 185.000
10.52000 190.000
10.53500 191.000
10.55000 178.000
10.56500 174.000
10.58000 183.000
10.59500 161.000
10.61000 183.000
10.62500 180.000
10.64000 196.000
10.65500 174.000
10.67000 185.000
10.68500 186.000
10.70000 179.000
10.71500 194.000
10.73000 187.000
10.74500 191.000
10.76000 186.000
10.77500 196.000
10.79000 192.000
10.80500 193.000
10.82000 194.000
10.83500 190.000
10.85000 191.000
10.86500 190.000
10.88000 228.000
10.89500 201.000
10.91000 226.000
10.92500 229.000
10.94000 226.000
10.95500 203.000
10.97000 222.000
10.98500 225.000
11.00000 219.000
11.01500 228.000
11.03000 241.000
11.04500 240.000
11.06000 246.000
11.07500 250.000
11.09000 236.000
11.10500 229.000
11.12000 244.000
11.13500 256.000
11.15000 244.000
11.16500 263.000
11.18000 270.000
11.19500 282.000
11.21000 288.000
11.22500 317.000
11.24000 278.000
11.25500 282.000
11.27000 301.000
11.28500 324.000
11.30000 354.000
11.31500 353.000
11.33000 349.000
11.34500 370.000
11.36000 404.000
11.37500 408.000
11.39000 484.000
11.40500 471.000
11.42000 477.000
11.43500 502.000
11.45000 508.000
11.46500 542.000
11.48000 553.000
11.49500 599.000
11.51000 623.000
11.52500 641.000
11.54000 662.000
11.55500 693.000
11.57000 667.000
11.58500 670.000
11.60000 675.000
11.61500 629.000
11.63000 619.000
11.64500 601.000
11.66000 574.000
11.67500 523.000
11.69000 547.000
11.70500 512.000
11.72000 494.000
11.73500 529.000
11.75000 481.000
11.76500 442.000
11.78000 446.000
11.79500 432.000
11.81000 424.000
11.82500 434.000
11.84000 403.000
11.85500 390.000
11.87000 398.000
11.88500 408.000
11.90000 378.000
11.91500 384.000
11.93000 382.000
11.94500 402.000
11.96000 368.000
11.97500 363.000
11.99000 354.000
12.00500 347.000
12.02000 338.000
12.03500 314.000
12.05000 296.000
12.06500 262.000
12.08000 252.000
12.09500 255.000
12.11000 235.000
12.12500 206.000
12.14000 200.000
12.15500 200.000
12.17000 204.000
12.18500 214.000
12.20000 191.000
12.21500 200.000
12.23000 196.000
12.24500 178.000
12.26000 184.000
12.27500 213.000
12.29000 200.000
12.30500 211.000
12.32000 164.000
12.33500 175.000
12.35000 179.000
12.36500 197.000
12.38000 186.000
12.39500 196.000
12.41000 177.000
12.42500 173.000
12.44000 197.000
12.45500 180.000
12.47000 184.000
12.48500 189.000
12.50000 174.000
12.51500 196.000
12.53000 181.000
12.54500 191.000
12.56000 183.000
12.57500 192.000
12.59000 205.000
12.60500 186.000
12.62000 195.000
12.63500 189.000
12.65000 198.000
12.66500 206.000
12.68000 206.000
12.69500 211.000
12.71000 195.000
12.72500 202.000
12.74000 212.000
12.75500 217.000
12.77000 243.000
12.78500 228.000
12.80000 241.000
12.81500 241.000
12.83000 235.000
12.84500 243.000
12.86000 242.000
12.87500 238.000
12.89000 268.000
12.90500 265.000
12.92000 234.000
12.93500 223.000
12.95000 237.000
12.96500 243.000
12.98000 260.000
12.99500 239.000
13.01000 232.000
13.02500 249.000
13.04000 237.000
13.05500 237.000
13.07000 223.000
13.08500 206.000
13.10000 213.000
13.11500 230.000
13.13000 212.000
13.14500 225.000
13.16000 210.000
13.17500 228.000
13.19000 204.000
13.20500 196.000
13.22000 207.000
13.23500 222.000
13.25000 203.000
13.26500 226.000
13.28000 227.000
13.29500 221.000
13.31000 241.000
13.32500 232.000
13.34000 211.000
13.35500 222.000
13.37000 191.000
13.38500 211.000
13.40000 202.000
13.41500 197.000
13.43000 202.000
13.44500 200.000
13.46000 185.000
13.47500 206.000
13.49000 193.000
13.50500 214.000
13.52000 177.000
13.53500 187.000
13.55000 183.000
13.56500 178.000
13.58000 192.000
13.59500 204.000
13.61000 196.000
13.62500 196.000
13.64000 168.000
13.65500 183.000
13.67000 181.000
13.68500 167.000
13.70000 193.000
13.71500 187.000
13.73000 186.000
13.74500 174.000
13.76000 179.000
13.77500 170.000
13.79000 160.000
13.80500 180.000
13.82000 186.000
13.83500 174.000
13.85000 175.000
13.86500 173.000
13.88000 167.000
13.89500 180.000
13.91000 179.000
13.92500 184.000
13.94000 168.000
13.95500 169.000
13.97000 181.000
13.98500 151.000
14.00000 174.000
14.01500 181.000
14.03000 186.000
14.04500 188.000
14.06000 166.000
14.07500 183.000
14.09000 178.000
14.10500 157.000
14.12000 172.000
14.13500 170.000
14.15000 187.000
14.16500 183.000
14.18000 161.000
14.19500 169.000
14.21000 157.000
14.22500 167.000
14.24000 190.000
14.25500 157.000
14.27000 146.000
14.28500 168.000
14.30000 173.000
14.31500 189.000
14.33000 186.000
14.34500 187.000
14.36000 177.000
14.37500 184.000
14.39000 179.000
14.40500 180.000
14.42000 160.000
14.43500 177.000
14.45000 158.000
14.46500 160.000
14.48000 193.000
14.49500 166.000
14.51000 163.000
14.52500 192.000
14.54000 186.000
14.55500 177.000
14.57000 160.000
14.58500 167.000
14.60000 162.000
14.61500 173.000
14.63000 178.000
14.64500 172.000
14.66000 171.000
14.67500 180.000
14.69000 176.000
14.70500 160.000
14.72000 160.000
14.73500 164.000
14.75000 175.000
14.76500 177.000
14.78000 166.000
14.79500 168.000
14.81000 178.000
14.82500 168.000
14.84000 186.000
14.85500 180.000
14.87000 165.000
14.88500 165.000
14.90000 165.000
14.91500 159.000
14.93000 162.000
14.94500 167.000
14.96000 177.000
14.97500 160.000
14.99000 177.000
15.00500 184.000
15.02000 166.000
15.03500 169.000
15.05000 168.000
15.06500 164.000
15.08000 167.000
15.09500 167.000
15.11000 169.000
15.12500 176.000
15.14000 181.000
15.15500 190.000
15.17000 183.000
15.18500 169.000
15.20000 164.000
15.21500 144.000
15.23000 170.000
15.24500 171.000
15.26000 160.000
15.27500 159.000
15.29000 166.000
15.30500 166.000
15.32000 163.000
15.33500 169.000
15.35000 175.000
15.36500 164.000
15.38000 185.000
15.39500 158.000
15.41000 159.000
15.42500 171.000
15.44000 200.000
15.45500 169.000
15.47000 156.000
15.48500 176.000
15.50000 181.000
15.51500 185.000
15.53000 165.000
15.54500 154.000
15.56000 155.000
15.57500 164.000
15.59000 178.000
15.60500 162.000
15.62000 178.000
15.63500 167.000
15.65000 175.000
15.66500 187.000
15.68000 188.000
15.69500 197.000
15.71000 182.000
15.72500 166.000
15.74000 176.000
15.75500 160.000
15.77000 164.000
15.78500 179.000
15.80000 170.000
15.81500 184.000
15.83000 165.000
15.84500 188.000
15.86000 179.000
15.87500 170.000
15.89000 160.000
15.90500 179.000
15.92000 172.000
15.93500 173.000
15.95000 170.000
15.96500 170.000
15.98000 179.000
15.99500 175.000
16.01000 178.000
16.02500 169.000
16.04000 177.000
16.05500 178.000
16.07000 171.000
16.08500 164.000
16.10000 187.000
16.11500 168.000
16.13000 172.000
16.14500 168.000
16.16000 164.000
16.17500 154.000
16.19000 168.000
16.20500 182.000
16.22000 190.000
16.23500 208.000
16.25000 170.000
16.26500 182.000
16.28000 198.000
16.29500 178.000
16.31000 191.000
16.32500 198.000
16.34000 190.000
16.35500 173.000
16.37000 176.000
16.38500 178.000
16.40000 170.000
16.41500 170.000
16.43000 176.000
16.44500 167.000
16.46000 149.000
16.47500 168.000
16.49000 174.000
16.50500 181.000
16.52000 197.000
16.53500 179.000
16.55000 180.000
16.56500 181.000
16.58000 167.000
16.59500 185.000
16.61000 184.000
16.62500 170.000
16.64000 174.000
16.65500 201.000
16.67000 193.000
16.68500 159.000
16.70000 160.000
16.71500 170.000
16.73000 167.000
16.74500 177.000
16.76000 176.000
16.77500 177.000
16.79000 182.000
16.80500 181.000
16.82000 171.000
16.83500 189.000
16.85000 163.000
16.86500 163.000
16.88000 168.000
16.89500 171.000
16.91000 188.000
16.92500 165.000
16.94000 177.000
16.95500 172.000
16.97000 183.000
16.98500 181.000
17.00000 173.000
17.01500 159.000
17.03000 186.000
17.04500 168.000
17.06000 165.000
17.07500 177.000
17.09000 187.000
17.10500 197.000
17.12000 164.000
17.13500 170.000
17.15000 163.000
17.16500 200.000
17.18000 173.000
17.19500 189.000
17.21000 171.000
17.22500 169.000
17.24000 180.000
17.25500 190.000
17.27000 186.000
17.28500 185.000
17.30000 186.000
17.31500 188.000
17.33000 187.000
17.34500 177.000
17.36000 171.000
17.37500 171.000
17.39000 181.000
17.40500 177.000
17.42000 176.000
17.43500 184.000
17.45000 168.000
17.46500 184.000
17.48000 201.000
17.49500 192.000
17.51000 191.000
17.52500 183.000
17.54000 178.000
17.55500 188.000
17.57000 196.000
17.58500 178.000
17.60000 194.000
17.61500 193.000
17.63000 172.000
17.64500 166.000
17.66000 160.000
17.67500 173.000
17.69000 184.000
17.70500 179.000
17.72000 175.000
17.73500 191.000
17.75000 189.000
17.76500 171.000
17.78000 164.000
17.79500 155.000
17.81000 196.000
17.82500 180.000
17.84000 197.000
17.85500 191.000
17.87000 169.000
17.88500 175.000
17.90000 180.000
17.91500 171.000
17.93000 166.000
17.94500 186.000
17.96000 184.000
17.97500 189.000
17.99000 187.000
18.00500 154.000
18.02000 171.000
18.03500 186.000
18.05000 187.000
18.06500 183.000
18.08000 185.000
18.09500 191.000
18.11000 186.000
18.12500 195.000
18.14000 188.000
18.15500 175.000
18.17000 189.000
18.18500 179.000
18.20000 204.000
18.21500 198.000
18.23000 186.000
18.24500 191.000
18.26000 188.000
18.27500 187.000
18.29000 181.000
18.30500 176.000
18.32000 208.000
18.33500 205.000
18.35000 195.000
18.36500 173.000
18.38000 208.000
18.39500 205.000
18.41000 209.000
18.42500 209.000
18.44000 209.000
18.45500 184.000
18.47000 180.000
18.48500 182.000
18.50000 214.000
18.51500 221.000
18.53000 217.000
18.54500 197.000
18.56000 206.000
18.57500 233.000
18.59000 199.000
18.60500 187.000
18.62000 220.000
18.63500 192.000
18.65000 213.000
18.66500 214.000
18.68000 178.000
18.69500 201.000
18.71000 197.000
18.72500 211.000
18.74000 200.000
18.75500 228.000
18.77000 208.000
18.78500 217.000
18.80000 191.000
18.81500 211.000
18.83000 200.000
18.84500 213.000
18.86000 207.000
18.87500 214.000
18.89000 220.000
18.90500 212.000
18.92000 204.000
18.93500 204.000
18.95000 191.000
18.96500 175.000
18.98000 195.000
18.99500 186.000
19.01000 184.000
19.02500 199.000
19.04000 192.000
19.05500 209.000
19.07000 201.000
19.08500 189.000
19.10000 195.000
19.11500 227.000
19.13000 212.000
19.14500 192.000
19.16000 199.000
19.17500 223.000
19.19000 212.000
19.20500 218.000
19.22000 229.000
19.23500 213.000
19.25000 225.000
19.26500 195.000
19.28000 208.000
19.29500 217.000
19.31000 194.000
19.32500 203.000
19.34000 196.000
19.35500 207.000
19.37000 205.000
19.38500 191.000
19.40000 227.000
19.41500 213.000
19.43000 219.000
19.44500 198.000
19.46000 218.000
19.47500 199.000
19.49000 187.000
19.50500 187.000
19.52000 202.000
19.53500 189.000
19.55000 214.000
19.56500 192.000
19.58000 188.000
19.59500 207.000
19.61000 210.000
19.62500 212.000
19.64000 219.000
19.65500 210.000
19.67000 213.000
19.68500 211.000
19.70000 202.000
19.71500 226.000
19.73000 200.000
19.74500 227.000
19.76000 232.000
19.77500 218.000
19.79000 201.000
19.80500 199.000
19.82000 206.000
19.83500 223.000
19.85000 213.000
19.86500 219.000
19.88000 208.000
19.89500 199.000
19.91000 214.000
19.92500 235.000
19.94000 210.000
19.95500 209.000
19.97000 216.000
19.98500 211.000
20.00000 208.000
20.01500 213.000
20.03000 220.000
20.04500 231.000
20.06000 215.000
20.07500 217.000
20.09000 208.000
20.10500 213.000
20.12000 214.000
20.13500 212.000
20.15000 218.000
20.16500 236.000
20.18000 211.000
20.19500 198.000
20.21000 219.000
20.22500 209.000
20.24000 227.000
20.25500 221.000
20.27000 215.000
20.28500 200.000
20.30000 210.000
20.31500 217.000
20.33000 218.000
20.34500 240.000
20.36000 228.000
20.37500 228.000
20.39000 222.000
20.40500 217.000
20.42000 218.000
20.43500 208.000
20.45000 214.000
20.46500 207.000
20.48000 209.000
20.49500 211.000
20.51000 223.000
20.52500 239.000
20.54000 235.000
20.55500 238.000
20.57000 211.000
20.58500 192.000
20.60000 215.000
20.61500 218.000
20.63000 199.000
20.64500 243.000
20.66000 231.000
20.67500 234.000
20.69000 224.000
20.70500 210.000
20.72000 228.000
20.73500 219.000
20.75000 209.000
20.76500 219.000
20.78000 222.000
20.79500 230.000
20.81000 240.000
20.82500 221.000
20.84000 219.000
20.85500 214.000
20.87000 215.000
20.88500 220.000
20.90000 216.000
20.91500 198.000
20.93000 210.000
20.94500 225.000
20.96000 225.000
20.97500 221.000
20.99000 207.000
21.00500 209.000
21.02000 193.000
21.03500 194.000
21.05000 211.000
21.06500 224.000
21.08000 214.000
21.09500 197.000
21.11000 219.000
21.12500 212.000
21.14000 211.000
21.15500 206.000
21.17000 222.000
21.18500 214.000
21.20000 214.000
21.21500 227.000
21.23000 225.000
21.24500 221.000
21.26000 219.000
21.27500 233.000
21.29000 211.000
21.30500 215.000
21.32000 214.000
21.33500 207.000
21.35000 215.000
21.36500 219.000
21.38000 226.000
21.39500 205.000
21.41000 205.000
21.42500 219.000
21.44000 213.000
21.45500 209.000
21.47000 224.000
21.48500 213.000
21.50000 220.000
21.51500 216.000
21.53000 223.000
21.54500 230.000
21.56000 204.000
21.57500 207.000
21.59000 206.000
21.60500 216.000
21.62000 211.000
21.63500 213.000
21.65000 205.000
21.66500 228.000
21.68000 222.000
21.69500 216.000
21.71000 226.000
21.72500 217.000
21.74000 233.000
21.75500 217.000
21.77000 223.000
21.78500 220.000
21.80000 226.000
21.81500 224.000
21.83000 242.000
21.84500 218.000
21.86000 224.000
21.87500 221.000
21.89000 210.000
21.90500 223.000
21.92000 228.000
21.93500 232.000
21.95000 212.000
21.96500 219.000
21.98000 211.000
21.99500 239.000
22.01000 241.000
22.02500 230.000
22.04000 233.000
22.05500 232.000
22.07000 237.000
22.08500 236.000
22.10000 213.000
22.11500 231.000
22.13000 256.000
22.14500 238.000
22.16000 216.000
22.17500 226.000
22.19000 235.000
22.20500 214.000
22.22000 229.000
22.23500 221.000
22.25000 222.000
22.26500 212.000
22.28000 224.000
22.29500 204.000
22.31000 219.000
22.32500 227.000
22.34000 234.000
22.35500 221.000
22.37000 219.000
22.38500 233.000
22.40000 236.000
22.41500 211.000
22.43000 245.000
22.44500 234.000
22.46000 239.000
22.47500 234.000
22.49000 228.000
22.50500 223.000
22.52000 224.000
22.53500 222.000
22.55000 235.000
22.56500 225.000
22.58000 225.000
22.59500 236.000
22.61000 243.000
22.62500 226.000
22.64000 226.000
22.65500 223.000
22.67000 236.000
22.68500 235.000
22.70000 236.000
22.71500 265.000
22.73000 228.000
22.74500 229.000
22.76000 218.000
22.77500 240.000
22.79000 242.000
22.80500 228.000
22.82000 247.000
22.83500 241.000
22.85000 242.000
22.86500 228.000
22.88000 239.000
22.89500 245.000
22.91000 242.000
22.92500 239.000
22.94000 225.000
22.95500 254.000
22.97000 240.000
22.98500 233.000
23.00000 244.000
23.01500 262.000
23.03000 248.000
23.04500 259.000
23.06000 249.000
23.07500 251.000
23.09000 240.000
23.10500 242.000
23.12000 255.000
23.13500 252.000
23.15000 263.000
23.16500 278.000
23.18000 258.000
23.19500 258.000
23.21000 265.000
23.22500 244.000
23.24000 242.000
23.25500 265.000
23.27000 277.000
23.28500 254.000
23.30000 276.000
23.31500 254.000
23.33000 248.000
23.34500 279.000
23.36000 253.000
23.37500 244.000
23.39000 231.000
23.40500 240.000
23.42000 267.000
23.43500 246.000
23.45000 238.000
23.46500 234.000
23.48000 242.000
23.49500 242.000
23.51000 253.000
23.52500 273.000
23.54000 255.000
23.55500 252.000
23.57000 276.000
23.58500 269.000
23.60000 239.000
23.61500 247.000
23.63000 251.000
23.64500 263.000
23.66000 256.000
23.67500 261.000
23.69000 258.000
23.70500 257.000
23.72000 261.000
23.73500 261.000
23.75000 255.000
23.76500 246.000
23.78000 277.000
23.79500 263.000
23.81000 264.000
23.82500 262.000
23.84000 252.000
23.85500 231.000
23.87000 257.000
23.88500 259.000
23.90000 263.000
23.91500 260.000
23.93000 260.000
23.94500 247.000
23.96000 264.000
23.97500 250.000
23.99000 263.000
24.00500 250.000
24.02000 260.000
24.03500 261.000
24.05000 258.000
24.06500 270.000
24.08000 263.000
24.09500 262.000
24.11000 260.000
24.12500 275.000
24.14000 284.000
24.15500 274.000
24.17000 262.000
24.18500 253.000
24.20000 267.000
24.21500 280.000
24.23000 280.000
24.24500 263.000
24.26000 280.000
24.27500 276.000
24.29000 258.000
24.30500 266.000
24.32000 264.000
24.33500 271.000
24.35000 292.000
24.36500 274.000
24.38000 260.000
24.39500 287.000
24.41000 284.000
24.42500 278.000
24.44000 286.000
24.45500 258.000
24.47000 285.000
24.48500 265.000
24.50000 266.000
24.51500 307.000
24.53000 303.000
24.54500 300.000
24.56000 268.000
24.57500 296.000
24.59000 281.000
24.60500 284.000
24.62000 271.000
24.63500 288.000
24.65000 279.000
24.66500 294.000
24.68000 314.000
24.69500 281.000
24.71000 279.000
24.72500 290.000
24.74000 300.000
24.75500 313.000
24.77000 307.000
24.78500 308.000
24.80000 295.000
24.81500 299.000
24.83000 303.000
24.84500 332.000
24.86000 331.000
24.87500 322.000
24.89000 310.000
24.90500 337.000
24.92000 339.000
24.93500 364.000
24.95000 323.000
24.96500 347.000
24.98000 344.000
24.99500 363.000
25.01000 347.000
25.02500 353.000
25.04000 335.000
25.05500 376.000
25.07000 379.000
25.08500 351.000
25.10000 375.000
25.11500 383.000
25.13000 394.000
25.14500 412.000
25.16000 413.000
25.17500 414.000
25.19000 370.000
25.20500 397.000
25.22000 404.000
25.23500 384.000
25.25000 417.000
25.26500 402.000
25.28000 381.000
25.29500 421.000
25.31000 432.000
25.32500 431.000
25.34000 442.000
25.35500 475.000
25.37000 476.000
25.38500 460.000
25.40000 475.000
25.41500 484.000
25.43000 476.000
25.44500 484.000
25.46000 534.000
25.47500 532.000
25.49000 543.000
25.50500 535.000
25.52000 561.000
25.53500 546.000
25.55000 547.000
25.56500 546.000
25.58000 607.000
25.59500 606.000
25.61000 568.000
25.62500 587.000
25.64000 578.000
25.65500 556.000
25.67000 526.000
25.68500 507.000
25.70000 492.000
25.71500 535.000
25.73000 519.000
25.74500 468.000
25.76000 461.000
25.77500 503.000
25.79000 424.000
25.80500 430.000
25.82000 411.000
25.83500 427.000
25.85000 439.000
25.86500 449.000
25.88000 446.000
25.89500 430.000
25.91000 433.000
25.92500 384.000
25.94000 360.000
25.95500 370.000
25.97000 395.000
25.98500 386.000
26.00000 393.000
26.01500 398.000
26.03000 375.000
26.04500 350.000
26.06000 378.000
26.07500 371.000
26.09000 355.000
26.10500 342.000
26.12000 352.000
26.13500 340.000
26.15000 366.000
26.16500 330.000
26.18000 339.000
26.19500 355.000
26.21000 356.000
26.22500 364.000
26.24000 355.000
26.25500 363.000
26.27000 336.000
26.28500 328.000
26.30000 347.000
26.31500 345.000
26.33000 343.000
26.34500 344.000
26.36000 331.000
26.37500 342.000
26.39000 358.000
26.40500 353.000
26.42000 359.000
26.43500 362.000
26.45000 325.000
26.46500 349.000
26.48000 388.000
26.49500 348.000
26.51000 359.000
26.52500 360.000
26.54000 339.000
26.55500 334.000
26.57000 334.000
26.58500 353.000
26.60000 343.000
26.61500 375.000
26.63000 394.000
26.64500 344.000
26.66000 336.000
26.67500 343.000
26.69000 352.000
26.70500 360.000
26.72000 364.000
26.73500 359.000
26.75000 355.000
26.76500 352.000
26.78000 379.000
26.79500 370.000
26.81000 377.000
26.82500 360.000
26.84000 369.000
26.85500 344.000
26.87000 389.000
26.88500 387.000
26.90000 388.000
26.91500 375.000
26.93000 362.000
26.94500 386.000
26.96000 420.000
26.97500 408.000
26.99000 405.000
27.00500 428.000
27.02000 476.000
27.03500 456.000
27.05000 477.000
27.06500 463.000
27.08000 444.000
27.09500 478.000
27.11000 467.000
27.12500 511.000
27.14000 499.000
27.15500 523.000
27.17000 531.000
27.18500 524.000
27.20000 540.000
27.21500 532.000
27.23000 540.000
27.24500 556.000
27.26000 578.000
27.27500 524.000
27.29000 557.000
27.30500 533.000
27.32000 584.000
27.33500 591.000
27.35000 533.000
27.36500 581.000
27.38000 577.000
27.39500 608.000
27.41000 605.000
27.42500 638.000
27.44000 630.000
27.45500 615.000
27.47000 597.000
27.48500 639.000
27.50000 620.000
27.51500 631.000
27.53000 615.000
27.54500 592.000
27.56000 588.000
27.57500 572.000
27.59000 610.000
27.60500 571.000
27.62000 542.000
27.63500 560.000
27.65000 555.000
27.66500 516.000
27.68000 502.000
27.69500 489.000
27.71000 432.000
27.72500 441.000
27.74000 418.000
27.75500 392.000
27.77000 388.000
27.78500 378.000
27.80000 379.000
27.81500 377.000
27.83000 351.000
27.84500 332.000
27.86000 325.000
27.87500 324.000
27.89000 333.000
27.90500 318.000
27.92000 313.000
27.93500 314.000
27.95000 291.000
27.96500 304.000
27.98000 279.000
27.99500 284.000
28.01000 298.000
28.02500 258.000
28.04000 277.000
28.05500 274.000
28.07000 284.000
28.08500 267.000
28.10000 265.000
28.11500 258.000
28.13000 252.000
28.14500 243.000
28.16000 229.000
28.17500 260.000
28.19000 275.000
28.20500 252.000
28.22000 253.000
28.23500 256.000
28.25000 253.000
28.26500 231.000
28.28000 252.000
28.29500 239.000
28.31000 239.000
28.32500 242.000
28.34000 254.000
28.35500 237.000
28.37000 233.000
28.38500 248.000
28.40000 221.000
28.41500 206.000
28.43000 215.000
28.44500 207.000
28.46000 258.000
28.47500 239.000
28.49000 231.000
28.50500 212.000
28.52000 217.000
28.53500 232.000
28.55000 209.000
28.56500 212.000
28.58000 215.000
28.59500 219.000
28.61000 199.000
28.62500 214.000
28.64000 229.000
28.65500 247.000
28.67000 235.000
28.68500 234.000
28.70000 235.000
28.71500 197.000
28.73000 226.000
28.74500 223.000
28.76000 242.000
28.77500 218.000
28.79000 221.000
28.80500 205.000
28.82000 219.000
28.83500 206.000
28.85000 216.000
28.86500 229.000
28.88000 209.000
28.89500 191.000
28.91000 199.000
28.92500 196.000
28.94000 214.000
28.95500 201.000
28.97000 206.000
28.98500 206.000
29.00000 182.000
29.01500 199.000
29.03000 207.000
29.04500 205.000
29.06000 218.000
29.07500 218.000
29.09000 225.000
29.10500 212.000
29.12000 207.000
29.13500 201.000
29.15000 239.000
29.16500 224.000
29.18000 219.000
29.19500 193.000
29.21000 214.000
29.22500 199.000
29.24000 214.000
29.25500 186.000
29.27000 206.000
29.28500 206.000
29.30000 212.000
29.31500 208.000
29.33000 200.000
29.34500 221.000
29.36000 202.000
29.37500 194.000
29.39000 212.000
29.40500 235.000
29.42000 213.000
29.43500 235.000
29.45000 214.000
29.46500 204.000
29.48000 224.000
29.49500 215.000
29.51000 207.000
29.52500 207.000
29.54000 191.000
29.55500 211.000
29.57000 237.000
29.58500 201.000
29.60000 211.000
29.61500 221.000
29.63000 214.000
29.64500 232.000
29.66000 214.000
29.67500 196.000
29.69000 205.000
29.70500 220.000
29.72000 217.000
29.73500 239.000
29.75000 234.000
29.76500 218.000
29.78000 204.000
29.79500 229.000
29.81000 212.000
29.82500 208.000
29.84000 212.000
29.85500 210.000
29.87000 210.000
29.88500 234.000
29.90000 208.000
29.91500 216.000
29.93000 206.000
29.94500 216.000
29.96000 218.000
29.97500 220.000
29.99000 211.000
30.00500 217.000
30.02000 234.000
30.03500 220.000
30.05000 211.000
30.06500 192.000
30.08000 209.000
30.09500 226.000
30.11000 230.000
30.12500 209.000
30.14000 223.000
30.15500 225.000
30.17000 222.000
30.18500 213.000
30.20000 214.000
30.21500 229.000
30.23000 233.000
30.24500 230.000
30.26000 227.000
30.27500 253.000
30.29000 248.000
30.30500 217.000
30.32000 239.000
30.33500 238.000
30.35000 231.000
30.36500 235.000
30.38000 239.000
30.39500 263.000
30.41000 242.000
30.42500 253.000
30.44000 275.000
30.45500 267.000
30.47000 269.000
30.48500 271.000
30.50000 268.000
30.51500 238.000
30.53000 232.000
30.54500 243.000
30.56000 227.000
30.57500 227.000
30.59000 252.000
30.60500 225.000
30.62000 203.000
30.63500 220.000
30.65000 218.000
30.66500 227.000
30.68000 231.000
30.69500 233.000
30.71000 221.000
30.72500 212.000
30.74000 212.000
30.75500 201.000
30.77000 233.000
30.78500 215.000
30.80000 206.000
30.81500 211.000
30.83000 213.000
30.84500 219.000
30.86000 175.000
30.87500 206.000
30.89000 216.000
30.90500 192.000
30.92000 195.000
30.93500 212.000
30.95000 195.000
30.96500 187.000
30.98000 178.000
30.99500 183.000
31.01000 193.000
31.02500 192.000
31.04000 183.000
31.05500 204.000
31.07000 195.000
31.08500 196.000
31.10000 211.000
31.11500 207.000
31.13000 178.000
31.14500 205.000
31.16000 196.000
31.17500 179.000
31.19000 182.000
31.20500 180.000
31.22000 210.000
31.23500 195.000
31.25000 191.000
31.26500 174.000
31.28000 196.000
31.29500 185.000
31.31000 173.000
31.32500 188.000
31.34000 176.000
31.35500 172.000
31.37000 170.000
31.38500 163.000
31.40000 183.000
31.41500 174.000
31.43000 167.000
31.44500 169.000
31.46000 159.000
31.47500 186.000
31.49000 168.000
31.50500 152.000
31.52000 170.000
31.53500 182.000
31.55000 157.000
31.56500 173.000
31.58000 162.000
31.59500 187.000
31.61000 177.000
31.62500 176.000
31.64000 176.000
31.65500 169.000
31.67000 156.000
31.68500 167.000
31.70000 161.000
31.71500 170.000
31.73000 188.000
31.74500 177.000
31.76000 154.000
31.77500 159.000
31.79000 179.000
31.80500 182.000
31.82000 177.000
31.83500 185.000
31.85000 191.000
31.86500 174.000
31.88000 179.000
31.89500 178.000
31.91000 175.000
31.92500 168.000
31.94000 161.000
31.95500 171.000
31.97000 181.000
31.98500 168.000
32.00000 182.000
32.01500 162.000
32.03000 184.000
32.04500 165.000
32.06000 170.000
32.07500 168.000
32.09000 163.000
32.10500 171.000
32.12000 175.000
32.13500 179.000
32.15000 161.000
32.16500 156.000
32.18000 171.000
32.19500 155.000
32.21000 160.000
32.22500 174.000
32.24000 176.000
32.25500 159.000
32.27000 157.000
32.28500 164.000
32.30000 172.000
32.31500 155.000
32.33000 158.000
32.34500 153.000
32.36000 151.000
32.37500 153.000
32.39000 172.000
32.40500 161.000
32.42000 157.000
32.43500 150.000
32.45000 132.000
32.46500 144.000
32.48000 136.000
32.49500 166.000
32.51000 154.000
32.52500 156.000
32.54000 158.000
32.55500 167.000
32.57000 166.000
32.58500 155.000
32.60000 179.000
32.61500 163.000
32.63000 167.000
32.64500 150.000
32.66000 157.000
32.67500 170.000
32.69000 170.000
32.70500 142.000
32.72000 150.000
32.73500 160.000
32.75000 140.000
32.76500 149.000
32.78000 156.000
32.79500 159.000
32.81000 140.000
32.82500 144.000
32.84000 169.000
32.85500 167.000
32.87000 153.000
32.88500 154.000
32.90000 154.000
32.91500 148.000
32.93000 181.000
32.94500 172.000
32.96000 165.000
32.97500 163.000
32.99000 156.000
33.00500 157.000
33.02000 155.000
33.03500 161.000
33.05000 142.000
33.06500 145.000
33.08000 139.000
33.09500 143.000
33.11000 135.000
33.12500 133.000
33.14000 143.000
33.15500 154.000
33.17000 152.000
33.18500 165.000
33.20000 140.000
33.21500 156.000
33.23000 147.000
33.24500 144.000
33.26000 140.000
33.27500 144.000
33.29000 147.000
33.30500 160.000
33.32000 169.000
33.33500 165.000
33.35000 148.000
33.36500 149.000
33.38000 147.000
33.39500 158.000
33.41000 154.000
33.42500 142.000
33.44000 154.000
33.45500 155.000
33.47000 156.000
33.48500 149.000
33.50000 155.000
33.51500 147.000
33.53000 154.000
33.54500 150.000
33.56000 147.000
33.57500 142.000
33.59000 144.000
33.60500 143.000
33.62000 132.000
33.63500 135.000
33.65000 150.000
33.66500 131.000
33.68000 145.000
33.69500 143.000
33.71000 167.000
33.72500 152.000
33.74000 134.000
33.75500 145.000
33.77000 152.000
33.78500 143.000
33.80000 140.000
33.81500 143.000
33.83000 138.000
33.84500 134.000
33.86000 140.000
33.87500 151.000
33.89000 152.000
33.90500 148.000
33.92000 129.000
33.93500 134.000
33.95000 139.000
33.96500 140.000
33.98000 146.000
33.99500 152.000
34.01000 144.000
34.02500 128.000
34.04000 136.000
34.05500 140.000
34.07000 149.000
34.08500 149.000
34.10000 127.000
34.11500 141.000
34.13000 143.000
34.14500 139.000
34.16000 134.000
34.17500 139.000
34.19000 128.000
34.20500 123.000
34.22000 126.000
34.23500 153.000
34.25000 146.000
34.26500 145.000
34.28000 145.000
34.29500 148.000
34.31000 152.000
34.32500 142.000
34.34000 125.000
34.35500 129.000
34.37000 139.000
34.38500 134.000
34.40000 133.000
34.41500 139.000
34.43000 137.000
34.44500 141.000
34.46000 142.000
34.47500 151.000
34.49000 146.000
34.50500 138.000
34.52000 139.000
34.53500 142.000
34.55000 142.000
34.56500 146.000
34.58000 136.000
34.59500 126.000
34.61000 143.000
34.62500 141.000
34.64000 133.000
34.65500 136.000
34.67000 124.000
34.68500 160.000
34.70000 141.000
34.71500 153.000
34.73000 139.000
34.74500 127.000
34.76000 155.000
34.77500 144.000
34.79000 128.000
34.80500 133.000
34.82000 132.000
34.83500 139.000
34.85000 139.000
34.86500 123.000
34.88000 116.000
34.89500 137.000
34.91000 148.000
34.92500 141.000
34.94000 146.000
34.95500 134.000
34.97000 133.000
34.98500 139.000
35.00000 120.000
35.01500 144.000
35.03000 149.000
35.04500 144.000
35.06000 139.000
35.07500 131.000
35.09000 134.000
35.10500 118.000
35.12000 133.000
35.13500 136.000
35.15000 133.000
35.16500 126.000
35.18000 120.000
35.19500 127.000
35.21000 153.000
35.22500 123.000
35.24000 129.000
35.25500 138.000
35.27000 127.000
35.28500 119.000
35.30000 124.000
35.31500 127.000
35.33000 144.000
35.34500 114.000
35.36000 116.000
35.37500 132.000
35.39000 122.000
35.40500 119.000
35.42000 126.000
35.43500 134.000
35.45000 130.000
35.46500 135.000
35.48000 119.000
35.49500 114.000
35.51000 121.000
35.52500 129.000
35.54000 130.000
35.55500 127.000
35.57000 139.000
35.58500 143.000
35.60000 136.000
35.61500 131.000
35.63000 125.000
35.64500 140.000
35.66000 123.000
35.67500 125.000
35.69000 124.000
35.70500 115.000
35.72000 130.000
35.73500 120.000
35.75000 123.000
35.76500 138.000
35.78000 148.000
35.79500 131.000
35.81000 113.000
35.82500 127.000
35.84000 120.000
35.85500 125.000
35.87000 110.000
35.88500 117.000
35.90000 116.000
35.91500 118.000
35.93000 110.000
35.94500 134.000
35.96000 137.000
35.97500 123.000
35.99000 128.000
36.00500 117.000
36.02000 99.000
36.03500 94.000
36.05000 108.000
36.06500 118.000
36.08000 125.000
36.09500 123.000
36.11000 123.000
36.12500 108.000
36.14000 117.000
36.15500 110.000
36.17000 115.000
36.18500 109.000
36.20000 112.000
36.21500 121.000
36.23000 124.000
36.24500 118.000
36.26000 120.000
36.27500 120.000
36.29000 130.000
36.30500 121.000
36.32000 113.000
36.33500 114.000
36.35000 117.000
36.36500 110.000
36.38000 96.000
36.39500 121.000
36.41000 114.000
36.42500 130.000
36.44000 118.000
36.45500 108.000
36.47000 115.000
36.48500 129.000
36.50000 112.000
36.51500 122.000
36.53000 119.000
36.54500 121.000
36.56000 106.000
36.57500 101.000
36.59000 102.000
36.60500 112.000
36.62000 106.000
36.63500 113.000
36.65000 108.000
36.66500 115.000
36.68000 107.000
36.69500 115.000
36.71000 117.000
36.72500 107.000
36.74000 118.000
36.75500 102.000
36.77000 107.000
36.78500 117.000
36.80000 116.000
36.81500 108.000
36.83000 113.000
36.84500 94.000
36.86000 99.000
36.87500 110.000
36.89000 111.000
36.90500 100.000
36.92000 110.000
36.93500 103.000
36.95000 117.000
36.96500 116.000
36.98000 109.000
36.99500 117.000
37.01000 108.000
37.02500 114.000
37.04000 113.000
37.05500 101.000
37.07000 113.000
37.08500 106.000
37.10000 119.000
37.11500 104.000
37.13000 113.000
37.14500 116.000
37.16000 118.000
37.17500 127.000
37.19000 121.000
37.20500 101.000
37.22000 113.000
37.23500 98.000
37.25000 117.000
37.26500 126.000
37.28000 114.000
37.29500 122.000
37.31000 104.000
37.32500 116.000
37.34000 102.000
37.35500 109.000
37.37000 106.000
37.38500 111.000
37.40000 101.000
37.41500 99.000
37.43000 119.000
37.44500 107.000
37.46000 112.000
37.47500 104.000
37.49000 100.000
37.50500 103.000
37.52000 108.000
37.53500 116.000
37.55000 99.000
37.56500 113.000
37.58000 115.000
37.59500 108.000
37.61000 97.000
37.62500 108.000
37.64000 102.000
37.65500 103.000
37.67000 120.000
37.68500 98.000
37.70000 95.000
37.71500 117.000
37.73000 117.000
37.74500 114.000
37.76000 92.000
37.77500 109.000
37.79000 108.000
37.80500 106.000
37.82000 120.000
37.83500 106.000
37.85000 106.000
37.86500 106.000
37.88000 94.000
37.89500 105.000
37.91000 123.000
37.92500 112.000
37.94000 107.000
37.95500 104.000
37.97000 108.000
37.98500 112.000
38.00000 111.000
38.01500 112.000
38.03000 98.000
38.04500 110.000
38.06000 119.000
38.07500 114.000
38.09000 115.000
38.10500 95.000
38.12000 97.000
38.13500 90.000
38.15000 98.000
38.16500 113.000
38.18000 110.000
38.19500 103.000
38.21000 97.000
38.22500 105.000
38.24000 113.000
38.25500 112.000
38.27000 118.000
38.28500 117.000
38.30000 100.000
38.31500 112.000
38.33000 101.000
38.34500 105.000
38.36000 112.000
38.37500 100.000
38.39000 106.000
38.40500 109.000
38.42000 109.000
38.43500 99.000
38.45000 103.000
38.46500 105.000
38.48000 107.000
38.49500 117.000
38.51000 112.000
38.52500 109.000
38.54000 99.000
38.55500 106.000
38.57000 104.000
38.58500 104.000
38.60000 93.000
38.61500 95.000
38.63000 98.000
38.64500 111.000
38.66000 102.000
38.67500 98.000
38.69000 100.000
38.70500 109.000
38.72000 103.000
38.73500 110.000
38.75000 110.000
38.76500 117.000
38.78000 101.000
38.79500 110.000
38.81000 106.000
38.82500 113.000
38.84000 107.000
38.85500 115.000
38.87000 115.000
38.88500 110.000
38.90000 101.000
38.91500 100.000
38.93000 115.000
38.94500 109.000
38.96000 120.000
38.97500 99.000
38.99000 104.000
39.00500 110.000
39.02000 99.000
39.03500 115.000
39.05000 104.000
39.06500 102.000
39.08000 110.000
39.09500 109.000
39.11000 103.000
39.12500 111.000
39.14000 106.000
39.15500 107.000
39.17000 106.000
39.18500 105.000
39.20000 105.000
39.21500 104.000
39.23000 108.000
39.24500 101.000
39.26000 107.000
39.27500 95.000
39.29000 108.000
39.30500 127.000
39.32000 117.000
39.33500 109.000
39.35000 99.000
39.36500 104.000
39.38000 99.000
39.39500 109.000
39.41000 100.000
39.42500 121.000
39.44000 110.000
39.45500 131.000
39.47000 110.000
39.48500 110.000
39.50000 105.000
39.51500 107.000
39.53000 121.000
39.54500 126.000
39.56000 105.000
39.57500 110.000
39.59000 109.000
39.60500 91.000
39.62000 100.000
39.63500 105.000
39.65000 120.000
39.66500 115.000
39.68000 117.000
39.69500 119.000
39.71000 110.000
39.72500 126.000
39.74000 115.000
39.75500 103.000
39.77000 106.000
39.78500 110.000
39.80000 116.000
39.81500 118.000
39.83000 115.000
39.84500 115.000
39.86000 103.000
39.87500 101.000
39.89000 117.000
39.90500 113.000
39.92000 104.000
39.93500 101.000
39.95000 113.000
39.96500 130.000
39.98000 113.000
39.99500 104.000
40.01000 115.000
40.02500 110.000
40.04000 107.000
40.05500 124.000
40.07000 113.000
40.08500 113.000
40.10000 125.000
40.11500 140.000
40.13000 124.000
40.14500 119.000
40.16000 116.000
40.17500 117.000
40.19000 123.000
40.20500 119.000
40.22000 118.000
40.23500 119.000
40.25000 119.000
40.26500 124.000
40.28000 122.000
40.29500 118.000
40.31000 124.000
40.32500 125.000
40.34000 104.000
40.35500 109.000
40.37000 133.000
40.38500 112.000
40.40000 134.000
40.41500 121.000
40.43000 107.000
40.44500 123.000
40.46000 129.000
40.47500 123.000
40.49000 133.000
40.50500 120.000
40.52000 127.000
40.53500 119.000
40.55000 110.000
40.56500 114.000
40.58000 128.000
40.59500 126.000
40.61000 116.000
40.62500 115.000
40.64000 119.000
40.65500 116.000
40.67000 127.000
40.68500 117.000
40.70000 119.000
40.71500 119.000
40.73000 125.000
40.74500 118.000
40.76000 114.000
40.77500 111.000
40.79000 114.000
40.80500 115.000
40.82000 111.000
40.83500 126.000
40.85000 119.000
40.86500 121.000
40.88000 120.000
40.89500 102.000
40.91000 113.000
40.92500 121.000
40.94000 127.000
40.95500 128.000
40.97000 118.000
40.98500 116.000
41.00000 113.000
41.01500 98.000
41.03000 124.000
41.04500 130.000
41.06000 135.000
41.07500 129.000
41.09000 104.000
41.10500 123.000
41.12000 113.000
41.13500 106.000
41.15000 115.000
41.16500 122.000
41.18000 113.000
41.19500 104.000
41.21000 105.000
41.22500 124.000
41.24000 100.000
41.25500 114.000
41.27000 119.000
41.28500 113.000
41.30000 93.000
41.31500 111.000
41.33000 125.000
41.34500 126.000
41.36000 108.000
41.37500 115.000
41.39000 114.000
41.40500 123.000
41.42000 105.000
41.43500 118.000
41.45000 106.000
41.46500 133.000
41.48000 113.000
41.49500 104.000
41.51000 95.000
41.52500 100.000
41.54000 110.000
41.55500 115.000
41.57000 107.000
41.58500 108.000
41.60000 117.000
41.61500 124.000
41.63000 112.000
41.64500 109.000
41.66000 112.000
41.67500 99.000
41.69000 94.000
41.70500 106.000
41.72000 105.000
41.73500 104.000
41.75000 100.000
41.76500 102.000
41.78000 101.000
41.79500 112.000
41.81000 104.000
41.82500 106.000
41.84000 108.000
41.85500 107.000
41.87000 100.000
41.88500 98.000
41.90000 96.000
41.91500 102.000
41.93000 95.000
41.94500 103.000
41.96000 118.000
41.97500 110.000
41.99000 103.000
42.00500 103.000
42.02000 107.000
42.03500 108.000
42.05000 95.000
42.06500 94.000
42.08000 93.000
42.09500 99.000
42.11000 115.000
42.12500 118.000
42.14000 112.000
42.15500 112.000
42.17000 110.000
42.18500 100.000
42.20000 89.000
42.21500 89.000
42.23000 105.000
42.24500 93.000
42.26000 95.000
42.27500 100.000
42.29000 101.000
42.30500 106.000
42.32000 117.000
42.33500 105.000
42.35000 93.000
42.36500 109.000
42.38000 112.000
42.39500 113.000
42.41000 116.000
42.42500 111.000
42.44000 111.000
42.45500 109.000
42.47000 105.000
42.48500 98.000
42.50000 113.000
42.51500 106.000
42.53000 84.000
42.54500 98.000
42.56000 111.000
42.57500 98.000
42.59000 101.000
42.60500 95.000
42.62000 107.000
42.63500 95.000
42.65000 106.000
42.66500 99.000
42.68000 111.000
42.69500 107.000
42.71000 118.000
42.72500 117.000
42.74000 98.000
42.75500 112.000
42.77000 107.000
42.78500 97.000
42.80000 109.000
42.81500 92.000
42.83000 95.000
42.84500 103.000
42.86000 111.000
42.87500 101.000
42.89000 100.000
42.90500 112.000
42.92000 103.000
42.93500 109.000
42.95000 102.000
42.96500 102.000
42.98000 120.000
42.99500 131.000
43.01000 108.000
43.02500 98.000
43.04000 105.000
43.05500 99.000
43.07000 104.000
43.08500 104.000
43.10000 102.000
43.11500 110.000
43.13000 105.000
43.14500 103.000
43.16000 110.000
43.17500 101.000
43.19000 96.000
43.20500 105.000
43.22000 112.000
43.23500 103.000
43.25000 99.000
43.26500 114.000
43.28000 97.000
43.29500 96.000
43.31000 105.000
43.32500 102.000
43.34000 97.000
43.35500 92.000
43.37000 87.000
43.38500 106.000
43.40000 106.000
43.41500 112.000
43.43000 94.000
43.44500 100.000
43.46000 96.000
43.47500 97.000
43.49000 83.000
43.50500 91.000
43.52000 99.000
43.53500 87.000
43.55000 83.000
43.56500 106.000
43.58000 118.000
43.59500 104.000
43.61000 114.000
43.62500 117.000
43.64000 103.000
43.65500 76.000
43.67000 85.000
43.68500 107.000
43.70000 101.000
43.71500 100.000
43.73000 101.000
43.74500 87.000
43.76000 95.000
43.77500 108.000
43.79000 109.000
43.80500 85.000
43.82000 97.000
43.83500 108.000
43.85000 97.000
43.86500 92.000
43.88000 112.000
43.89500 104.000
43.91000 109.000
43.92500 102.000
43.94000 99.000
43.95500 93.000
43.97000 93.000
43.98500 90.000
44.00000 103.000
44.01500 101.000
44.03000 106.000
44.04500 89.000
44.06000 122.000
44.07500 112.000
44.09000 112.000
44.10500 94.000
44.12000 93.000
44.13500 105.000
44.15000 95.000
44.16500 96.000
44.18000 95.000
44.19500 106.000
44.21000 100.000
44.22500 98.000
44.24000 87.000
44.25500 88.000
44.27000 94.000
44.28500 100.000
44.30000 86.000
44.31500 97.000
44.33000 90.000
44.34500 89.000
44.36000 102.000
44.37500 83.000
44.39000 97.000
44.40500 104.000
44.42000 95.000
44.43500 99.000
44.45000 99.000
44.46500 98.000
44.48000 101.000
44.49500 101.000
44.51000 106.000
44.52500 89.000
44.54000 96.000
44.55500 90.000
44.57000 84.000
44.58500 87.000
44.60000 94.000
44.61500 92.000
44.63000 92.000
44.64500 105.000
44.66000 113.000
44.67500 112.000
44.69000 86.000
44.70500 83.000
44.72000 96.000
44.73500 97.000
44.75000 90.000
44.76500 99.000
44.78000 106.000
44.79500 88.000
44.81000 92.000
44.82500 95.000
44.84000 98.000
44.85500 97.000
44.87000 93.000
44.88500 88.000
44.90000 112.000
44.91500 114.000
44.93000 109.000
44.94500 98.000
44.96000 111.000
44.97500 105.000
44.99000 111.000
45.00500 109.000
45.02000 108.000
45.03500 102.000
45.05000 91.000
45.06500 79.000
45.08000 85.000
45.09500 102.000
45.11000 85.000
45.12500 86.000
45.14000 104.000
45.15500 109.000
45.17000 98.000
45.18500 99.000
45.20000 96.000
45.21500 99.000
45.23000 113.000
45.24500 102.000
45.26000 99.000
45.27500 91.000
45.29000 82.000
45.30500 86.000
45.32000 94.000
45.33500 100.000
45.35000 108.000
45.36500 93.000
45.38000 91.000
45.39500 92.000
45.41000 103.000
45.42500 110.000
45.44000 105.000
45.45500 107.000
45.47000 101.000
45.48500 94.000
45.50000 84.000
45.51500 81.000
45.53000 100.000
45.54500 91.000
45.56000 92.000
45.57500 107.000
45.59000 109.000
45.60500 96.000
45.62000 99.000
45.63500 111.000
45.65000 111.000
45.66500 95.000
45.68000 98.000
45.69500 104.000
45.71000 91.000
45.72500 94.000
45.74000 113.000
45.75500 107.000
45.77000 102.000
45.78500 99.000
45.80000 104.000
45.81500 102.000
45.83000 100.000
45.84500 100.000
45.86000 108.000
45.87500 93.000
45.89000 92.000
45.90500 114.000
45.92000 109.000
45.93500 95.000
45.95000 93.000
45.96500 97.000
45.98000 99.000
45.99500 94.000
46.01000 105.000
46.02500 106.000
46.04000 89.000
46.05500 109.000
46.07000 98.000
46.08500 92.000
46.10000 111.000
46.11500 102.000
46.13000 90.000
46.14500 98.000
46.16000 105.000
46.17500 84.000
46.19000 95.000
46.20500 106.000
46.22000 74.000
46.23500 93.000
46.25000 105.000
46.26500 97.000
46.28000 90.000
46.29500 92.000
46.31000 97.000
46.32500 112.000
46.34000 106.000
46.35500 101.000
46.37000 102.000
46.38500 92.000
46.40000 88.000
46.41500 96.000
46.43000 93.000
46.44500 102.000
46.46000 98.000
46.47500 100.000
46.49000 89.000
46.50500 94.000
46.52000 97.000
46.53500 92.000
46.55000 92.000
46.56500 79.000
46.58000 90.000
46.59500 86.000
46.61000 103.000
46.62500 95.000
46.64000 95.000
46.65500 91.000
46.67000 87.000
46.68500 85.000
46.70000 80.000
46.71500 100.000
46.73000 87.000
46.74500 85.000
46.76000 93.000
46.77500 80.000
46.79000 97.000
46.80500 97.000
46.82000 104.000
46.83500 93.000
46.85000 73.000
46.86500 87.000
46.88000 94.000
46.89500 95.000
46.91000 101.000
46.92500 95.000
46.94000 101.000
46.95500 89.000
46.97000 94.000
46.98500 106.000
47.00000 95.000
47.01500 86.000
47.03000 95.000
47.04500 99.000
47.06000 92.000
47.07500 103.000
47.09000 104.000
47.10500 76.000
47.12000 94.000
47.13500 107.000
47.15000 98.000
47.16500 95.000
47.18000 84.000
47.19500 97.000
47.21000 96.000
47.22500 92.000
47.24000 87.000
47.25500 94.000
47.27000 89.000
47.28500 91.000
47.30000 88.000
47.31500 89.000
47.33000 94.000
47.34500 82.000
47.36000 83.000
47.37500 97.000
47.39000 80.000
47.40500 93.000
47.42000 84.000
47.43500 104.000
47.45000 105.000
47.46500 100.000
47.48000 78.000
47.49500 101.000
47.51000 96.000
47.52500 104.000
47.54000 80.000
47.55500 91.000
47.57000 99.000
47.58500 96.000
47.60000 99.000
47.61500 100.000
47.63000 83.000
47.64500 88.000
47.66000 96.000
47.67500 110.000
47.69000 86.000
47.70500 86.000
47.72000 84.000
47.73500 80.000
47.75000 87.000
47.76500 97.000
47.78000 93.000
47.79500 83.000
47.81000 99.000
47.82500 76.000
47.84000 104.000
47.85500 105.000
47.87000 99.000
47.88500 94.000
47.90000 93.000
47.91500 90.000
47.93000 98.000
47.94500 88.000
47.96000 89.000
47.97500 91.000
47.99000 78.000
48.00500 87.000
48.02000 79.000
48.03500 88.000
48.05000 86.000
48.06500 95.000
48.08000 90.000
48.09500 98.000
48.11000 89.000
48.12500 91.000
48.14000 94.000
48.15500 87.000
48.17000 84.000
48.18500 89.000
48.20000 94.000
48.21500 101.000
48.23000 97.000
48.24500 86.000
48.26000 87.000
48.27500 70.000
48.29000 78.000
48.30500 87.000
48.32000 91.000
48.33500 99.000
48.35000 103.000
48.36500 83.000
48.38000 83.000
48.39500 84.000
48.41000 84.000
48.42500 82.000
48.44000 84.000
48.45500 99.000
48.47000 96.000
48.48500 97.000
48.50000 83.000
48.51500 89.000
48.53000 83.000
48.54500 75.000
48.56000 79.000
48.57500 83.000
48.59000 105.000
48.60500 82.000
48.62000 86.000
48.63500 88.000
48.65000 97.000
48.66500 90.000
48.68000 87.000
48.69500 91.000
48.71000 105.000
48.72500 87.000
48.74000 87.000
48.75500 97.000
48.77000 88.000
48.78500 95.000
48.80000 84.000
48.81500 68.000
48.83000 81.000
48.84500 84.000
48.86000 79.000
48.87500 82.000
48.89000 87.000
48.90500 98.000
48.92000 97.000
48.93500 90.000
48.95000 80.000
48.96500 73.000
48.98000 76.000
48.99500 89.000
49.01000 89.000
49.02500 86.000
49.04000 79.000
49.05500 90.000
49.07000 91.000
49.08500 92.000
49.10000 89.000
49.11500 88.000
49.13000 83.000
49.14500 84.000
49.16000 93.000
49.17500 80.000
49.19000 85.000
49.20500 82.000
49.22000 88.000
49.23500 99.000
49.25000 92.000
49.26500 85.000
49.28000 87.000
49.29500 72.000
49.31000 68.000
49.32500 92.000
49.34000 96.000
49.35500 78.000
49.37000 84.000
49.38500 84.000
49.40000 84.000
49.41500 87.000
49.43000 65.000
49.44500 81.000
49.46000 90.000
49.47500 95.000
49.49000 84.000
49.50500 79.000
49.52000 80.000
49.53500 100.000
49.55000 83.000
49.56500 76.000
49.58000 78.000
49.59500 83.000
49.61000 96.000
49.62500 84.000
49.64000 83.000
49.65500 81.000
49.67000 81.000
49.68500 95.000
49.70000 80.000
49.71500 101.000
49.73000 98.000
49.74500 85.000
49.76000 73.000
49.77500 83.000
49.79000 91.000
49.80500 88.000
49.82000 77.000
49.83500 70.000
49.85000 69.000
49.86500 76.000
49.88000 81.000
49.89500 94.000
49.91000 75.000
49.92500 79.000
49.94000 75.000
49.95500 84.000
49.97000 87.000
49.98500 86.000
50.00000 82.000
50.01500 68.000
50.03000 88.000
50.04500 77.000
50.06000 73.000
50.07500 84.000
50.09000 78.000
50.10500 92.000
50.12000 94.000
50.13500 83.000
50.15000 101.000
50.16500 84.000
50.18000 87.000
50.19500 76.000
50.21000 76.000
50.22500 71.000
50.24000 94.000
50.25500 102.000
50.27000 94.000
50.28500 80.000
50.30000 82.000
50.31500 81.000
50.33000 73.000
50.34500 85.000
50.36000 84.000
50.37500 89.000
50.39000 92.000
50.40500 86.000
50.42000 91.000
50.43500 75.000
50.45000 84.000
50.46500 84.000
50.48000 87.000
50.49500 81.000
50.51000 78.000
50.52500 81.000
50.54000 75.000
50.55500 70.000
50.57000 84.000
50.58500 81.000
50.60000 88.000
50.61500 84.000
50.63000 85.000
50.64500 90.000
50.66000 82.000
50.67500 79.000
50.69000 69.000
50.70500 80.000
50.72000 100.000
50.73500 96.000
50.75000 84.000
50.76500 88.000
50.78000 77.000
50.79500 76.000
50.81000 75.000
50.82500 83.000
50.84000 81.000
50.85500 83.000
50.87000 75.000
50.88500 84.000
50.90000 80.000
50.91500 72.000
50.93000 68.000
50.94500 87.000
50.96000 79.000
50.97500 77.000
50.99000 86.000
51.00500 80.000
51.02000 74.000
51.03500 90.000
51.05000 90.000
51.06500 87.000
51.08000 83.000
51.09500 77.000
51.11000 78.000
51.12500 79.000
51.14000 77.000
51.15500 82.000
51.17000 82.000
51.18500 71.000
51.20000 73.000
51.21500 66.000
51.23000 77.000
51.24500 85.000
51.26000 80.000
51.27500 80.000
51.29000 67.000
51.30500 77.000
51.32000 79.000
51.33500 71.000
51.35000 73.000
51.36500 86.000
51.38000 85.000
51.39500 87.000
51.41000 81.000
51.42500 82.000
51.44000 87.000
51.45500 85.000
51.47000 80.000
51.48500 88.000
51.50000 78.000
51.51500 83.000
51.53000 83.000
51.54500 87.000
51.56000 74.000
51.57500 83.000
51.59000 79.000
51.60500 88.000
51.62000 83.000
51.63500 85.000
51.65000 85.000
51.66500 84.000
51.68000 71.000
51.69500 81.000
51.71000 90.000
51.72500 74.000
51.74000 80.000
51.75500 86.000
51.77000 84.000
51.78500 77.000
51.80000 73.000
51.81500 81.000
51.83000 86.000
51.84500 83.000
51.86000 82.000
51.87500 70.000
51.89000 59.000
51.90500 89.000
51.92000 90.000
51.93500 77.000
51.95000 63.000
51.96500 76.000
51.98000 87.000
51.99500 78.000
52.01000 84.000
52.02500 88.000
52.04000 91.000
52.05500 74.000
52.07000 89.000
52.08500 103.000
52.10000 87.000
52.11500 84.000
52.13000 81.000
52.14500 80.000
52.16000 77.000
52.17500 87.000
52.19000 93.000
52.20500 91.000
52.22000 94.000
52.23500 87.000
52.25000 93.000
52.26500 82.000
52.28000 73.000
52.29500 93.000
52.31000 86.000
52.32500 67.000
52.34000 86.000
52.35500 85.000
52.37000 79.000
52.38500 81.000
52.40000 87.000
52.41500 81.000
52.43000 84.000
52.44500 83.000
52.46000 88.000
52.47500 92.000
52.49000 94.000
52.50500 86.000
52.52000 91.000
52.53500 92.000
52.55000 87.000
52.56500 80.000
52.58000 100.000
52.59500 105.000
52.61000 90.000
52.62500 82.000
52.64000 93.000
52.65500 84.000
52.67000 83.000
52.68500 86.000
52.70000 75.000
52.71500 93.000
52.73000 89.000
52.74500 96.000
52.76000 87.000
52.77500 83.000
52.79000 86.000
52.80500 86.000
52.82000 81.000
52.83500 86.000
52.85000 78.000
52.86500 77.000
52.88000 78.000
52.89500 71.000
52.91000 83.000
52.92500 91.000
52.94000 93.000
52.95500 100.000
52.97000 94.000
52.98500 93.000
53.00000 85.000
53.01500 87.000
53.03000 73.000
53.04500 95.000
53.06000 91.000
53.07500 76.000
53.09000 81.000
53.10500 97.000
53.12000 74.000
53.13500 74.000
53.15000 82.000
53.16500 77.000
53.18000 74.000
53.19500 86.000
53.21000 87.000
53.22500 82.000
53.24000 88.000
53.25500 89.000
53.27000 88.000
53.28500 81.000
53.30000 83.000
53.31500 71.000
53.33000 82.000
53.34500 91.000
53.36000 92.000
53.37500 97.000
53.39000 97.000
53.40500 79.000
53.42000 78.000
53.43500 79.000
53.45000 87.000
53.46500 85.000
53.48000 100.000
53.49500 76.000
53.51000 88.000
53.52500 90.000
53.54000 88.000
53.55500 95.000
53.57000 88.000
53.58500 96.000
53.60000 87.000
53.61500 80.000
53.63000 95.000
53.64500 85.000
53.66000 87.000
53.67500 84.000
53.69000 95.000
53.70500 90.000
53.72000 78.000
53.73500 80.000
53.75000 91.000
53.76500 87.000
53.78000 77.000
53.79500 86.000
53.81000 91.000
53.82500 86.000
53.84000 90.000
53.85500 88.000
53.87000 83.000
53.88500 77.000
53.90000 81.000
53.91500 84.000
53.93000 85.000
53.94500 78.000
53.96000 82.000
53.97500 70.000
53.99000 83.000
54.00500 75.000
54.02000 76.000
54.03500 83.000
54.05000 87.000
54.06500 97.000
54.08000 71.000
54.09500 86.000
54.11000 76.000
54.12500 79.000
54.14000 79.000
54.15500 68.000
54.17000 82.000
54.18500 85.000
54.20000 89.000
54.21500 87.000
54.23000 91.000
54.24500 86.000
54.26000 80.000
54.27500 93.000
54.29000 85.000
54.30500 82.000
54.32000 87.000
54.33500 82.000
54.35000 77.000
54.36500 84.000
54.38000 80.000
54.39500 73.000
54.41000 74.000
54.42500 96.000
54.44000 89.000
54.45500 90.000
54.47000 93.000
54.48500 84.000
54.50000 88.000
54.51500 79.000
54.53000 88.000
54.54500 88.000
54.56000 89.000
54.57500 85.000
54.59000 88.000
54.60500 81.000
54.62000 72.000
54.63500 85.000
54.65000 76.000
54.66500 89.000
54.68000 84.000
54.69500 77.000
54.71000 69.000
54.72500 104.000
54.74000 99.000
54.75500 100.000
54.77000 94.000
54.78500 77.000
54.80000 86.000
54.81500 73.000
54.83000 76.000
54.84500 81.000
54.86000 85.000
54.87500 72.000
54.89000 72.000
54.90500 81.000
54.92000 77.000
54.93500 73.000
54.95000 83.000
54.96500 84.000
54.98000 83.000
54.99500 95.000
55.01000 79.000
55.02500 73.000
55.04000 74.000
55.05500 76.000
55.07000 84.000
55.08500 83.000
55.10000 82.000
55.11500 81.000
55.13000 88.000
55.14500 72.000
55.16000 83.000
55.17500 90.000
55.19000 74.000
55.20500 83.000
55.22000 97.000
55.23500 91.000
55.25000 90.000
55.26500 83.000
55.28000 77.000
55.29500 79.000
55.31000 80.000
55.32500 82.000
55.34000 73.000
55.35500 76.000
55.37000 88.000
55.38500 77.000
55.40000 81.000
55.41500 85.000
55.43000 78.000
55.44500 84.000
55.46000 90.000
55.47500 86.000
55.49000 83.000
55.50500 73.000
55.52000 78.000
55.53500 75.000
55.55000 53.000
55.56500 68.000
55.58000 79.000
55.59500 78.000
55.61000 86.000
55.62500 78.000
55.64000 76.000
55.65500 73.000
55.67000 65.000
55.68500 68.000
55.70000 69.000
55.71500 64.000
55.73000 87.000
55.74500 83.000
55.76000 82.000
55.77500 83.000
55.79000 72.000
55.80500 84.000
55.82000 76.000
55.83500 92.000
55.85000 85.000
55.86500 80.000
55.88000 83.000
55.89500 75.000
55.91000 86.000
55.92500 79.000
55.94000 80.000
55.95500 75.000
55.97000 83.000
55.98500 79.000
56.00000 72.000
56.01500 78.000
56.03000 81.000
56.04500 73.000
56.06000 78.000
56.07500 73.000
56.09000 80.000
56.10500 89.000
56.12000 82.000
56.13500 73.000
56.15000 73.000
56.16500 77.000
56.18000 75.000
56.19500 82.000
56.21000 75.000
56.22500 79.000
56.24000 82.000
56.25500 92.000
56.27000 88.000
56.28500 87.000
56.30000 91.000
56.31500 82.000
56.33000 71.000
56.34500 77.000
56.36000 69.000
56.37500 69.000
56.39000 80.000
56.40500 67.000
56.42000 68.000
56.43500 77.000
56.45000 79.000
56.46500 79.000
56.48000 81.000
56.49500 87.000
56.51000 77.000
56.52500 75.000
56.54000 86.000
56.55500 78.000
56.57000 68.000
56.58500 78.000
56.60000 84.000
56.61500 87.000
56.63000 79.000
56.64500 65.000
56.66000 75.000
56.67500 76.000
56.69000 76.000
56.70500 65.000
56.72000 81.000
56.73500 75.000
56.75000 83.000
56.76500 80.000
56.78000 74.000
56.79500 70.000
56.81000 79.000
56.82500 78.000
56.84000 82.000
56.85500 88.000
56.87000 83.000
56.88500 81.000
56.90000 86.000
56.91500 85.000
56.93000 75.000
56.94500 75.000
56.96000 87.000
56.97500 60.000
56.99000 70.000
57.00500 75.000
57.02000 60.000
57.03500 83.000
57.05000 85.000
57.06500 84.000
57.08000 83.000
57.09500 68.000
57.11000 57.000
57.12500 58.000
57.14000 70.000
57.15500 81.000
57.17000 67.000
57.18500 72.000
57.20000 71.000
57.21500 74.000
57.23000 69.000
57.24500 81.000
57.26000 84.000
57.27500 76.000
57.29000 91.000
57.30500 90.000
57.32000 70.000
57.33500 90.000
57.35000 96.000
57.36500 68.000
57.38000 65.000
57.39500 83.000
57.41000 61.000
57.42500 69.000
57.44000 76.000
57.45500 66.000
57.47000 80.000
57.48500 73.000
57.50000 86.000
57.51500 70.000
57.53000 82.000
57.54500 83.000
57.56000 77.000
57.57500 76.000
57.59000 77.000
57.60500 77.000
57.62000 80.000
57.63500 84.000
57.65000 75.000
57.66500 81.000
57.68000 73.000
57.69500 79.000
57.71000 83.000
57.72500 73.000
57.74000 80.000
57.75500 74.000
57.77000 69.000
57.78500 71.000
57.80000 79.000
57.81500 67.000
57.83000 70.000
57.84500 74.000
57.86000 66.000
57.87500 65.000
57.89000 82.000
57.90500 87.000
57.92000 82.000
57.93500 66.000
57.95000 68.000
57.96500 76.000
57.98000 67.000
57.99500 66.000
58.01000 74.000
58.02500 75.000
58.04000 83.000
58.05500 73.000
58.07000 78.000
58.08500 74.000
58.10000 84.000
58.11500 76.000
58.13000 65.000
58.14500 61.000
58.16000 70.000
58.17500 72.000
58.19000 80.000
58.20500 72.000
58.22000 75.000
58.23500 84.000
58.25000 67.000
58.26500 76.000
58.28000 70.000
58.29500 79.000
58.31000 76.000
58.32500 73.000
58.34000 81.000
58.35500 67.000
58.37000 77.000
58.38500 72.000
58.40000 85.000
58.41500 78.000
58.43000 81.000
58.44500 89.000
58.46000 75.000
58.47500 73.000
58.49000 68.000
58.50500 71.000
58.52000 72.000
58.53500 77.000
58.55000 93.000
58.56500 89.000
58.58000 89.000
58.59500 78.000
58.61000 77.000
58.62500 68.000
58.64000 73.000
58.65500 76.000
58.67000 87.000
58.68500 76.000
58.70000 75.000
58.71500 75.000
58.73000 71.000
58.74500 81.000
58.76000 80.000
58.77500 87.000
58.79000 82.000
58.80500 77.000
58.82000 72.000
58.83500 75.000
58.85000 63.000
58.86500 75.000
58.88000 73.000
58.89500 81.000
58.91000 79.000
58.92500 62.000
58.94000 77.000
58.95500 70.000
58.97000 69.000
58.98500 63.000
59.00000 67.000
59.01500 61.000
59.03000 70.000
59.04500 73.000
59.06000 67.000
59.07500 75.000
59.09000 72.000
59.10500 56.000
59.12000 76.000
59.13500 80.000
59.15000 81.000
59.16500 84.000
59.18000 76.000
59.19500 74.000
59.21000 76.000
59.22500 67.000
59.24000 54.000
59.25500 69.000
59.27000 68.000
59.28500 83.000
59.30000 69.000
59.31500 68.000
59.33000 77.000
59.34500 78.000
59.36000 74.000
59.37500 82.000
59.39000 81.000
59.40500 84.000
59.42000 75.000
59.43500 71.000
59.45000 72.000
59.46500 69.000
59.48000 72.000
59.49500 84.000
59.51000 78.000
59.52500 79.000
59.54000 79.000
59.55500 72.000
59.57000 70.000
59.58500 76.000
59.60000 68.000
59.61500 61.000
59.63000 74.000
59.64500 66.000
59.66000 98.000
59.67500 73.000
59.69000 73.000
59.70500 67.000
59.72000 66.000
59.73500 81.000
59.75000 77.000
59.76500 72.000
59.78000 76.000
59.79500 78.000
59.81000 73.000
59.82500 75.000
59.84000 73.000
59.85500 73.000
59.87000 79.000
59.88500 80.000
59.90000 82.000
59.91500 78.000
59.93000 63.000
59.94500 64.000
59.96000 79.000
59.97500 77.000
59.99000 56.000
60.00500 60.000
60.02000 81.000
60.03500 76.000
60.05000 67.000
60.06500 80.000
60.08000 75.000
60.09500 77.000
60.11000 73.000
60.12500 73.000
60.14000 66.000
60.15500 70.000
60.17000 65.000
60.18500 75.000
60.20000 74.000
60.21500 65.000
60.23000 80.000
60.24500 83.000
60.26000 69.000
60.27500 71.000
60.29000 78.000
60.30500 82.000
60.32000 75.000
60.33500 76.000
60.35000 72.000
60.36500 77.000
60.38000 84.000
60.39500 81.000
60.41000 71.000
60.42500 79.000
60.44000 80.000
60.45500 72.000
60.47000 70.000
60.48500 72.000
60.50000 68.000
60.51500 63.000
60.53000 75.000
60.54500 63.000
60.56000 84.000
60.57500 71.000
60.59000 73.000
60.60500 75.000
60.62000 65.000
60.63500 63.000
60.65000 78.000
60.66500 78.000
60.68000 66.000
60.69500 67.000
60.71000 78.000
60.72500 80.000
60.74000 66.000
60.75500 69.000
60.77000 61.000
60.78500 72.000
60.80000 55.000
60.81500 56.000
60.83000 67.000
60.84500 68.000
60.86000 70.000
60.87500 73.000
60.89000 64.000
60.90500 74.000
60.92000 79.000
60.93500 74.000
60.95000 61.000
60.96500 68.000
60.98000 71.000
60.99500 71.000
61.01000 79.000
61.02500 67.000
61.04000 66.000
61.05500 64.000
61.07000 54.000
61.08500 70.000
61.10000 74.000
61.11500 69.000
61.13000 72.000
61.14500 64.000
61.16000 72.000
61.17500 58.000
61.19000 67.000
61.20500 72.000
61.22000 73.000
61.23500 71.000
61.25000 65.000
61.26500 72.000
61.28000 75.000
61.29500 63.000
61.31000 73.000
61.32500 77.000
61.34000 69.000
61.35500 67.000
61.37000 67.000
61.38500 75.000
61.40000 66.000
61.41500 56.000
61.43000 67.000
61.44500 69.000
61.46000 61.000
61.47500 70.000
61.49000 68.000
61.50500 71.000
61.52000 73.000
61.53500 70.000
61.55000 62.000
61.56500 76.000
61.58000 64.000
61.59500 63.000
61.61000 69.000
61.62500 72.000
61.64000 58.000
61.65500 69.000
61.67000 79.000
61.68500 58.000
61.70000 78.000
61.71500 74.000
61.73000 78.000
61.74500 63.000
61.76000 77.000
61.77500 70.000
61.79000 76.000
61.80500 75.000
61.82000 68.000
61.83500 71.000
61.85000 77.000
61.86500 71.000
61.88000 65.000
61.89500 67.000
61.91000 63.000
61.92500 67.000
61.94000 76.000
61.95500 68.000
61.97000 64.000
61.98500 71.000
