2.00000 1.000
2.01500 2.000
2.03000 3.000
2.04500 4.000
2.06000 2.000
2.07500 2.000
2.09000 1.000
2.10500 1.000
2.12000 1.000
2.13500 2.000
2.15000 1.000
2.16500 1.000
2.18000 0.000
2.19500 1.000
2.21000 2.000
2.22500 5.000
2.24000 6.000
2.25500 3.000
2.27000 2.000
2.28500 3.000
2.30000 4.000
2.31500 2.000
2.33000 1.000
2.34500 3.000
2.36000 2.000
2.37500 2.000
2.39000 2.000
2.40500 1.000
2.42000 5.000
2.43500 4.000
2.45000 3.000
2.46500 1.000
2.48000 0.000
2.49500 1.000
2.51000 1.000
2.52500 2.000
2.54000 0.000
2.55500 1.000
2.57000 2.000
2.58500 4.000
2.60000 2.000
2.61500 4.000
2.63000 1.000
2.64500 0.000
2.66000 2.000
2.67500 4.000
2.69000 2.000
2.70500 4.000
2.72000 2.000
2.73500 3.000
2.75000 2.000
2.76500 2.000
2.78000 1.000
2.79500 3.000
2.81000 3.000
2.82500 1.000
2.84000 4.000
2.85500 3.000
2.87000 2.000
2.88500 2.000
2.90000 2.000
2.91500 1.000
2.93000 4.000
2.94500 3.000
2.96000 1.000
2.97500 1.000
2.99000 2.000
3.00500 2.000
3.02000 2.000
3.03500 2.000
3.05000 2.000
3.06500 1.000
3.08000 4.000
3.09500 4.000
3.11000 9.000
3.12500 8.000
3.14000 7.000
3.15500 10.000
3.17000 10.000
3.18500 15.000
3.20000 30.000
3.21500 47.000
3.23000 76.000
3.24500 82.000
3.26000 124.000
3.27500 156.000
3.29000 147.000
3.30500 162.000
3.32000 149.000
3.33500 142.000
3.35000 144.000
3.36500 134.000
3.38000 136.000
3.39500 137.000
3.41000 142.000
3.42500 143.000
3.44000 139.000
3.45500 128.000
3.47000 129.000
3.48500 122.000
3.50000 156.000
3.51500 157.000
3.53000 143.000
3.54500 133.000
3.56000 140.000
3.57500 154.000
3.59000 142.000
3.60500 145.000
3.62000 150.000
3.63500 148.000
3.65000 148.000
3.66500 142.000
3.68000 159.000
3.69500 146.000
3.71000 148.000
3.72500 141.000
3.74000 140.000
3.75500 139.000
3.77000 144.000
3.78500 146.000
3.80000 128.000
3.81500 133.000
3.83000 141.000
3.84500 137.000
3.86000 147.000
3.87500 149.000
3.89000 152.000
3.90500 152.000
3.92000 151.000
3.93500 138.000
3.95000 130.000
3.96500 132.000
3.98000 151.000
3.99500 145.000
4.01000 162.000
4.02500 156.000
4.04000 156.000
4.05500 160.000
4.07000 149.000
4.08500 122.000
4.10000 135.000
4.11500 163.000
4.13000 162.000
4.14500 151.000
4.16000 159.000
4.17500 154.000
4.19000 156.000
4.20500 151.000
4.22000 144.000
4.23500 149.000
4.25000 146.000
4.26500 164.000
4.28000 125.000
4.29500 152.000
4.31000 174.000
4.32500 154.000
4.34000 159.000
4.35500 153.000
4.37000 168.000
4.38500 174.000
4.40000 161.000
4.41500 156.000
4.43000 150.000
4.44500 157.000
4.46000 147.000
4.47500 152.000
4.49000 172.000
4.50500 164.000
4.52000 159.000
4.53500 166.000
4.55000 157.000
4.56500 150.000
4.58000 175.000
4.59500 166.000
4.61000 156.000
4.62500 183.000
4.64000 160.000
4.65500 158.000
4.67000 171.000
4.68500 168.000
4.70000 148.000
4.71500 167.000
4.73000 166.000
4.74500 154.000
4.76000 157.000
4.77500 178.000
4.79000 163.000
4.80500 144.000
4.82000 153.000
4.83500 164.000
4.85000 169.000
4.86500 152.000
4.88000 166.000
4.89500 157.000
4.91000 154.000
4.92500 163.000
4.94000 158.000
4.95500 172.000
4.97000 151.000
4.98500 172.000
5.00000 161.000
5.01500 167.000
5.03000 173.000
5.04500 176.000
5.06000 171.000
5.07500 171.000
5.09000 149.000
5.10500 152.000
5.12000 153.000
5.13500 175.000
5.15000 168.000
5.16500 182.000
5.18000 158.000
5.19500 161.000
5.21000 162.000
5.22500 182.000
5.24000 171.000
5.25500 174.000
5.27000 169.000
5.28500 177.000
5.30000 185.000
5.31500 194.000
5.33000 171.000
5.34500 187.000
5.36000 201.000
5.37500 180.000
5.39000 166.000
5.40500 175.000
5.42000 172.000
5.43500 182.000
5.45000 163.000
5.46500 198.000
5.48000 195.000
5.49500 176.000
5.51000 160.000
5.52500 166.000
5.54000 175.000
5.55500 165.000
5.57000 165.000
5.58500 183.000
5.60000 194.000
5.61500 199.000
5.63000 205.000
5.64500 197.000
5.66000 195.000
5.67500 194.000
5.69000 217.000
5.70500 209.000
5.72000 186.000
5.73500 179.000
5.75000 216.000
5.76500 221.000
5.78000 202.000
5.79500 187.000
5.81000 198.000
5.82500 197.000
5.84000 206.000
5.85500 188.000
5.87000 219.000
5.88500 223.000
5.90000 222.000
5.91500 238.000
5.93000 229.000
5.94500 225.000
5.96000 247.000
5.97500 245.000
5.99000 237.000
6.00500 245.000
6.02000 246.000
6.03500 249.000
6.05000 241.000
6.06500 258.000
6.08000 291.000
6.09500 312.000
6.11000 309.000
6.12500 320.000
6.14000 318.000
6.15500 377.000
6.17000 423.000
6.18500 473.000
6.20000 490.000
6.21500 549.000
6.23000 613.000
6.24500 654.000
6.26000 589.000
6.27500 574.000
6.29000 593.000
6.30500 577.000
6.32000 580.000
6.33500 619.000
6.35000 683.000
6.36500 633.000
6.38000 655.000
6.39500 687.000
6.41000 741.000
6.42500 767.000
6.44000 728.000
6.45500 705.000
6.47000 723.000
6.48500 726.000
6.50000 682.000
6.51500 705.000
6.53000 650.000
6.54500 572.000
6.56000 520.000
6.57500 471.000
6.59000 434.000
6.60500 342.000
6.62000 274.000
6.63500 251.000
6.65000 220.000
6.66500 229.000
6.68000 210.000
6.69500 217.000
6.71000 199.000
6.72500 219.000
6.74000 193.000
6.75500 186.000
6.77000 203.000
6.78500 232.000
6.80000 200.000
6.81500 194.000
6.83000 208.000
6.84500 215.000
6.86000 191.000
6.87500 186.000
6.89000 202.000
6.90500 198.000
6.92000 205.000
6.93500 221.000
6.95000 194.000
6.96500 202.000
6.98000 198.000
6.99500 195.000
7.01000 200.000
7.02500 196.000
7.04000 220.000
7.05500 201.000
7.07000 191.000
7.08500 205.000
7.10000 196.000
7.11500 199.000
7.13000 185.000
7.14500 183.000
7.16000 173.000
7.17500 169.000
7.19000 198.000
7.20500 199.000
7.22000 206.000
7.23500 206.000
7.25000 212.000
7.26500 213.000
7.28000 212.000
7.29500 227.000
7.31000 201.000
7.32500 203.000
7.34000 215.000
7.35500 214.000
7.37000 206.000
7.38500 200.000
7.40000 200.000
7.41500 193.000
7.43000 210.000
7.44500 201.000
7.46000 211.000
7.47500 190.000
7.49000 194.000
7.50500 207.000
7.52000 210.000
7.53500 219.000
7.55000 205.000
7.56500 205.000
7.58000 202.000
7.59500 222.000
7.61000 219.000
7.62500 209.000
7.64000 203.000
7.65500 209.000
7.67000 223.000
7.68500 223.000
7.70000 209.000
7.71500 201.000
7.73000 207.000
7.74500 218.000
7.76000 233.000
7.77500 224.000
7.79000 203.000
7.80500 215.000
7.82000 216.000
7.83500 233.000
7.85000 225.000
7.86500 217.000
7.88000 231.000
7.89500 217.000
7.91000 209.000
7.92500 213.000
7.94000 226.000
7.95500 235.000
7.97000 219.000
7.98500 208.000
8.00000 217.000
8.01500 218.000
8.03000 246.000
8.04500 204.000
8.06000 231.000
8.07500 247.000
8.09000 229.000
8.10500 242.000
8.12000 235.000
8.13500 250.000
8.15000 238.000
8.16500 264.000
8.18000 270.000
8.19500 234.000
8.21000 255.000
8.22500 252.000
8.24000 264.000
8.25500 255.000
8.27000 270.000
8.28500 272.000
8.30000 269.000
8.31500 266.000
8.33000 280.000
8.34500 288.000
8.36000 269.000
8.37500 302.000
8.39000 294.000
8.40500 284.000
8.42000 271.000
8.43500 291.000
8.45000 292.000
8.46500 294.000
8.48000 275.000
8.49500 264.000
8.51000 269.000
8.52500 280.000
8.54000 266.000
8.55500 267.000
8.57000 260.000
8.58500 255.000
8.60000 269.000
8.61500 263.000
8.63000 252.000
8.64500 228.000
8.66000 218.000
8.67500 235.000
8.69000 263.000
8.70500 242.000
8.72000 246.000
8.73500 252.000
8.75000 229.000
8.76500 245.000
8.78000 255.000
8.79500 247.000
8.81000 240.000
8.82500 226.000
8.84000 257.000
8.85500 267.000
8.87000 232.000
8.88500 237.000
8.90000 263.000
8.91500 245.000
8.93000 283.000
8.94500 274.000
8.96000 254.000
8.97500 267.000
8.99000 279.000
9.00500 260.000
9.02000 267.000
9.03500 264.000
9.05000 270.000
9.06500 244.000
9.08000 219.000
9.09500 229.000
9.11000 263.000
9.12500 238.000
9.14000 236.000
9.15500 236.000
9.17000 246.000
9.18500 244.000
9.20000 272.000
9.21500 238.000
9.23000 234.000
9.24500 245.000
9.26000 265.000
9.27500 245.000
9.29000 242.000
9.30500 248.000
9.32000 229.000
9.33500 249.000
9.35000 277.000
9.36500 255.000
9.38000 244.000
9.39500 260.000
9.41000 279.000
9.42500 267.000
9.44000 300.000
9.45500 263.000
9.47000 294.000
9.48500 288.000
9.50000 293.000
9.51500 284.000
9.53000 301.000
9.54500 291.000
9.56000 320.000
9.57500 312.000
9.59000 356.000
9.60500 346.000
9.62000 359.000
9.63500 384.000
9.65000 430.000
9.66500 430.000
9.68000 462.000
9.69500 519.000
9.71000 510.000
9.72500 554.000
9.74000 582.000
9.75500 612.000
9.77000 594.000
9.78500 587.000
9.80000 592.000
9.81500 619.000
9.83000 653.000
9.84500 616.000
9.86000 629.000
9.87500 603.000
9.89000 631.000
9.90500 619.000
9.92000 615.000
9.93500 597.000
9.95000 521.000
9.96500 550.000
9.98000 543.000
9.99500 553.000
10.01000 572.000
10.02500 565.000
10.04000 558.000
10.05500 591.000
10.07000 585.000
10.08500 594.000
10.10000 628.000
10.11500 688.000
10.13000 671.000
10.14500 689.000
10.16000 722.000
10.17500 744.000
10.19000 769.000
10.20500 784.000
10.22000 849.000
10.23500 849.000
10.25000 903.000
10.26500 912.000
10.28000 933.000
10.29500 963.000
10.31000 1010.000
10.32500 1063.000
10.34000 1031.000
10.35500 965.000
10.37000 941.000
10.38500 884.000
10.40000 905.000
10.41500 930.000
10.43000 943.000
10.44500 962.000
10.46000 928.000
10.47500 767.000
10.49000 680.000
10.50500 615.000
10.52000 548.000
10.53500 538.000
10.55000 500.000
10.56500 492.000
10.58000 539.000
10.59500 531.000
10.61000 537.000
10.62500 504.000
10.64000 464.000
10.65500 487.000
10.67000 526.000
10.68500 489.000
10.70000 460.000
10.71500 464.000
10.73000 462.000
10.74500 432.000
10.76000 419.000
10.77500 434.000
10.79000 387.000
10.80500 393.000
10.82000 353.000
10.83500 348.000
10.85000 363.000
10.86500 332.000
10.88000 317.000
10.89500 293.000
10.91000 292.000
10.92500 303.000
10.94000 292.000
10.95500 305.000
10.97000 278.000
10.98500 261.000
11.00000 261.000
11.01500 277.000
11.03000 272.000
11.04500 252.000
11.06000 223.000
11.07500 245.000
11.09000 269.000
11.10500 247.000
11.12000 225.000
11.13500 250.000
11.15000 276.000
11.16500 237.000
11.18000 235.000
11.19500 236.000
11.21000 259.000
11.22500 245.000
11.24000 244.000
11.25500 254.000
11.27000 244.000
11.28500 248.000
11.30000 240.000
11.31500 233.000
11.33000 243.000
11.34500 255.000
11.36000 223.000
11.37500 223.000
11.39000 233.000
11.40500 246.000
11.42000 239.000
11.43500 225.000
11.45000 225.000
11.46500 239.000
11.48000 219.000
11.49500 250.000
11.51000 247.000
11.52500 240.000
11.54000 250.000
11.55500 233.000
11.57000 230.000
11.58500 221.000
11.60000 256.000
11.61500 235.000
11.63000 232.000
11.64500 241.000
11.66000 217.000
11.67500 244.000
11.69000 223.000
11.70500 240.000
11.72000 239.000
11.73500 225.000
11.75000 236.000
11.76500 235.000
11.78000 235.000
11.79500 251.000
11.81000 229.000
11.82500 242.000
11.84000 242.000
11.85500 259.000
11.87000 246.000
11.88500 233.000
11.90000 231.000
11.91500 241.000
11.93000 248.000
11.94500 258.000
11.96000 233.000
11.97500 246.000
11.99000 268.000
12.00500 265.000
12.02000 258.000
12.03500 246.000
12.05000 237.000
12.06500 252.000
12.08000 261.000
12.09500 268.000
12.11000 263.000
12.12500 270.000
12.14000 258.000
12.15500 269.000
12.17000 264.000
12.18500 277.000
12.20000 258.000
12.21500 263.000
12.23000 281.000
12.24500 235.000
12.26000 235.000
12.27500 271.000
12.29000 273.000
12.30500 275.000
12.32000 280.000
12.33500 266.000
12.35000 285.000
12.36500 273.000
12.38000 294.000
12.39500 296.000
12.41000 319.000
12.42500 281.000
12.44000 303.000
12.45500 339.000
12.47000 338.000
12.48500 346.000
12.50000 329.000
12.51500 340.000
12.53000 346.000
12.54500 376.000
12.56000 429.000
12.57500 407.000
12.59000 398.000
12.60500 368.000
12.62000 351.000
12.63500 350.000
12.65000 354.000
12.66500 372.000
12.68000 358.000
12.69500 367.000
12.71000 358.000
12.72500 323.000
12.74000 379.000
12.75500 356.000
12.77000 337.000
12.78500 306.000
12.80000 342.000
12.81500 348.000
12.83000 333.000
12.84500 321.000
12.86000 300.000
12.87500 296.000
12.89000 280.000
12.90500 278.000
12.92000 291.000
12.93500 307.000
12.95000 288.000
12.96500 288.000
12.98000 290.000
12.99500 303.000
13.01000 298.000
13.02500 305.000
13.04000 286.000
13.05500 291.000
13.07000 268.000
13.08500 282.000
13.10000 298.000
13.11500 304.000
13.13000 268.000
13.14500 296.000
13.16000 271.000
13.17500 275.000
13.19000 262.000
13.20500 267.000
13.22000 242.000
13.23500 259.000
13.25000 264.000
13.26500 264.000
13.28000 255.000
13.29500 229.000
13.31000 240.000
13.32500 239.000
13.34000 236.000
13.35500 235.000
13.37000 234.000
13.38500 282.000
13.40000 258.000
13.41500 236.000
13.43000 241.000
13.44500 241.000
13.46000 212.000
13.47500 231.000
13.49000 243.000
13.50500 249.000
13.52000 242.000
13.53500 235.000
13.55000 236.000
13.56500 240.000
13.58000 254.000
13.59500 229.000
13.61000 252.000
13.62500 228.000
13.64000 242.000
13.65500 242.000
13.67000 241.000
13.68500 250.000
13.70000 260.000
13.71500 284.000
13.73000 286.000
13.74500 236.000
13.76000 235.000
13.77500 236.000
13.79000 234.000
13.80500 243.000
13.82000 228.000
13.83500 237.000
13.85000 231.000
13.86500 233.000
13.88000 234.000
13.89500 229.000
13.91000 238.000
13.92500 264.000
13.94000 258.000
13.95500 232.000
13.97000 230.000
13.98500 229.000
14.00000 230.000
14.01500 239.000
14.03000 224.000
14.04500 248.000
14.06000 242.000
14.07500 214.000
14.09000 232.000
14.10500 228.000
14.12000 223.000
14.13500 229.000
14.15000 233.000
14.16500 252.000
14.18000 247.000
14.19500 257.000
14.21000 231.000
14.22500 226.000
14.24000 244.000
14.25500 235.000
14.27000 223.000
14.28500 244.000
14.30000 238.000
14.31500 246.000
14.33000 246.000
14.34500 251.000
14.36000 250.000
14.37500 231.000
14.39000 220.000
14.40500 229.000
14.42000 243.000
14.43500 252.000
14.45000 229.000
14.46500 229.000
14.48000 225.000
14.49500 253.000
14.51000 253.000
14.52500 239.000
14.54000 242.000
14.55500 230.000
14.57000 240.000
14.58500 244.000
14.60000 251.000
14.61500 261.000
14.63000 242.000
14.64500 247.000
14.66000 250.000
14.67500 240.000
14.69000 238.000
14.70500 251.000
14.72000 257.000
14.73500 235.000
14.75000 229.000
14.76500 263.000
14.78000 261.000
14.79500 251.000
14.81000 250.000
14.82500 260.000
14.84000 260.000
14.85500 265.000
14.87000 266.000
14.88500 241.000
14.90000 261.000
14.91500 272.000
14.93000 254.000
14.94500 252.000
14.96000 271.000
14.97500 281.000
14.99000 290.000
15.00500 283.000
15.02000 294.000
15.03500 297.000
15.05000 299.000
15.06500 303.000
15.08000 286.000
15.09500 238.000
15.11000 210.000
15.12500 263.000
15.14000 249.000
15.15500 267.000
15.17000 248.000
15.18500 255.000
15.20000 254.000
15.21500 263.000
15.23000 268.000
15.24500 253.000
15.26000 274.000
15.27500 279.000
15.29000 281.000
15.30500 293.000
15.32000 301.000
15.33500 308.000
15.35000 281.000
15.36500 310.000
15.38000 297.000
15.39500 309.000
15.41000 323.000
15.42500 310.000
15.44000 339.000
15.45500 334.000
15.47000 325.000
15.48500 338.000
15.50000 341.000
15.51500 305.000
15.53000 301.000
15.54500 339.000
15.56000 323.000
15.57500 294.000
15.59000 292.000
15.60500 305.000
15.62000 273.000
15.63500 275.000
15.65000 291.000
15.66500 285.000
15.68000 273.000
15.69500 277.000
15.71000 245.000
15.72500 272.000
15.74000 269.000
15.75500 277.000
15.77000 285.000
15.78500 271.000
15.80000 279.000
15.81500 266.000
15.83000 258.000
15.84500 278.000
15.86000 267.000
15.87500 262.000
15.89000 261.000
15.90500 264.000
15.92000 269.000
15.93500 251.000
15.95000 270.000
15.96500 247.000
15.98000 249.000
15.99500 257.000
16.01000 264.000
16.02500 263.000
16.04000 251.000
16.05500 276.000
16.07000 261.000
16.08500 289.000
16.10000 264.000
16.11500 268.000
16.13000 265.000
16.14500 281.000
16.16000 290.000
16.17500 254.000
16.19000 289.000
16.20500 273.000
16.22000 294.000
16.23500 288.000
16.25000 282.000
16.26500 274.000
16.28000 257.000
16.29500 242.000
16.31000 269.000
16.32500 261.000
16.34000 264.000
16.35500 258.000
16.37000 246.000
16.38500 250.000
16.40000 237.000
16.41500 254.000
16.43000 255.000
16.44500 268.000
16.46000 256.000
16.47500 266.000
16.49000 271.000
16.50500 253.000
16.52000 255.000
16.53500 274.000
16.55000 245.000
16.56500 263.000
16.58000 254.000
16.59500 257.000
16.61000 252.000
16.62500 240.000
16.64000 247.000
16.65500 294.000
16.67000 233.000
16.68500 255.000
16.70000 261.000
16.71500 246.000
16.73000 264.000
16.74500 287.000
16.76000 258.000
16.77500 254.000
16.79000 269.000
16.80500 266.000
16.82000 255.000
16.83500 257.000
16.85000 281.000
16.86500 272.000
16.88000 267.000
16.89500 272.000
16.91000 292.000
16.92500 286.000
16.94000 285.000
16.95500 300.000
16.97000 299.000
16.98500 307.000
17.00000 281.000
17.01500 279.000
17.03000 314.000
17.04500 312.000
17.06000 354.000
17.07500 358.000
17.09000 365.000
17.10500 357.000
17.12000 426.000
17.13500 426.000
17.15000 409.000
17.16500 440.000
17.18000 477.000
17.19500 474.000
17.21000 462.000
17.22500 448.000
17.24000 455.000
17.25500 489.000
17.27000 471.000
17.28500 424.000
17.30000 437.000
17.31500 409.000
17.33000 425.000
17.34500 420.000
17.36000 387.000
17.37500 354.000
17.39000 321.000
17.40500 348.000
17.42000 365.000
17.43500 320.000
17.45000 368.000
17.46500 351.000
17.48000 318.000
17.49500 325.000
17.51000 339.000
17.52500 329.000
17.54000 331.000
17.55500 332.000
17.57000 321.000
17.58500 308.000
17.60000 322.000
17.61500 304.000
17.63000 322.000
17.64500 337.000
17.66000 320.000
17.67500 341.000
17.69000 349.000
17.70500 359.000
17.72000 342.000
17.73500 330.000
17.75000 323.000
17.76500 354.000
17.78000 348.000
17.79500 339.000
17.81000 343.000
17.82500 361.000
17.84000 364.000
17.85500 366.000
17.87000 369.000
17.88500 386.000
17.90000 390.000
17.91500 449.000
17.93000 450.000
17.94500 439.000
17.96000 459.000
17.97500 430.000
17.99000 419.000
18.00500 426.000
18.02000 416.000
18.03500 386.000
18.05000 375.000
18.06500 368.000
18.08000 379.000
18.09500 374.000
18.11000 362.000
18.12500 345.000
18.14000 311.000
18.15500 333.000
18.17000 328.000
18.18500 328.000
18.20000 302.000
18.21500 292.000
18.23000 286.000
18.24500 308.000
18.26000 327.000
18.27500 279.000
18.29000 298.000
18.30500 311.000
18.32000 321.000
18.33500 308.000
18.35000 294.000
18.36500 312.000
18.38000 317.000
18.39500 313.000
18.41000 309.000
18.42500 304.000
18.44000 322.000
18.45500 323.000
18.47000 284.000
18.48500 289.000
18.50000 313.000
18.51500 321.000
18.53000 310.000
18.54500 317.000
18.56000 344.000
18.57500 330.000
18.59000 320.000
18.60500 312.000
18.62000 314.000
18.63500 307.000
18.65000 335.000
18.66500 318.000
18.68000 330.000
18.69500 368.000
18.71000 383.000
18.72500 432.000
18.74000 497.000
18.75500 500.000
18.77000 489.000
18.78500 430.000
18.80000 379.000
18.81500 393.000
18.83000 357.000
18.84500 339.000
18.86000 297.000
18.87500 315.000
18.89000 320.000
18.90500 340.000
18.92000 305.000
18.93500 304.000
18.95000 336.000
18.96500 325.000
18.98000 336.000
18.99500 360.000
19.01000 311.000
19.02500 291.000
19.04000 332.000
19.05500 363.000
19.07000 344.000
19.08500 343.000
19.10000 343.000
19.11500 345.000
19.13000 330.000
19.14500 357.000
19.16000 358.000
19.17500 398.000
19.19000 382.000
19.20500 399.000
19.22000 484.000
19.23500 475.000
19.25000 569.000
19.26500 583.000
19.28000 553.000
19.29500 456.000
19.31000 379.000
19.32500 367.000
19.34000 363.000
19.35500 362.000
19.37000 346.000
19.38500 355.000
19.40000 363.000
19.41500 345.000
19.43000 348.000
19.44500 325.000
19.46000 331.000
19.47500 341.000
19.49000 336.000
19.50500 340.000
19.52000 346.000
19.53500 353.000
19.55000 354.000
19.56500 346.000
19.58000 366.000
19.59500 334.000
19.61000 365.000
19.62500 351.000
19.64000 336.000
19.65500 378.000
19.67000 368.000
19.68500 381.000
19.70000 354.000
19.71500 413.000
19.73000 394.000
19.74500 375.000
19.76000 363.000
19.77500 366.000
19.79000 390.000
19.80500 373.000
19.82000 339.000
19.83500 325.000
19.85000 362.000
19.86500 349.000
19.88000 312.000
19.89500 307.000
19.91000 301.000
19.92500 298.000
19.94000 290.000
19.95500 284.000
19.97000 254.000
19.98500 279.000
20.00000 288.000
20.01500 276.000
20.03000 283.000
20.04500 275.000
20.06000 274.000
20.07500 258.000
20.09000 251.000
20.10500 259.000
20.12000 272.000
20.13500 264.000
20.15000 279.000
20.16500 283.000
20.18000 270.000
20.19500 265.000
20.21000 272.000
20.22500 290.000
20.24000 282.000
20.25500 262.000
20.27000 244.000
20.28500 258.000
20.30000 265.000
20.31500 253.000
20.33000 259.000
20.34500 273.000
20.36000 248.000
20.37500 251.000
20.39000 259.000
20.40500 268.000
20.42000 277.000
20.43500 275.000
20.45000 284.000
20.46500 273.000
20.48000 256.000
20.49500 256.000
20.51000 252.000
20.52500 251.000
20.54000 275.000
20.55500 262.000
20.57000 276.000
20.58500 296.000
20.60000 272.000
20.61500 260.000
20.63000 268.000
20.64500 275.000
20.66000 289.000
20.67500 277.000
20.69000 281.000
20.70500 251.000
20.72000 270.000
20.73500 282.000
20.75000 294.000
20.76500 263.000
20.78000 281.000
20.79500 264.000
20.81000 279.000
20.82500 261.000
20.84000 275.000
20.85500 271.000
20.87000 267.000
20.88500 270.000
20.90000 292.000
20.91500 251.000
20.93000 250.000
20.94500 283.000
20.96000 285.000
20.97500 282.000
20.99000 278.000
21.00500 269.000
21.02000 264.000
21.03500 259.000
21.05000 260.000
21.06500 268.000
21.08000 253.000
21.09500 249.000
21.11000 276.000
21.12500 276.000
21.14000 249.000
21.15500 253.000
21.17000 259.000
21.18500 251.000
21.20000 256.000
21.21500 244.000
21.23000 262.000
21.24500 249.000
21.26000 249.000
21.27500 235.000
21.29000 253.000
21.30500 267.000
21.32000 294.000
21.33500 255.000
21.35000 264.000
21.36500 265.000
21.38000 275.000
21.39500 264.000
21.41000 251.000
21.42500 264.000
21.44000 275.000
21.45500 255.000
21.47000 280.000
21.48500 272.000
21.50000 272.000
21.51500 268.000
21.53000 252.000
21.54500 266.000
21.56000 234.000
21.57500 259.000
21.59000 276.000
21.60500 259.000
21.62000 270.000
21.63500 241.000
21.65000 251.000
21.66500 245.000
21.68000 259.000
21.69500 260.000
21.71000 279.000
21.72500 281.000
21.74000 259.000
21.75500 257.000
21.77000 267.000
21.78500 277.000
21.80000 259.000
21.81500 253.000
21.83000 281.000
21.84500 280.000
21.86000 257.000
21.87500 253.000
21.89000 264.000
21.90500 261.000
21.92000 266.000
21.93500 265.000
21.95000 254.000
21.96500 240.000
21.98000 266.000
21.99500 250.000
22.01000 249.000
22.02500 275.000
22.04000 259.000
22.05500 261.000
22.07000 245.000
22.08500 274.000
22.10000 270.000
22.11500 271.000
22.13000 285.000
22.14500 263.000
22.16000 263.000
22.17500 250.000
22.19000 262.000
22.20500 249.000
22.22000 276.000
22.23500 277.000
22.25000 246.000
22.26500 264.000
22.28000 251.000
22.29500 245.000
22.31000 273.000
22.32500 251.000
22.34000 262.000
22.35500 262.000
22.37000 241.000
22.38500 269.000
22.40000 265.000
22.41500 247.000
22.43000 249.000
22.44500 256.000
22.46000 268.000
22.47500 239.000
22.49000 247.000
22.50500 246.000
22.52000 247.000
22.53500 294.000
22.55000 272.000
22.56500 266.000
22.58000 255.000
22.59500 268.000
22.61000 273.000
22.62500 254.000
22.64000 234.000
22.65500 250.000
22.67000 270.000
22.68500 246.000
22.70000 257.000
22.71500 268.000
22.73000 244.000
22.74500 249.000
22.76000 262.000
22.77500 270.000
22.79000 247.000
22.80500 277.000
22.82000 273.000
22.83500 264.000
22.85000 265.000
22.86500 237.000
22.88000 239.000
22.89500 252.000
22.91000 262.000
22.92500 251.000
22.94000 264.000
22.95500 260.000
22.97000 247.000
22.98500 254.000
23.00000 275.000
23.01500 248.000
23.03000 255.000
23.04500 270.000
23.06000 253.000
23.07500 264.000
23.09000 268.000
23.10500 288.000
23.12000 283.000
23.13500 268.000
23.15000 278.000
23.16500 256.000
23.18000 255.000
23.19500 270.000
23.21000 269.000
23.22500 265.000
23.24000 243.000
23.25500 253.000
23.27000 244.000
23.28500 273.000
23.30000 270.000
23.31500 269.000
23.33000 256.000
23.34500 252.000
23.36000 282.000
23.37500 257.000
23.39000 273.000
23.40500 269.000
23.42000 271.000
23.43500 250.000
23.45000 243.000
23.46500 288.000
23.48000 273.000
23.49500 304.000
23.51000 286.000
23.52500 282.000
23.54000 266.000
23.55500 271.000
23.57000 262.000
23.58500 272.000
23.60000 264.000
23.61500 254.000
23.63000 255.000
23.64500 286.000
23.66000 261.000
23.67500 259.000
23.69000 269.000
23.70500 278.000
23.72000 253.000
23.73500 254.000
23.75000 253.000
23.76500 280.000
23.78000 260.000
23.79500 258.000
23.81000 285.000
23.82500 287.000
23.84000 305.000
23.85500 286.000
23.87000 277.000
23.88500 273.000
23.90000 258.000
23.91500 254.000
23.93000 282.000
23.94500 288.000
23.96000 260.000
23.97500 265.000
23.99000 266.000
24.00500 289.000
24.02000 296.000
24.03500 279.000
24.05000 274.000
24.06500 293.000
24.08000 293.000
24.09500 309.000
24.11000 295.000
24.12500 307.000
24.14000 314.000
24.15500 291.000
24.17000 304.000
24.18500 310.000
24.20000 320.000
24.21500 327.000
24.23000 334.000
24.24500 315.000
24.26000 324.000
24.27500 337.000
24.29000 326.000
24.30500 324.000
24.32000 373.000
24.33500 394.000
24.35000 405.000
24.36500 381.000
24.38000 362.000
24.39500 389.000
24.41000 404.000
24.42500 406.000
24.44000 447.000
24.45500 422.000
24.47000 427.000
24.48500 448.000
24.50000 487.000
24.51500 548.000
24.53000 561.000
24.54500 577.000
24.56000 531.000
24.57500 554.000
24.59000 525.000
24.60500 488.000
24.62000 490.000
24.63500 479.000
24.65000 498.000
24.66500 482.000
24.68000 483.000
24.69500 459.000
24.71000 488.000
24.72500 481.000
24.74000 506.000
24.75500 510.000
24.77000 481.000
24.78500 505.000
24.80000 494.000
24.81500 491.000
24.83000 485.000
24.84500 502.000
24.86000 507.000
24.87500 492.000
24.89000 524.000
24.90500 506.000
24.92000 538.000
24.93500 539.000
24.95000 526.000
24.96500 504.000
24.98000 505.000
24.99500 531.000
25.01000 505.000
25.02500 491.000
25.04000 502.000
25.05500 530.000
25.07000 529.000
25.08500 549.000
25.10000 560.000
25.11500 511.000
25.13000 492.000
25.14500 495.000
25.16000 523.000
25.17500 519.000
25.19000 486.000
25.20500 500.000
25.22000 503.000
25.23500 495.000
25.25000 496.000
25.26500 491.000
25.28000 506.000
25.29500 502.000
25.31000 472.000
25.32500 480.000
25.34000 470.000
25.35500 435.000
25.37000 429.000
25.38500 430.000
25.40000 429.000
25.41500 430.000
25.43000 435.000
25.44500 439.000
25.46000 461.000
25.47500 494.000
25.49000 460.000
25.50500 429.000
25.52000 470.000
25.53500 462.000
25.55000 472.000
25.56500 466.000
25.58000 445.000
25.59500 445.000
25.61000 454.000
25.62500 454.000
25.64000 398.000
25.65500 452.000
25.67000 484.000
25.68500 494.000
25.70000 490.000
25.71500 526.000
25.73000 569.000
25.74500 540.000
25.76000 537.000
25.77500 590.000
25.79000 609.000
25.80500 654.000
25.82000 716.000
25.83500 712.000
25.85000 728.000
25.86500 667.000
25.88000 675.000
25.89500 663.000
25.91000 688.000
25.92500 721.000
25.94000 734.000
25.95500 699.000
25.97000 744.000
25.98500 763.000
26.00000 770.000
26.01500 810.000
26.03000 809.000
26.04500 830.000
26.06000 857.000
26.07500 896.000
26.09000 961.000
26.10500 966.000
26.12000 952.000
26.13500 907.000
26.15000 919.000
26.16500 943.000
26.18000 886.000
26.19500 908.000
26.21000 855.000
26.22500 866.000
26.24000 874.000
26.25500 911.000
26.27000 871.000
26.28500 842.000
26.30000 843.000
26.31500 812.000
26.33000 797.000
26.34500 784.000
26.36000 759.000
26.37500 765.000
26.39000 756.000
26.40500 743.000
26.42000 760.000
26.43500 756.000
26.45000 725.000
26.46500 729.000
26.48000 780.000
26.49500 805.000
26.51000 804.000
26.52500 833.000
26.54000 810.000
26.55500 795.000
26.57000 815.000
26.58500 931.000
26.60000 998.000
26.61500 990.000
26.63000 1004.000
26.64500 991.000
26.66000 910.000
26.67500 827.000
26.69000 791.000
26.70500 718.000
26.72000 780.000
26.73500 730.000
26.75000 659.000
26.76500 677.000
26.78000 672.000
26.79500 703.000
26.81000 684.000
26.82500 640.000
26.84000 645.000
26.85500 670.000
26.87000 701.000
26.88500 704.000
26.90000 678.000
26.91500 679.000
26.93000 682.000
26.94500 728.000
26.96000 683.000
26.97500 676.000
26.99000 655.000
27.00500 671.000
27.02000 679.000
27.03500 689.000
27.05000 701.000
27.06500 705.000
27.08000 689.000
27.09500 711.000
27.11000 729.000
27.12500 746.000
27.14000 720.000
27.15500 722.000
27.17000 716.000
27.18500 752.000
27.20000 716.000
27.21500 736.000
27.23000 734.000
27.24500 717.000
27.26000 703.000
27.27500 728.000
27.29000 740.000
27.30500 741.000
27.32000 724.000
27.33500 738.000
27.35000 762.000
27.36500 712.000
27.38000 751.000
27.39500 743.000
27.41000 762.000
27.42500 760.000
27.44000 729.000
27.45500 712.000
27.47000 742.000
27.48500 780.000
27.50000 753.000
27.51500 784.000
27.53000 842.000
27.54500 856.000
27.56000 902.000
27.57500 907.000
27.59000 1053.000
27.60500 1097.000
27.62000 1194.000
27.63500 1161.000
27.65000 1080.000
27.66500 1067.000
27.68000 993.000
27.69500 962.000
27.71000 970.000
27.72500 952.000
27.74000 906.000
27.75500 968.000
27.77000 925.000
27.78500 887.000
27.80000 855.000
27.81500 897.000
27.83000 847.000
27.84500 834.000
27.86000 831.000
27.87500 813.000
27.89000 859.000
27.90500 845.000
27.92000 836.000
27.93500 818.000
27.95000 832.000
27.96500 767.000
27.98000 748.000
27.99500 762.000
28.01000 789.000
28.02500 772.000
28.04000 782.000
28.05500 786.000
28.07000 790.000
28.08500 790.000
28.10000 809.000
28.11500 792.000
28.13000 788.000
28.14500 778.000
28.16000 825.000
28.17500 816.000
28.19000 800.000
28.20500 791.000
28.22000 801.000
28.23500 792.000
28.25000 777.000
28.26500 801.000
28.28000 821.000
28.29500 810.000
28.31000 783.000
28.32500 820.000
28.34000 811.000
28.35500 830.000
28.37000 829.000
28.38500 856.000
28.40000 840.000
28.41500 779.000
28.43000 831.000
28.44500 815.000
28.46000 807.000
28.47500 751.000
28.49000 756.000
28.50500 737.000
28.52000 746.000
28.53500 717.000
28.55000 697.000
28.56500 696.000
28.58000 719.000
28.59500 692.000
28.61000 683.000
28.62500 668.000
28.64000 643.000
28.65500 685.000
28.67000 656.000
28.68500 612.000
28.70000 582.000
28.71500 599.000
28.73000 565.000
28.74500 539.000
28.76000 527.000
28.77500 541.000
28.79000 512.000
28.80500 506.000
28.82000 466.000
28.83500 470.000
28.85000 458.000
28.86500 445.000
28.88000 466.000
28.89500 425.000
28.91000 447.000
28.92500 445.000
28.94000 427.000
28.95500 414.000
28.97000 379.000
28.98500 400.000
29.00000 424.000
29.01500 441.000
29.03000 416.000
29.04500 424.000
29.06000 407.000
29.07500 402.000
29.09000 392.000
29.10500 384.000
29.12000 424.000
29.13500 421.000
29.15000 414.000
29.16500 390.000
29.18000 405.000
29.19500 419.000
29.21000 408.000
29.22500 425.000
29.24000 440.000
29.25500 394.000
29.27000 441.000
29.28500 439.000
29.30000 422.000
29.31500 422.000
29.33000 406.000
29.34500 376.000
29.36000 381.000
29.37500 374.000
29.39000 370.000
29.40500 352.000
29.42000 358.000
29.43500 371.000
29.45000 361.000
29.46500 353.000
29.48000 351.000
29.49500 374.000
29.51000 335.000
29.52500 336.000
29.54000 357.000
29.55500 355.000
29.57000 327.000
29.58500 343.000
29.60000 348.000
29.61500 378.000
29.63000 365.000
29.64500 368.000
29.66000 344.000
29.67500 352.000
29.69000 364.000
29.70500 350.000
29.72000 339.000
29.73500 321.000
29.75000 306.000
29.76500 328.000
29.78000 327.000
29.79500 316.000
29.81000 329.000
29.82500 351.000
29.84000 331.000
29.85500 309.000
29.87000 316.000
29.88500 358.000
29.90000 361.000
29.91500 344.000
29.93000 336.000
29.94500 333.000
29.96000 332.000
29.97500 337.000
29.99000 322.000
30.00500 339.000
30.02000 339.000
30.03500 313.000
30.05000 305.000
30.06500 322.000
30.08000 308.000
30.09500 304.000
30.11000 324.000
30.12500 346.000
30.14000 324.000
30.15500 316.000
30.17000 342.000
30.18500 348.000
30.20000 329.000
30.21500 341.000
30.23000 376.000
30.24500 363.000
30.26000 339.000
30.27500 381.000
30.29000 337.000
30.30500 350.000
30.32000 361.000
30.33500 375.000
30.35000 373.000
30.36500 359.000
30.38000 383.000
30.39500 417.000
30.41000 470.000
30.42500 515.000
30.44000 567.000
30.45500 579.000
30.47000 596.000
30.48500 659.000
30.50000 580.000
30.51500 544.000
30.53000 519.000
30.54500 524.000
30.56000 472.000
30.57500 459.000
30.59000 432.000
30.60500 453.000
30.62000 401.000
30.63500 400.000
30.65000 427.000
30.66500 401.000
30.68000 412.000
30.69500 379.000
30.71000 388.000
30.72500 412.000
30.74000 393.000
30.75500 356.000
30.77000 364.000
30.78500 394.000
30.80000 410.000
30.81500 393.000
30.83000 352.000
30.84500 368.000
30.86000 368.000
30.87500 360.000
30.89000 389.000
30.90500 370.000
30.92000 364.000
30.93500 366.000
30.95000 374.000
30.96500 368.000
30.98000 386.000
30.99500 394.000
31.01000 350.000
31.02500 346.000
31.04000 379.000
31.05500 377.000
31.07000 360.000
31.08500 368.000
31.10000 346.000
31.11500 338.000
31.13000 332.000
31.14500 351.000
31.16000 341.000
31.17500 348.000
31.19000 360.000
31.20500 336.000
31.22000 313.000
31.23500 322.000
31.25000 340.000
31.26500 341.000
31.28000 329.000
31.29500 341.000
31.31000 320.000
31.32500 322.000
31.34000 331.000
31.35500 336.000
31.37000 311.000
31.38500 304.000
31.40000 290.000
31.41500 306.000
31.43000 302.000
31.44500 321.000
31.46000 296.000
31.47500 324.000
31.49000 315.000
31.50500 258.000
31.52000 302.000
31.53500 313.000
31.55000 287.000
31.56500 299.000
31.58000 260.000
31.59500 294.000
31.61000 310.000
31.62500 302.000
31.64000 304.000
31.65500 329.000
31.67000 324.000
31.68500 308.000
31.70000 298.000
31.71500 274.000
31.73000 267.000
31.74500 266.000
31.76000 254.000
31.77500 252.000
31.79000 248.000
31.80500 235.000
31.82000 257.000
31.83500 257.000
31.85000 233.000
31.86500 253.000
31.88000 254.000
31.89500 277.000
31.91000 239.000
31.92500 218.000
31.94000 225.000
31.95500 244.000
31.97000 261.000
31.98500 259.000
32.00000 277.000
32.01500 279.000
32.03000 274.000
32.04500 297.000
32.06000 285.000
32.07500 251.000
32.09000 261.000
32.10500 236.000
32.12000 248.000
32.13500 240.000
32.15000 281.000
32.16500 265.000
32.18000 254.000
32.19500 237.000
32.21000 244.000
32.22500 249.000
32.24000 252.000
32.25500 245.000
32.27000 229.000
32.28500 250.000
32.30000 250.000
32.31500 240.000
32.33000 208.000
32.34500 240.000
32.36000 242.000
32.37500 246.000
32.39000 248.000
32.40500 238.000
32.42000 246.000
32.43500 243.000
32.45000 231.000
32.46500 250.000
32.48000 250.000
32.49500 253.000
32.51000 230.000
32.52500 237.000
32.54000 233.000
32.55500 253.000
32.57000 235.000
32.58500 226.000
32.60000 259.000
32.61500 236.000
32.63000 216.000
32.64500 247.000
32.66000 236.000
32.67500 267.000
32.69000 240.000
32.70500 235.000
32.72000 255.000
32.73500 248.000
32.75000 226.000
32.76500 239.000
32.78000 230.000
32.79500 212.000
32.81000 221.000
32.82500 235.000
32.84000 222.000
32.85500 213.000
32.87000 225.000
32.88500 209.000
32.90000 226.000
32.91500 213.000
32.93000 232.000
32.94500 233.000
32.96000 213.000
32.97500 220.000
32.99000 244.000
33.00500 238.000
33.02000 224.000
33.03500 229.000
33.05000 202.000
33.06500 220.000
33.08000 236.000
33.09500 238.000
33.11000 231.000
33.12500 258.000
33.14000 219.000
33.15500 197.000
33.17000 200.000
33.18500 212.000
33.20000 224.000
33.21500 210.000
33.23000 211.000
33.24500 215.000
33.26000 184.000
33.27500 190.000
33.29000 209.000
33.30500 189.000
33.32000 202.000
33.33500 201.000
33.35000 208.000
33.36500 193.000
33.38000 207.000
33.39500 214.000
33.41000 204.000
33.42500 187.000
33.44000 180.000
33.45500 208.000
33.47000 209.000
33.48500 202.000
33.50000 206.000
33.51500 194.000
33.53000 218.000
33.54500 216.000
33.56000 230.000
33.57500 220.000
33.59000 224.000
33.60500 211.000
33.62000 211.000
33.63500 216.000
33.65000 202.000
33.66500 213.000
33.68000 230.000
33.69500 217.000
33.71000 248.000
33.72500 247.000
33.74000 240.000
33.75500 231.000
33.77000 207.000
33.78500 224.000
33.80000 212.000
33.81500 206.000
33.83000 199.000
33.84500 204.000
33.86000 207.000
33.87500 200.000
33.89000 238.000
33.90500 226.000
33.92000 216.000
33.93500 232.000
33.95000 217.000
33.96500 254.000
33.98000 229.000
33.99500 235.000
34.01000 245.000
34.02500 217.000
34.04000 220.000
34.05500 218.000
34.07000 223.000
34.08500 208.000
34.10000 205.000
34.11500 212.000
34.13000 215.000
34.14500 211.000
34.16000 203.000
34.17500 226.000
34.19000 222.000
34.20500 235.000
34.22000 214.000
34.23500 204.000
34.25000 208.000
34.26500 231.000
34.28000 226.000
34.29500 219.000
34.31000 226.000
34.32500 251.000
34.34000 244.000
34.35500 237.000
34.37000 206.000
34.38500 223.000
34.40000 217.000
34.41500 222.000
34.43000 231.000
34.44500 223.000
34.46000 234.000
34.47500 219.000
34.49000 235.000
34.50500 228.000
34.52000 221.000
34.53500 215.000
34.55000 232.000
34.56500 238.000
34.58000 228.000
34.59500 209.000
34.61000 212.000
34.62500 203.000
34.64000 214.000
34.65500 207.000
34.67000 202.000
34.68500 195.000
34.70000 187.000
34.71500 189.000
34.73000 196.000
34.74500 235.000
34.76000 215.000
34.77500 208.000
34.79000 190.000
34.80500 219.000
34.82000 217.000
34.83500 232.000
34.85000 223.000
34.86500 220.000
34.88000 231.000
34.89500 208.000
34.91000 191.000
34.92500 230.000
34.94000 207.000
34.95500 229.000
34.97000 222.000
34.98500 215.000
35.00000 213.000
35.01500 230.000
35.03000 227.000
35.04500 214.000
35.06000 221.000
35.07500 177.000
35.09000 195.000
35.10500 226.000
35.12000 224.000
35.13500 208.000
35.15000 210.000
35.16500 218.000
35.18000 207.000
35.19500 200.000
35.21000 188.000
35.22500 191.000
35.24000 187.000
35.25500 188.000
35.27000 206.000
35.28500 180.000
35.30000 189.000
35.31500 192.000
35.33000 186.000
35.34500 189.000
35.36000 202.000
35.37500 197.000
35.39000 208.000
35.40500 184.000
35.42000 182.000
35.43500 203.000
35.45000 182.000
35.46500 188.000
35.48000 188.000
35.49500 186.000
35.51000 184.000
35.52500 171.000
35.54000 195.000
35.55500 190.000
35.57000 177.000
35.58500 193.000
35.60000 181.000
35.61500 193.000
35.63000 176.000
35.64500 191.000
35.66000 187.000
35.67500 208.000
35.69000 195.000
35.70500 180.000
35.72000 190.000
35.73500 195.000
35.75000 232.000
35.76500 246.000
35.78000 234.000
35.79500 229.000
35.81000 246.000
35.82500 274.000
35.84000 254.000
35.85500 243.000
35.87000 215.000
35.88500 217.000
35.90000 205.000
35.91500 203.000
35.93000 217.000
35.94500 239.000
35.96000 222.000
35.97500 213.000
35.99000 210.000
36.00500 208.000
36.02000 217.000
36.03500 223.000
36.05000 219.000
36.06500 206.000
36.08000 218.000
36.09500 212.000
36.11000 233.000
36.12500 242.000
36.14000 226.000
36.15500 261.000
36.17000 261.000
36.18500 249.000
36.20000 279.000
36.21500 274.000
36.23000 266.000
36.24500 261.000
36.26000 274.000
36.27500 284.000
36.29000 294.000
36.30500 313.000
36.32000 299.000
36.33500 296.000
36.35000 278.000
36.36500 264.000
36.38000 278.000
36.39500 283.000
36.41000 293.000
36.42500 292.000
36.44000 273.000
36.45500 288.000
36.47000 271.000
36.48500 272.000
36.50000 269.000
36.51500 273.000
36.53000 260.000
36.54500 268.000
36.56000 257.000
36.57500 241.000
36.59000 234.000
36.60500 231.000
36.62000 207.000
36.63500 251.000
36.65000 234.000
36.66500 225.000
36.68000 244.000
36.69500 247.000
36.71000 216.000
36.72500 211.000
36.74000 199.000
36.75500 209.000
36.77000 209.000
36.78500 220.000
36.80000 203.000
36.81500 209.000
36.83000 209.000
36.84500 200.000
36.86000 204.000
36.87500 204.000
36.89000 210.000
36.90500 215.000
36.92000 215.000
36.93500 216.000
36.95000 197.000
36.96500 174.000
36.98000 174.000
36.99500 196.000
37.01000 199.000
37.02500 199.000
37.04000 192.000
37.05500 187.000
37.07000 192.000
37.08500 195.000
37.10000 208.000
37.11500 202.000
37.13000 195.000
37.14500 171.000
37.16000 193.000
37.17500 165.000
37.19000 197.000
37.20500 181.000
37.22000 186.000
37.23500 172.000
37.25000 172.000
37.26500 159.000
37.28000 172.000
37.29500 184.000
37.31000 203.000
37.32500 187.000
37.34000 182.000
37.35500 194.000
37.37000 185.000
37.38500 185.000
37.40000 192.000
37.41500 189.000
37.43000 204.000
37.44500 204.000
37.46000 209.000
37.47500 195.000
37.49000 187.000
37.50500 164.000
37.52000 209.000
37.53500 203.000
37.55000 208.000
37.56500 224.000
37.58000 190.000
37.59500 218.000
37.61000 226.000
37.62500 195.000
37.64000 189.000
37.65500 226.000
37.67000 226.000
37.68500 216.000
37.70000 217.000
37.71500 218.000
37.73000 204.000
37.74500 222.000
37.76000 220.000
37.77500 211.000
37.79000 228.000
37.80500 214.000
37.82000 199.000
37.83500 202.000
37.85000 225.000
37.86500 213.000
37.88000 194.000
37.89500 178.000
37.91000 195.000
37.92500 185.000
37.94000 180.000
37.95500 188.000
37.97000 190.000
37.98500 186.000
38.00000 178.000
38.01500 164.000
38.03000 173.000
38.04500 181.000
38.06000 191.000
38.07500 164.000
38.09000 169.000
38.10500 177.000
38.12000 145.000
38.13500 154.000
38.15000 156.000
38.16500 170.000
38.18000 150.000
38.19500 160.000
38.21000 178.000
38.22500 149.000
38.24000 160.000
38.25500 158.000
38.27000 163.000
38.28500 187.000
38.30000 177.000
38.31500 169.000
38.33000 153.000
38.34500 163.000
38.36000 176.000
38.37500 186.000
38.39000 172.000
38.40500 181.000
38.42000 151.000
38.43500 153.000
38.45000 167.000
38.46500 161.000
38.48000 148.000
38.49500 166.000
38.51000 168.000
38.52500 169.000
38.54000 176.000
38.55500 202.000
38.57000 189.000
38.58500 194.000
38.60000 174.000
38.61500 198.000
38.63000 181.000
38.64500 179.000
38.66000 176.000
38.67500 188.000
38.69000 170.000
38.70500 183.000
38.72000 181.000
38.73500 186.000
38.75000 177.000
38.76500 199.000
38.78000 212.000
38.79500 211.000
38.81000 229.000
38.82500 244.000
38.84000 245.000
38.85500 238.000
38.87000 208.000
38.88500 200.000
38.90000 179.000
38.91500 191.000
38.93000 187.000
38.94500 176.000
38.96000 173.000
38.97500 179.000
38.99000 165.000
39.00500 170.000
39.02000 198.000
39.03500 204.000
39.05000 197.000
39.06500 202.000
39.08000 198.000
39.09500 195.000
39.11000 164.000
39.12500 170.000
39.14000 194.000
39.15500 166.000
39.17000 176.000
39.18500 168.000
39.20000 143.000
39.21500 171.000
39.23000 162.000
39.24500 168.000
39.26000 170.000
39.27500 170.000
39.29000 140.000
39.30500 145.000
39.32000 158.000
39.33500 167.000
39.35000 166.000
39.36500 160.000
39.38000 153.000
39.39500 162.000
39.41000 175.000
39.42500 157.000
39.44000 163.000
39.45500 156.000
39.47000 166.000
39.48500 180.000
39.50000 169.000
39.51500 179.000
39.53000 171.000
39.54500 161.000
39.56000 177.000
39.57500 155.000
39.59000 146.000
39.60500 160.000
39.62000 167.000
39.63500 168.000
39.65000 171.000
39.66500 181.000
39.68000 185.000
39.69500 195.000
39.71000 188.000
39.72500 202.000
39.74000 197.000
39.75500 190.000
39.77000 205.000
39.78500 198.000
39.80000 186.000
39.81500 198.000
39.83000 194.000
39.84500 197.000
39.86000 195.000
39.87500 175.000
39.89000 209.000
39.90500 220.000
39.92000 225.000
39.93500 237.000
39.95000 236.000
39.96500 216.000
39.98000 218.000
39.99500 208.000
40.01000 228.000
40.02500 220.000
40.04000 217.000
40.05500 223.000
40.07000 241.000
40.08500 235.000
40.10000 208.000
40.11500 201.000
40.13000 192.000
40.14500 199.000
40.16000 207.000
40.17500 185.000
40.19000 187.000
40.20500 185.000
40.22000 196.000
40.23500 179.000
40.25000 193.000
40.26500 183.000
40.28000 154.000
40.29500 176.000
40.31000 187.000
40.32500 166.000
40.34000 172.000
40.35500 164.000
40.37000 167.000
40.38500 181.000
40.40000 177.000
40.41500 174.000
40.43000 180.000
40.44500 171.000
40.46000 163.000
40.47500 178.000
40.49000 172.000
40.50500 159.000
40.52000 143.000
40.53500 151.000
40.55000 159.000
40.56500 175.000
40.58000 169.000
40.59500 187.000
40.61000 176.000
40.62500 163.000
40.64000 168.000
40.65500 161.000
40.67000 160.000
40.68500 149.000
40.70000 160.000
40.71500 179.000
40.73000 156.000
40.74500 181.000
40.76000 195.000
40.77500 188.000
40.79000 202.000
40.80500 185.000
40.82000 179.000
40.83500 198.000
40.85000 185.000
40.86500 185.000
40.88000 176.000
40.89500 190.000
40.91000 170.000
40.92500 163.000
40.94000 158.000
40.95500 156.000
40.97000 160.000
40.98500 156.000
41.00000 165.000
41.01500 156.000
41.03000 171.000
41.04500 164.000
41.06000 148.000
41.07500 155.000
41.09000 178.000
41.10500 168.000
41.12000 154.000
41.13500 148.000
41.15000 151.000
41.16500 166.000
41.18000 153.000
41.19500 127.000
41.21000 151.000
41.22500 158.000
41.24000 184.000
41.25500 187.000
41.27000 165.000
41.28500 162.000
41.30000 152.000
41.31500 154.000
41.33000 169.000
41.34500 166.000
41.36000 147.000
41.37500 152.000
41.39000 159.000
41.40500 143.000
41.42000 130.000
41.43500 123.000
41.45000 147.000
41.46500 134.000
41.48000 149.000
41.49500 151.000
41.51000 143.000
41.52500 155.000
41.54000 138.000
41.55500 144.000
41.57000 154.000
41.58500 150.000
41.60000 157.000
41.61500 146.000
41.63000 153.000
41.64500 148.000
41.66000 133.000
41.67500 143.000
41.69000 167.000
41.70500 150.000
41.72000 153.000
41.73500 163.000
41.75000 162.000
41.76500 149.000
41.78000 157.000
41.79500 144.000
41.81000 157.000
41.82500 157.000
41.84000 145.000
41.85500 150.000
41.87000 148.000
41.88500 125.000
41.90000 133.000
41.91500 132.000
41.93000 152.000
41.94500 162.000
41.96000 155.000
41.97500 155.000
41.99000 160.000
42.00500 158.000
42.02000 157.000
42.03500 148.000
42.05000 154.000
42.06500 151.000
42.08000 157.000
42.09500 156.000
42.11000 135.000
42.12500 158.000
42.14000 165.000
42.15500 172.000
42.17000 172.000
42.18500 155.000
42.20000 163.000
42.21500 174.000
42.23000 175.000
42.24500 149.000
42.26000 161.000
42.27500 146.000
42.29000 189.000
42.30500 182.000
42.32000 148.000
42.33500 140.000
42.35000 137.000
42.36500 150.000
42.38000 169.000
42.39500 180.000
42.41000 154.000
42.42500 133.000
42.44000 143.000
42.45500 146.000
42.47000 154.000
42.48500 143.000
42.50000 156.000
42.51500 148.000
42.53000 136.000
42.54500 139.000
42.56000 148.000
42.57500 148.000
42.59000 143.000
42.60500 145.000
42.62000 147.000
42.63500 156.000
42.65000 178.000
42.66500 146.000
42.68000 128.000
42.69500 151.000
42.71000 146.000
42.72500 147.000
42.74000 151.000
42.75500 141.000
42.77000 136.000
42.78500 151.000
42.80000 138.000
42.81500 153.000
42.83000 139.000
42.84500 141.000
42.86000 145.000
42.87500 133.000
42.89000 134.000
42.90500 139.000
42.92000 145.000
42.93500 138.000
42.95000 138.000
42.96500 159.000
42.98000 131.000
42.99500 127.000
43.01000 139.000
43.02500 134.000
43.04000 130.000
43.05500 137.000
43.07000 153.000
43.08500 157.000
43.10000 124.000
43.11500 128.000
43.13000 128.000
43.14500 130.000
43.16000 139.000
43.17500 145.000
43.19000 140.000
43.20500 132.000
43.22000 137.000
43.23500 133.000
43.25000 124.000
43.26500 119.000
43.28000 128.000
43.29500 135.000
43.31000 137.000
43.32500 139.000
43.34000 154.000
43.35500 145.000
43.37000 148.000
43.38500 135.000
43.40000 140.000
43.41500 123.000
43.43000 117.000
43.44500 127.000
43.46000 124.000
43.47500 132.000
43.49000 140.000
43.50500 129.000
43.52000 141.000
43.53500 133.000
43.55000 124.000
43.56500 147.000
43.58000 132.000
43.59500 132.000
43.61000 131.000
43.62500 138.000
43.64000 138.000
43.65500 140.000
43.67000 136.000
43.68500 134.000
43.70000 126.000
43.71500 130.000
43.73000 131.000
43.74500 119.000
43.76000 134.000
43.77500 140.000
43.79000 124.000
43.80500 133.000
43.82000 117.000
43.83500 121.000
43.85000 142.000
43.86500 142.000
43.88000 122.000
43.89500 117.000
43.91000 138.000
43.92500 130.000
43.94000 123.000
43.95500 124.000
43.97000 125.000
43.98500 136.000
44.00000 131.000
44.01500 134.000
44.03000 116.000
44.04500 102.000
44.06000 99.000
44.07500 128.000
44.09000 122.000
44.10500 140.000
44.12000 132.000
44.13500 113.000
44.15000 123.000
44.16500 128.000
44.18000 122.000
44.19500 127.000
44.21000 140.000
44.22500 146.000
44.24000 141.000
44.25500 139.000
44.27000 138.000
44.28500 129.000
44.30000 117.000
44.31500 141.000
44.33000 131.000
44.34500 135.000
44.36000 127.000
44.37500 127.000
44.39000 147.000
44.40500 138.000
44.42000 134.000
44.43500 131.000
44.45000 127.000
44.46500 131.000
44.48000 137.000
44.49500 127.000
44.51000 138.000
44.52500 150.000
44.54000 129.000
44.55500 133.000
44.57000 120.000
44.58500 111.000
44.60000 119.000
44.61500 128.000
44.63000 130.000
44.64500 121.000
44.66000 139.000
44.67500 147.000
44.69000 140.000
44.70500 140.000
44.72000 135.000
44.73500 129.000
44.75000 122.000
44.76500 124.000
44.78000 132.000
44.79500 128.000
44.81000 111.000
44.82500 109.000
44.84000 122.000
44.85500 134.000
44.87000 120.000
44.88500 118.000
44.90000 127.000
44.91500 123.000
44.93000 120.000
44.94500 115.000
44.96000 132.000
44.97500 124.000
44.99000 143.000
45.00500 146.000
45.02000 132.000
45.03500 131.000
45.05000 131.000
45.06500 128.000
45.08000 125.000
45.09500 133.000
45.11000 133.000
45.12500 128.000
45.14000 131.000
45.15500 117.000
45.17000 108.000
45.18500 122.000
45.20000 124.000
45.21500 130.000
45.23000 126.000
45.24500 114.000
45.26000 121.000
45.27500 115.000
45.29000 111.000
45.30500 130.000
45.32000 128.000
45.33500 115.000
45.35000 119.000
45.36500 132.000
45.38000 128.000
45.39500 141.000
45.41000 136.000
45.42500 138.000
45.44000 146.000
45.45500 168.000
45.47000 154.000
45.48500 144.000
45.50000 139.000
45.51500 146.000
45.53000 145.000
45.54500 149.000
45.56000 120.000
45.57500 136.000
45.59000 127.000
45.60500 138.000
45.62000 126.000
45.63500 139.000
45.65000 126.000
45.66500 124.000
45.68000 147.000
45.69500 137.000
45.71000 129.000
45.72500 129.000
45.74000 128.000
45.75500 130.000
45.77000 113.000
45.78500 140.000
45.80000 138.000
45.81500 121.000
45.83000 134.000
45.84500 137.000
45.86000 139.000
45.87500 137.000
45.89000 128.000
45.90500 142.000
45.92000 143.000
45.93500 125.000
45.95000 136.000
45.96500 111.000
45.98000 114.000
45.99500 128.000
46.01000 129.000
46.02500 126.000
46.04000 134.000
46.05500 145.000
46.07000 126.000
46.08500 127.000
46.10000 126.000
46.11500 110.000
46.13000 107.000
46.14500 120.000
46.16000 117.000
46.17500 102.000
46.19000 114.000
46.20500 124.000
46.22000 126.000
46.23500 150.000
46.25000 134.000
46.26500 140.000
46.28000 142.000
46.29500 142.000
46.31000 156.000
46.32500 151.000
46.34000 125.000
46.35500 139.000
46.37000 143.000
46.38500 135.000
46.40000 125.000
46.41500 132.000
46.43000 146.000
46.44500 129.000
46.46000 126.000
46.47500 143.000
46.49000 146.000
46.50500 124.000
46.52000 120.000
46.53500 141.000
46.55000 133.000
46.56500 128.000
46.58000 139.000
46.59500 141.000
46.61000 144.000
46.62500 154.000
46.64000 146.000
46.65500 133.000
46.67000 137.000
46.68500 124.000
46.70000 138.000
46.71500 142.000
46.73000 131.000
46.74500 147.000
46.76000 146.000
46.77500 139.000
46.79000 152.000
46.80500 150.000
46.82000 153.000
46.83500 124.000
46.85000 140.000
46.86500 137.000
46.88000 131.000
46.89500 130.000
46.91000 134.000
46.92500 148.000
46.94000 158.000
46.95500 159.000
46.97000 152.000
46.98500 161.000
47.00000 146.000
47.01500 167.000
47.03000 147.000
47.04500 163.000
47.06000 160.000
47.07500 167.000
47.09000 156.000
47.10500 146.000
47.12000 152.000
47.13500 156.000
47.15000 152.000
47.16500 156.000
47.18000 159.000
47.19500 178.000
47.21000 157.000
47.22500 155.000
47.24000 149.000
47.25500 146.000
47.27000 145.000
47.28500 160.000
47.30000 162.000
47.31500 154.000
47.33000 139.000
47.34500 147.000
47.36000 147.000
47.37500 138.000
47.39000 145.000
47.40500 146.000
47.42000 151.000
47.43500 155.000
47.45000 149.000
47.46500 151.000
47.48000 148.000
47.49500 150.000
47.51000 154.000
47.52500 155.000
47.54000 147.000
47.55500 135.000
47.57000 145.000
47.58500 139.000
47.60000 138.000
47.61500 142.000
47.63000 120.000
47.64500 136.000
47.66000 143.000
47.67500 158.000
47.69000 154.000
47.70500 146.000
47.72000 139.000
47.73500 172.000
47.75000 164.000
47.76500 169.000
47.78000 162.000
47.79500 150.000
47.81000 153.000
47.82500 147.000
47.84000 139.000
47.85500 148.000
47.87000 159.000
47.88500 142.000
47.90000 149.000
47.91500 146.000
47.93000 148.000
47.94500 150.000
47.96000 158.000
47.97500 142.000
47.99000 131.000
48.00500 159.000
48.02000 144.000
48.03500 124.000
48.05000 134.000
48.06500 131.000
48.08000 130.000
48.09500 123.000
48.11000 127.000
48.12500 131.000
48.14000 136.000
48.15500 127.000
48.17000 127.000
48.18500 127.000
48.20000 118.000
48.21500 120.000
48.23000 123.000
48.24500 120.000
48.26000 122.000
48.27500 130.000
48.29000 135.000
48.30500 118.000
48.32000 131.000
48.33500 125.000
48.35000 133.000
48.36500 137.000
48.38000 146.000
48.39500 141.000
48.41000 133.000
48.42500 136.000
48.44000 143.000
48.45500 153.000
48.47000 146.000
48.48500 143.000
48.50000 147.000
48.51500 149.000
48.53000 129.000
48.54500 120.000
48.56000 139.000
48.57500 120.000
48.59000 117.000
48.60500 132.000
48.62000 130.000
48.63500 152.000
48.65000 120.000
48.66500 121.000
48.68000 119.000
48.69500 131.000
48.71000 128.000
48.72500 129.000
48.74000 126.000
48.75500 143.000
48.77000 123.000
48.78500 145.000
48.80000 130.000
48.81500 134.000
48.83000 139.000
48.84500 142.000
48.86000 118.000
48.87500 128.000
48.89000 113.000
48.90500 120.000
48.92000 136.000
48.93500 125.000
48.95000 142.000
48.96500 141.000
48.98000 125.000
48.99500 125.000
49.01000 132.000
49.02500 146.000
49.04000 156.000
49.05500 143.000
49.07000 138.000
49.08500 145.000
49.10000 140.000
49.11500 144.000
49.13000 148.000
49.14500 146.000
49.16000 134.000
49.17500 143.000
49.19000 143.000
49.20500 123.000
49.22000 131.000
49.23500 135.000
49.25000 128.000
49.26500 132.000
49.28000 134.000
49.29500 147.000
49.31000 140.000
49.32500 157.000
49.34000 157.000
49.35500 152.000
49.37000 126.000
49.38500 138.000
49.40000 126.000
49.41500 144.000
49.43000 142.000
49.44500 135.000
49.46000 136.000
49.47500 128.000
49.49000 136.000
49.50500 138.000
49.52000 129.000
49.53500 141.000
49.55000 150.000
49.56500 128.000
49.58000 119.000
49.59500 137.000
49.61000 143.000
49.62500 136.000
49.64000 152.000
49.65500 142.000
49.67000 136.000
49.68500 133.000
49.70000 133.000
49.71500 146.000
49.73000 148.000
49.74500 152.000
49.76000 142.000
49.77500 134.000
49.79000 146.000
49.80500 139.000
49.82000 163.000
49.83500 149.000
49.85000 145.000
49.86500 150.000
49.88000 155.000
49.89500 144.000
49.91000 149.000
49.92500 130.000
49.94000 131.000
49.95500 156.000
49.97000 159.000
49.98500 135.000
50.00000 141.000
50.01500 142.000
50.03000 130.000
50.04500 150.000
50.06000 158.000
50.07500 142.000
50.09000 157.000
50.10500 138.000
50.12000 143.000
50.13500 134.000
50.15000 147.000
50.16500 135.000
50.18000 150.000
50.19500 149.000
50.21000 145.000
50.22500 142.000
50.24000 154.000
50.25500 148.000
50.27000 136.000
50.28500 146.000
50.30000 154.000
50.31500 144.000
50.33000 141.000
50.34500 138.000
50.36000 142.000
50.37500 140.000
50.39000 126.000
50.40500 160.000
50.42000 149.000
50.43500 145.000
50.45000 143.000
50.46500 128.000
50.48000 136.000
50.49500 141.000
50.51000 146.000
50.52500 126.000
50.54000 154.000
50.55500 143.000
50.57000 125.000
50.58500 117.000
50.60000 145.000
50.61500 137.000
50.63000 136.000
50.64500 128.000
50.66000 124.000
50.67500 121.000
50.69000 133.000
50.70500 133.000
50.72000 152.000
50.73500 146.000
50.75000 148.000
50.76500 138.000
50.78000 143.000
50.79500 132.000
50.81000 135.000
50.82500 121.000
50.84000 137.000
50.85500 140.000
50.87000 135.000
50.88500 140.000
50.90000 134.000
50.91500 131.000
50.93000 127.000
50.94500 121.000
50.96000 129.000
50.97500 119.000
50.99000 134.000
51.00500 163.000
51.02000 137.000
51.03500 154.000
51.05000 123.000
51.06500 129.000
51.08000 139.000
51.09500 123.000
51.11000 123.000
51.12500 118.000
51.14000 135.000
51.15500 143.000
51.17000 135.000
51.18500 124.000
51.20000 128.000
51.21500 125.000
51.23000 136.000
51.24500 117.000
51.26000 128.000
51.27500 123.000
51.29000 118.000
51.30500 115.000
51.32000 133.000
51.33500 136.000
51.35000 138.000
51.36500 130.000
51.38000 122.000
51.39500 125.000
51.41000 121.000
51.42500 123.000
51.44000 121.000
51.45500 123.000
51.47000 120.000
51.48500 123.000
51.50000 132.000
51.51500 129.000
51.53000 121.000
51.54500 126.000
51.56000 117.000
51.57500 128.000
51.59000 125.000
51.60500 113.000
51.62000 108.000
51.63500 127.000
51.65000 120.000
51.66500 123.000
51.68000 120.000
51.69500 131.000
51.71000 136.000
51.72500 148.000
51.74000 133.000
51.75500 143.000
51.77000 116.000
51.78500 126.000
51.80000 142.000
51.81500 120.000
51.83000 111.000
51.84500 118.000
51.86000 119.000
51.87500 119.000
51.89000 131.000
51.90500 130.000
51.92000 115.000
51.93500 116.000
51.95000 124.000
51.96500 111.000
51.98000 115.000
51.99500 137.000
52.01000 118.000
52.02500 126.000
52.04000 139.000
52.05500 127.000
52.07000 144.000
52.08500 131.000
52.10000 120.000
52.11500 111.000
52.13000 122.000
52.14500 126.000
52.16000 138.000
52.17500 132.000
52.19000 114.000
52.20500 120.000
52.22000 122.000
52.23500 128.000
52.25000 115.000
52.26500 126.000
52.28000 149.000
52.29500 143.000
52.31000 135.000
52.32500 138.000
52.34000 148.000
52.35500 130.000
52.37000 132.000
52.38500 132.000
52.40000 124.000
52.41500 119.000
52.43000 117.000
52.44500 125.000
52.46000 112.000
52.47500 117.000
52.49000 114.000
52.50500 119.000
52.52000 127.000
52.53500 127.000
52.55000 112.000
52.56500 116.000
52.58000 120.000
52.59500 113.000
52.61000 114.000
52.62500 138.000
52.64000 108.000
52.65500 111.000
52.67000 121.000
52.68500 129.000
52.70000 129.000
52.71500 120.000
52.73000 104.000
52.74500 111.000
52.76000 125.000
52.77500 134.000
52.79000 140.000
52.80500 130.000
52.82000 135.000
52.83500 136.000
52.85000 136.000
52.86500 139.000
52.88000 118.000
52.89500 125.000
52.91000 129.000
52.92500 117.000
52.94000 125.000
52.95500 124.000
52.97000 139.000
52.98500 126.000
53.00000 135.000
53.01500 127.000
53.03000 123.000
53.04500 117.000
53.06000 105.000
53.07500 126.000
53.09000 120.000
53.10500 115.000
53.12000 122.000
53.13500 123.000
53.15000 136.000
53.16500 142.000
53.18000 122.000
53.19500 131.000
53.21000 131.000
53.22500 130.000
53.24000 124.000
53.25500 116.000
53.27000 138.000
53.28500 118.000
53.30000 116.000
53.31500 119.000
53.33000 150.000
53.34500 136.000
53.36000 137.000
53.37500 124.000
53.39000 135.000
53.40500 151.000
53.42000 135.000
53.43500 124.000
53.45000 138.000
53.46500 153.000
53.48000 151.000
53.49500 151.000
53.51000 133.000
53.52500 129.000
53.54000 140.000
53.55500 121.000
53.57000 113.000
53.58500 128.000
53.60000 129.000
53.61500 142.000
53.63000 143.000
53.64500 139.000
53.66000 132.000
53.67500 132.000
53.69000 134.000
53.70500 151.000
53.72000 145.000
53.73500 144.000
53.75000 138.000
53.76500 129.000
53.78000 137.000
53.79500 137.000
53.81000 125.000
53.82500 113.000
53.84000 126.000
53.85500 143.000
53.87000 129.000
53.88500 131.000
53.90000 146.000
53.91500 126.000
53.93000 133.000
53.94500 149.000
53.96000 168.000
53.97500 167.000
53.99000 160.000
54.00500 156.000
54.02000 164.000
54.03500 158.000
54.05000 155.000
54.06500 136.000
54.08000 144.000
54.09500 131.000
54.11000 143.000
54.12500 145.000
54.14000 150.000
54.15500 143.000
54.17000 163.000
54.18500 165.000
54.20000 141.000
54.21500 134.000
54.23000 143.000
54.24500 127.000
54.26000 130.000
54.27500 149.000
54.29000 117.000
54.30500 131.000
54.32000 140.000
54.33500 134.000
54.35000 134.000
54.36500 134.000
54.38000 117.000
54.39500 128.000
54.41000 148.000
54.42500 135.000
54.44000 129.000
54.45500 128.000
54.47000 127.000
54.48500 132.000
54.50000 137.000
54.51500 143.000
54.53000 134.000
54.54500 130.000
54.56000 124.000
54.57500 119.000
54.59000 138.000
54.60500 158.000
54.62000 141.000
54.63500 120.000
54.65000 138.000
54.66500 144.000
54.68000 139.000
54.69500 147.000
54.71000 137.000
54.72500 127.000
54.74000 133.000
54.75500 140.000
54.77000 135.000
54.78500 154.000
54.80000 155.000
54.81500 150.000
54.83000 139.000
54.84500 146.000
54.86000 151.000
54.87500 136.000
54.89000 151.000
54.90500 164.000
54.92000 148.000
54.93500 150.000
54.95000 133.000
54.96500 155.000
54.98000 139.000
54.99500 133.000
55.01000 144.000
55.02500 144.000
55.04000 153.000
55.05500 158.000
55.07000 144.000
55.08500 136.000
55.10000 161.000
55.11500 161.000
55.13000 144.000
55.14500 146.000
55.16000 151.000
55.17500 135.000
55.19000 137.000
55.20500 145.000
55.22000 133.000
55.23500 122.000
55.25000 121.000
55.26500 134.000
55.28000 150.000
55.29500 126.000
55.31000 141.000
55.32500 133.000
55.34000 130.000
55.35500 151.000
55.37000 145.000
55.38500 122.000
55.40000 144.000
55.41500 129.000
55.43000 133.000
55.44500 123.000
55.46000 128.000
55.47500 130.000
55.49000 132.000
55.50500 126.000
55.52000 144.000
55.53500 150.000
55.55000 127.000
55.56500 114.000
55.58000 126.000
55.59500 135.000
55.61000 132.000
55.62500 127.000
55.64000 141.000
55.65500 139.000
55.67000 136.000
55.68500 145.000
55.70000 140.000
55.71500 161.000
55.73000 164.000
55.74500 144.000
55.76000 141.000
55.77500 140.000
55.79000 150.000
55.80500 152.000
55.82000 163.000
55.83500 165.000
55.85000 158.000
55.86500 120.000
55.88000 126.000
55.89500 142.000
55.91000 145.000
55.92500 162.000
55.94000 153.000
55.95500 126.000
55.97000 128.000
55.98500 136.000
56.00000 152.000
56.01500 129.000
56.03000 139.000
56.04500 138.000
56.06000 150.000
56.07500 151.000
56.09000 141.000
56.10500 105.000
56.12000 112.000
56.13500 131.000
56.15000 140.000
56.16500 128.000
56.18000 136.000
56.19500 138.000
56.21000 149.000
56.22500 144.000
56.24000 122.000
56.25500 103.000
56.27000 107.000
56.28500 120.000
56.30000 121.000
56.31500 119.000
56.33000 130.000
56.34500 119.000
56.36000 130.000
56.37500 114.000
56.39000 127.000
56.40500 131.000
56.42000 117.000
56.43500 112.000
56.45000 105.000
56.46500 120.000
56.48000 134.000
56.49500 122.000
56.51000 126.000
56.52500 137.000
56.54000 137.000
56.55500 139.000
56.57000 120.000
56.58500 115.000
56.60000 114.000
56.61500 113.000
56.63000 141.000
56.64500 123.000
56.66000 111.000
56.67500 102.000
56.69000 102.000
56.70500 127.000
56.72000 129.000
56.73500 115.000
56.75000 116.000
56.76500 111.000
56.78000 117.000
56.79500 117.000
56.81000 132.000
56.82500 114.000
56.84000 125.000
56.85500 140.000
56.87000 115.000
56.88500 124.000
56.90000 111.000
56.91500 121.000
56.93000 108.000
56.94500 119.000
56.96000 133.000
56.97500 133.000
56.99000 97.000
57.00500 114.000
57.02000 106.000
57.03500 125.000
57.05000 123.000
57.06500 105.000
57.08000 101.000
57.09500 100.000
57.11000 95.000
57.12500 112.000
57.14000 112.000
57.15500 114.000
57.17000 112.000
57.18500 108.000
57.20000 119.000
57.21500 100.000
57.23000 114.000
57.24500 97.000
57.26000 116.000
57.27500 116.000
57.29000 118.000
57.30500 109.000
57.32000 119.000
57.33500 124.000
57.35000 113.000
57.36500 114.000
57.38000 103.000
57.39500 115.000
57.41000 119.000
57.42500 97.000
57.44000 115.000
57.45500 112.000
57.47000 99.000
57.48500 104.000
57.50000 104.000
57.51500 104.000
57.53000 100.000
57.54500 106.000
57.56000 107.000
57.57500 114.000
57.59000 106.000
57.60500 129.000
57.62000 131.000
57.63500 119.000
57.65000 96.000
57.66500 99.000
57.68000 117.000
57.69500 124.000
57.71000 105.000
57.72500 128.000
57.74000 135.000
57.75500 108.000
57.77000 116.000
57.78500 117.000
57.80000 110.000
57.81500 112.000
57.83000 112.000
57.84500 110.000
57.86000 111.000
57.87500 112.000
57.89000 108.000
57.90500 119.000
57.92000 125.000
57.93500 129.000
57.95000 114.000
57.96500 100.000
57.98000 123.000
57.99500 122.000
58.01000 122.000
58.02500 128.000
58.04000 124.000
58.05500 119.000
58.07000 125.000
58.08500 123.000
58.10000 112.000
58.11500 114.000
58.13000 122.000
58.14500 111.000
58.16000 113.000
58.17500 128.000
58.19000 124.000
58.20500 117.000
58.22000 111.000
58.23500 128.000
58.25000 115.000
58.26500 118.000
58.28000 106.000
58.29500 118.000
58.31000 113.000
58.32500 111.000
58.34000 115.000
58.35500 104.000
58.37000 104.000
58.38500 120.000
58.40000 115.000
58.41500 122.000
58.43000 107.000
58.44500 121.000
58.46000 152.000
58.47500 120.000
58.49000 123.000
58.50500 121.000
58.52000 134.000
58.53500 127.000
58.55000 115.000
58.56500 110.000
58.58000 128.000
58.59500 122.000
58.61000 124.000
58.62500 124.000
58.64000 101.000
58.65500 108.000
58.67000 130.000
58.68500 119.000
58.70000 128.000
58.71500 129.000
58.73000 113.000
58.74500 111.000
58.76000 111.000
58.77500 105.000
58.79000 104.000
58.80500 131.000
58.82000 123.000
58.83500 107.000
58.85000 111.000
58.86500 113.000
58.88000 110.000
58.89500 110.000
58.91000 109.000
58.92500 101.000
58.94000 110.000
58.95500 115.000
58.97000 96.000
58.98500 114.000
59.00000 119.000
59.01500 96.000
59.03000 122.000
59.04500 117.000
59.06000 118.000
59.07500 101.000
59.09000 109.000
59.10500 116.000
59.12000 114.000
59.13500 96.000
59.15000 110.000
59.16500 108.000
59.18000 108.000
59.19500 93.000
59.21000 89.000
59.22500 115.000
59.24000 107.000
59.25500 111.000
59.27000 111.000
59.28500 123.000
59.30000 98.000
59.31500 109.000
59.33000 101.000
59.34500 109.000
59.36000 106.000
59.37500 98.000
59.39000 103.000
59.40500 107.000
59.42000 115.000
59.43500 111.000
59.45000 114.000
59.46500 106.000
59.48000 108.000
59.49500 110.000
59.51000 103.000
59.52500 114.000
59.54000 110.000
59.55500 98.000
59.57000 110.000
59.58500 129.000
59.60000 107.000
59.61500 108.000
59.63000 108.000
59.64500 120.000
59.66000 109.000
59.67500 126.000
59.69000 110.000
59.70500 114.000
59.72000 110.000
59.73500 107.000
59.75000 104.000
59.76500 121.000
59.78000 113.000
59.79500 109.000
59.81000 109.000
59.82500 103.000
59.84000 115.000
59.85500 119.000
59.87000 125.000
59.88500 101.000
59.90000 103.000
59.91500 116.000
59.93000 95.000
59.94500 90.000
59.96000 105.000
59.97500 110.000
59.99000 106.000
60.00500 100.000
60.02000 107.000
60.03500 96.000
60.05000 84.000
60.06500 103.000
60.08000 110.000
60.09500 113.000
60.11000 104.000
60.12500 118.000
60.14000 119.000
60.15500 111.000
60.17000 92.000
60.18500 110.000
60.20000 113.000
60.21500 110.000
60.23000 109.000
60.24500 94.000
60.26000 107.000
60.27500 110.000
60.29000 109.000
60.30500 109.000
60.32000 113.000
60.33500 104.000
60.35000 98.000
60.36500 108.000
60.38000 98.000
60.39500 114.000
60.41000 106.000
60.42500 103.000
60.44000 100.000
60.45500 104.000
60.47000 116.000
60.48500 111.000
60.50000 104.000
60.51500 102.000
60.53000 111.000
60.54500 106.000
60.56000 103.000
60.57500 112.000
60.59000 103.000
60.60500 94.000
60.62000 106.000
60.63500 104.000
60.65000 104.000
60.66500 107.000
60.68000 93.000
60.69500 114.000
60.71000 105.000
60.72500 101.000
60.74000 111.000
60.75500 108.000
60.77000 97.000
60.78500 104.000
60.80000 100.000
60.81500 101.000
60.83000 92.000
60.84500 93.000
60.86000 92.000
60.87500 103.000
60.89000 97.000
60.90500 90.000
60.92000 107.000
60.93500 90.000
60.95000 101.000
60.96500 102.000
60.98000 100.000
60.99500 94.000
61.01000 108.000
61.02500 123.000
61.04000 113.000
61.05500 103.000
61.07000 108.000
61.08500 98.000
61.10000 109.000
61.11500 120.000
61.13000 104.000
61.14500 97.000
61.16000 101.000
61.17500 107.000
61.19000 103.000
61.20500 99.000
61.22000 101.000
61.23500 99.000
61.25000 89.000
61.26500 100.000
61.28000 111.000
61.29500 98.000
61.31000 104.000
61.32500 106.000
61.34000 93.000
61.35500 84.000
61.37000 99.000
61.38500 100.000
61.40000 109.000
61.41500 94.000
61.43000 91.000
61.44500 104.000
61.46000 105.000
61.47500 125.000
61.49000 101.000
61.50500 94.000
61.52000 99.000
61.53500 98.000
61.55000 101.000
61.56500 106.000
61.58000 116.000
61.59500 109.000
61.61000 99.000
61.62500 94.000
61.64000 91.000
61.65500 102.000
61.67000 119.000
61.68500 109.000
61.70000 99.000
61.71500 92.000
61.73000 93.000
61.74500 113.000
61.76000 121.000
61.77500 111.000
61.79000 96.000
61.80500 99.000
61.82000 112.000
61.83500 98.000
61.85000 100.000
61.86500 89.000
61.88000 94.000
61.89500 104.000
61.91000 106.000
61.92500 102.000
61.94000 106.000
61.95500 105.000
61.97000 96.000
61.98500 103.000
