2.00000 6.000
2.01500 2.000
2.03000 2.000
2.04500 3.000
2.06000 5.000
2.07500 2.000
2.09000 2.000
2.10500 2.000
2.12000 2.000
2.13500 4.000
2.15000 2.000
2.16500 2.000
2.18000 1.000
2.19500 4.000
2.21000 4.000
2.22500 6.000
2.24000 4.000
2.25500 4.000
2.27000 3.000
2.28500 2.000
2.30000 5.000
2.31500 2.000
2.33000 3.000
2.34500 4.000
2.36000 2.000
2.37500 1.000
2.39000 3.000
2.40500 2.000
2.42000 0.000
2.43500 2.000
2.45000 4.000
2.46500 5.000
2.48000 4.000
2.49500 3.000
2.51000 3.000
2.52500 1.000
2.54000 2.000
2.55500 0.000
2.57000 2.000
2.58500 2.000
2.60000 2.000
2.61500 2.000
2.63000 1.000
2.64500 3.000
2.66000 4.000
2.67500 2.000
2.69000 1.000
2.70500 2.000
2.72000 3.000
2.73500 4.000
2.75000 2.000
2.76500 3.000
2.78000 2.000
2.79500 3.000
2.81000 1.000
2.82500 2.000
2.84000 1.000
2.85500 1.000
2.87000 2.000
2.88500 4.000
2.90000 3.000
2.91500 3.000
2.93000 2.000
2.94500 3.000
2.96000 5.000
2.97500 7.000
2.99000 4.000
3.00500 6.000
3.02000 3.000
3.03500 5.000
3.05000 4.000
3.06500 2.000
3.08000 2.000
3.09500 2.000
3.11000 3.000
3.12500 3.000
3.14000 8.000
3.15500 6.000
3.17000 7.000
3.18500 6.000
3.20000 10.000
3.21500 19.000
3.23000 23.000
3.24500 26.000
3.26000 55.000
3.27500 65.000
3.29000 82.000
3.30500 92.000
3.32000 126.000
3.33500 153.000
3.35000 154.000
3.36500 168.000
3.38000 168.000
3.39500 177.000
3.41000 191.000
3.42500 207.000
3.44000 173.000
3.45500 168.000
3.47000 164.000
3.48500 180.000
3.50000 185.000
3.51500 186.000
3.53000 178.000
3.54500 179.000
3.56000 165.000
3.57500 170.000
3.59000 172.000
3.60500 176.000
3.62000 194.000
3.63500 170.000
3.65000 182.000
3.66500 200.000
3.68000 177.000
3.69500 186.000
3.71000 188.000
3.72500 172.000
3.74000 155.000
3.75500 169.000
3.77000 183.000
3.78500 184.000
3.80000 184.000
3.81500 201.000
3.83000 179.000
3.84500 176.000
3.86000 194.000
3.87500 189.000
3.89000 165.000
3.90500 195.000
3.92000 181.000
3.93500 175.000
3.95000 181.000
3.96500 167.000
3.98000 182.000
3.99500 179.000
4.01000 172.000
4.02500 179.000
4.04000 187.000
4.05500 183.000
4.07000 184.000
4.08500 167.000
4.10000 185.000
4.11500 182.000
4.13000 194.000
4.14500 183.000
4.16000 196.000
4.17500 195.000
4.19000 180.000
4.20500 201.000
4.22000 201.000
4.23500 184.000
4.25000 198.000
4.26500 200.000
4.28000 205.000
4.29500 208.000
4.31000 209.000
4.32500 199.000
4.34000 213.000
4.35500 195.000
4.37000 195.000
4.38500 192.000
4.40000 196.000
4.41500 196.000
4.43000 204.000
4.44500 188.000
4.46000 207.000
4.47500 196.000
4.49000 174.000
4.50500 190.000
4.52000 214.000
4.53500 208.000
4.55000 191.000
4.56500 198.000
4.58000 196.000
4.59500 206.000
4.61000 189.000
4.62500 206.000
4.64000 223.000
4.65500 199.000
4.67000 199.000
4.68500 228.000
4.70000 213.000
4.71500 219.000
4.73000 201.000
4.74500 169.000
4.76000 204.000
4.77500 187.000
4.79000 189.000
4.80500 191.000
4.82000 205.000
4.83500 210.000
4.85000 251.000
4.86500 218.000
4.88000 218.000
4.89500 203.000
4.91000 195.000
4.92500 225.000
4.94000 215.000
4.95500 209.000
4.97000 216.000
4.98500 212.000
5.00000 207.000
5.01500 246.000
5.03000 223.000
5.04500 222.000
5.06000 230.000
5.07500 209.000
5.09000 207.000
5.10500 225.000
5.12000 231.000
5.13500 237.000
5.15000 231.000
5.16500 238.000
5.18000 237.000
5.19500 229.000
5.21000 240.000
5.22500 242.000
5.24000 232.000
5.25500 251.000
5.27000 231.000
5.28500 233.000
5.30000 217.000
5.31500 226.000
5.33000 206.000
5.34500 218.000
5.36000 216.000
5.37500 224.000
5.39000 222.000
5.40500 208.000
5.42000 207.000
5.43500 240.000
5.45000 223.000
5.46500 232.000
5.48000 250.000
5.49500 218.000
5.51000 239.000
5.52500 234.000
5.54000 239.000
5.55500 264.000
5.57000 223.000
5.58500 224.000
5.60000 250.000
5.61500 264.000
5.63000 252.000
5.64500 252.000
5.66000 231.000
5.67500 230.000
5.69000 217.000
5.70500 244.000
5.72000 254.000
5.73500 238.000
5.75000 218.000
5.76500 226.000
5.78000 219.000
5.79500 211.000
5.81000 247.000
5.82500 267.000
5.84000 251.000
5.85500 234.000
5.87000 260.000
5.88500 253.000
5.90000 237.000
5.91500 258.000
5.93000 241.000
5.94500 234.000
5.96000 241.000
5.97500 260.000
5.99000 257.000
6.00500 261.000
6.02000 258.000
6.03500 253.000
6.05000 243.000
6.06500 235.000
6.08000 238.000
6.09500 235.000
6.11000 243.000
6.12500 260.000
6.14000 248.000
6.15500 242.000
6.17000 250.000
6.18500 226.000
6.20000 237.000
6.21500 235.000
6.23000 233.000
6.24500 240.000
6.26000 248.000
6.27500 269.000
6.29000 250.000
6.30500 244.000
6.32000 276.000
6.33500 272.000
6.35000 251.000
6.36500 238.000
6.38000 246.000
6.39500 248.000
6.41000 245.000
6.42500 250.000
6.44000 257.000
6.45500 250.000
6.47000 259.000
6.48500 230.000
6.50000 228.000
6.51500 225.000
6.53000 246.000
6.54500 263.000
6.56000 247.000
6.57500 249.000
6.59000 261.000
6.60500 264.000
6.62000 267.000
6.63500 252.000
6.65000 262.000
6.66500 272.000
6.68000 273.000
6.69500 272.000
6.71000 272.000
6.72500 270.000
6.74000 260.000
6.75500 257.000
6.77000 259.000
6.78500 263.000
6.80000 289.000
6.81500 286.000
6.83000 282.000
6.84500 278.000
6.86000 259.000
6.87500 267.000
6.89000 275.000
6.90500 267.000
6.92000 256.000
6.93500 288.000
6.95000 251.000
6.96500 261.000
6.98000 252.000
6.99500 249.000
7.01000 256.000
7.02500 280.000
7.04000 259.000
7.05500 271.000
7.07000 270.000
7.08500 257.000
7.10000 282.000
7.11500 277.000
7.13000 277.000
7.14500 241.000
7.16000 253.000
7.17500 271.000
7.19000 265.000
7.20500 281.000
7.22000 279.000
7.23500 268.000
7.25000 269.000
7.26500 276.000
7.28000 254.000
7.29500 256.000
7.31000 262.000
7.32500 282.000
7.34000 304.000
7.35500 296.000
7.37000 290.000
7.38500 275.000
7.40000 266.000
7.41500 286.000
7.43000 261.000
7.44500 282.000
7.46000 283.000
7.47500 264.000
7.49000 264.000
7.50500 277.000
7.52000 273.000
7.53500 261.000
7.55000 282.000
7.56500 294.000
7.58000 288.000
7.59500 289.000
7.61000 274.000
7.62500 262.000
7.64000 254.000
7.65500 284.000
7.67000 285.000
7.68500 268.000
7.70000 250.000
7.71500 277.000
7.73000 262.000
7.74500 274.000
7.76000 287.000
7.77500 276.000
7.79000 277.000
7.80500 285.000
7.82000 287.000
7.83500 288.000
7.85000 297.000
7.86500 281.000
7.88000 289.000
7.89500 261.000
7.91000 300.000
7.92500 286.000
7.94000 275.000
7.95500 286.000
7.97000 284.000
7.98500 288.000
8.00000 287.000
8.01500 280.000
8.03000 295.000
8.04500 287.000
8.06000 295.000
8.07500 253.000
8.09000 288.000
8.10500 265.000
8.12000 297.000
8.13500 309.000
8.15000 300.000
8.16500 257.000
8.18000 278.000
8.19500 282.000
8.21000 301.000
8.22500 293.000
8.24000 265.000
8.25500 273.000
8.27000 259.000
8.28500 267.000
8.30000 280.000
8.31500 297.000
8.33000 295.000
8.34500 268.000
8.36000 277.000
8.37500 299.000
8.39000 296.000
8.40500 286.000
8.42000 291.000
8.43500 286.000
8.45000 302.000
8.46500 294.000
8.48000 310.000
8.49500 339.000
8.51000 312.000
8.52500 315.000
8.54000 297.000
8.55500 305.000
8.57000 290.000
8.58500 299.000
8.60000 287.000
8.61500 301.000
8.63000 305.000
8.64500 297.000
8.66000 297.000
8.67500 297.000
8.69000 299.000
8.70500 297.000
8.72000 285.000
8.73500 286.000
8.75000 274.000
8.76500 292.000
8.78000 312.000
8.79500 291.000
8.81000 283.000
8.82500 269.000
8.84000 303.000
8.85500 300.000
8.87000 310.000
8.88500 291.000
8.90000 312.000
8.91500 310.000
8.93000 300.000
8.94500 286.000
8.96000 305.000
8.97500 282.000
8.99000 301.000
9.00500 310.000
9.02000 294.000
9.03500 319.000
9.05000 341.000
9.06500 326.000
9.08000 318.000
9.09500 298.000
9.11000 308.000
9.12500 315.000
9.14000 294.000
9.15500 316.000
9.17000 325.000
9.18500 292.000
9.20000 298.000
9.21500 288.000
9.23000 309.000
9.24500 293.000
9.26000 315.000
9.27500 307.000
9.29000 335.000
9.30500 329.000
9.32000 285.000
9.33500 314.000
9.35000 308.000
9.36500 289.000
9.38000 323.000
9.39500 299.000
9.41000 301.000
9.42500 296.000
9.44000 316.000
9.45500 312.000
9.47000 314.000
9.48500 300.000
9.50000 322.000
9.51500 312.000
9.53000 282.000
9.54500 312.000
9.56000 318.000
9.57500 301.000
9.59000 309.000
9.60500 327.000
9.62000 296.000
9.63500 299.000
9.65000 323.000
9.66500 288.000
9.68000 298.000
9.69500 314.000
9.71000 302.000
9.72500 312.000
9.74000 321.000
9.75500 295.000
9.77000 284.000
9.78500 296.000
9.80000 307.000
9.81500 297.000
9.83000 279.000
9.84500 312.000
9.86000 292.000
9.87500 300.000
9.89000 325.000
9.90500 335.000
9.92000 318.000
9.93500 297.000
9.95000 295.000
9.96500 317.000
9.98000 342.000
9.99500 302.000
10.01000 304.000
10.02500 310.000
10.04000 326.000
10.05500 336.000
10.07000 335.000
10.08500 323.000
10.10000 304.000
10.11500 308.000
10.13000 322.000
10.14500 321.000
10.16000 304.000
10.17500 299.000
10.19000 325.000
10.20500 304.000
10.22000 298.000
10.23500 325.000
10.25000 315.000
10.26500 318.000
10.28000 313.000
10.29500 298.000
10.31000 305.000
10.32500 296.000
10.34000 310.000
10.35500 345.000
10.37000 314.000
10.38500 319.000
10.40000 296.000
10.41500 287.000
10.43000 293.000
10.44500 306.000
10.46000 343.000
10.47500 364.000
10.49000 342.000
10.50500 346.000
10.52000 333.000
10.53500 333.000
10.55000 303.000
10.56500 299.000
10.58000 307.000
10.59500 320.000
10.61000 310.000
10.62500 287.000
10.64000 310.000
10.65500 291.000
10.67000 324.000
10.68500 308.000
10.70000 299.000
10.71500 307.000
10.73000 301.000
10.74500 313.000
10.76000 313.000
10.77500 322.000
10.79000 310.000
10.80500 308.000
10.82000 296.000
10.83500 301.000
10.85000 304.000
10.86500 296.000
10.88000 311.000
10.89500 303.000
10.91000 310.000
10.92500 320.000
10.94000 304.000
10.95500 313.000
10.97000 308.000
10.98500 323.000
11.00000 315.000
11.01500 345.000
11.03000 337.000
11.04500 343.000
11.06000 317.000
11.07500 311.000
11.09000 307.000
11.10500 299.000
11.12000 316.000
11.13500 333.000
11.15000 310.000
11.16500 315.000
11.18000 306.000
11.19500 306.000
11.21000 333.000
11.22500 316.000
11.24000 283.000
11.25500 312.000
11.27000 316.000
11.28500 313.000
11.30000 334.000
11.31500 331.000
11.33000 313.000
11.34500 300.000
11.36000 323.000
11.37500 313.000
11.39000 304.000
11.40500 306.000
11.42000 320.000
11.43500 301.000
11.45000 318.000
11.46500 332.000
11.48000 305.000
11.49500 302.000
11.51000 327.000
11.52500 325.000
11.54000 304.000
11.55500 304.000
11.57000 349.000
11.58500 316.000
11.60000 337.000
11.61500 313.000
11.63000 323.000
11.64500 315.000
11.66000 354.000
11.67500 312.000
11.69000 351.000
11.70500 305.000
11.72000 306.000
11.73500 334.000
11.75000 310.000
11.76500 346.000
11.78000 321.000
11.79500 334.000
11.81000 332.000
11.82500 330.000
11.84000 333.000
11.85500 312.000
11.87000 307.000
11.88500 313.000
11.90000 313.000
11.91500 317.000
11.93000 300.000
11.94500 306.000
11.96000 308.000
11.97500 325.000
11.99000 329.000
12.00500 320.000
12.02000 314.000
12.03500 290.000
12.05000 304.000
12.06500 318.000
12.08000 299.000
12.09500 326.000
12.11000 328.000
12.12500 309.000
12.14000 312.000
12.15500 311.000
12.17000 317.000
12.18500 323.000
12.20000 321.000
12.21500 329.000
12.23000 317.000
12.24500 319.000
12.26000 322.000
12.27500 315.000
12.29000 309.000
12.30500 329.000
12.32000 372.000
12.33500 341.000
12.35000 352.000
12.36500 322.000
12.38000 328.000
12.39500 288.000
12.41000 326.000
12.42500 316.000
12.44000 317.000
12.45500 321.000
12.47000 337.000
12.48500 316.000
12.50000 322.000
12.51500 326.000
12.53000 321.000
12.54500 311.000
12.56000 325.000
12.57500 303.000
12.59000 306.000
12.60500 321.000
12.62000 316.000
12.63500 326.000
12.65000 330.000
12.66500 328.000
12.68000 305.000
12.69500 328.000
12.71000 312.000
12.72500 314.000
12.74000 302.000
12.75500 335.000
12.77000 313.000
12.78500 316.000
12.80000 326.000
12.81500 312.000
12.83000 356.000
12.84500 327.000
12.86000 307.000
12.87500 310.000
12.89000 329.000
12.90500 327.000
12.92000 334.000
12.93500 333.000
12.95000 313.000
12.96500 304.000
12.98000 308.000
12.99500 310.000
13.01000 343.000
13.02500 356.000
13.04000 335.000
13.05500 323.000
13.07000 330.000
13.08500 328.000
13.10000 330.000
13.11500 323.000
13.13000 303.000
13.14500 311.000
13.16000 308.000
13.17500 307.000
13.19000 319.000
13.20500 344.000
13.22000 354.000
13.23500 327.000
13.25000 331.000
13.26500 352.000
13.28000 331.000
13.29500 322.000
13.31000 336.000
13.32500 308.000
13.34000 339.000
13.35500 326.000
13.37000 333.000
13.38500 314.000
13.40000 326.000
13.41500 339.000
13.43000 322.000
13.44500 307.000
13.46000 341.000
13.47500 315.000
13.49000 312.000
13.50500 322.000
13.52000 342.000
13.53500 332.000
13.55000 354.000
13.56500 341.000
13.58000 372.000
13.59500 352.000
13.61000 330.000
13.62500 332.000
13.64000 339.000
13.65500 384.000
13.67000 358.000
13.68500 340.000
13.70000 320.000
13.71500 339.000
13.73000 334.000
13.74500 315.000
13.76000 344.000
13.77500 315.000
13.79000 366.000
13.80500 356.000
13.82000 337.000
13.83500 322.000
13.85000 318.000
13.86500 324.000
13.88000 340.000
13.89500 337.000
13.91000 331.000
13.92500 354.000
13.94000 365.000
13.95500 323.000
13.97000 326.000
13.98500 353.000
14.00000 333.000
14.01500 335.000
14.03000 329.000
14.04500 333.000
14.06000 340.000
14.07500 312.000
14.09000 321.000
14.10500 339.000
14.12000 316.000
14.13500 314.000
14.15000 363.000
14.16500 339.000
14.18000 346.000
14.19500 345.000
14.21000 355.000
14.22500 337.000
14.24000 331.000
14.25500 357.000
14.27000 368.000
14.28500 326.000
14.30000 330.000
14.31500 353.000
14.33000 346.000
14.34500 343.000
14.36000 344.000
14.37500 300.000
14.39000 319.000
14.40500 341.000
14.42000 321.000
14.43500 340.000
14.45000 345.000
14.46500 365.000
14.48000 327.000
14.49500 335.000
14.51000 349.000
14.52500 342.000
14.54000 341.000
14.55500 338.000
14.57000 324.000
14.58500 330.000
14.60000 343.000
14.61500 315.000
14.63000 321.000
14.64500 365.000
14.66000 340.000
14.67500 341.000
14.69000 352.000
14.70500 327.000
14.72000 351.000
14.73500 347.000
14.75000 343.000
14.76500 344.000
14.78000 340.000
14.79500 355.000
14.81000 360.000
14.82500 349.000
14.84000 371.000
14.85500 314.000
14.87000 335.000
14.88500 328.000
14.90000 338.000
14.91500 356.000
14.93000 351.000
14.94500 342.000
14.96000 336.000
14.97500 355.000
14.99000 384.000
15.00500 367.000
15.02000 340.000
15.03500 352.000
15.05000 387.000
15.06500 360.000
15.08000 371.000
15.09500 351.000
15.11000 361.000
15.12500 374.000
15.14000 350.000
15.15500 369.000
15.17000 393.000
15.18500 390.000
15.20000 366.000
15.21500 367.000
15.23000 353.000
15.24500 370.000
15.26000 356.000
15.27500 341.000
15.29000 349.000
15.30500 369.000
15.32000 361.000
15.33500 332.000
15.35000 363.000
15.36500 350.000
15.38000 365.000
15.39500 355.000
15.41000 355.000
15.42500 338.000
15.44000 381.000
15.45500 349.000
15.47000 370.000
15.48500 403.000
15.50000 367.000
15.51500 348.000
15.53000 343.000
15.54500 342.000
15.56000 359.000
15.57500 356.000
15.59000 341.000
15.60500 322.000
15.62000 346.000
15.63500 378.000
15.65000 360.000
15.66500 383.000
15.68000 396.000
15.69500 357.000
15.71000 364.000
15.72500 390.000
15.74000 417.000
15.75500 423.000
15.77000 354.000
15.78500 388.000
15.80000 396.000
15.81500 422.000
15.83000 386.000
15.84500 391.000
15.86000 409.000
15.87500 408.000
15.89000 405.000
15.90500 413.000
15.92000 364.000
15.93500 381.000
15.95000 367.000
15.96500 363.000
15.98000 357.000
15.99500 355.000
16.01000 374.000
16.02500 411.000
16.04000 362.000
16.05500 363.000
16.07000 326.000
16.08500 320.000
16.10000 341.000
16.11500 336.000
16.13000 372.000
16.14500 345.000
16.16000 361.000
16.17500 351.000
16.19000 339.000
16.20500 355.000
16.22000 358.000
16.23500 378.000
16.25000 375.000
16.26500 370.000
16.28000 368.000
16.29500 342.000
16.31000 354.000
16.32500 383.000
16.34000 379.000
16.35500 355.000
16.37000 353.000
16.38500 364.000
16.40000 345.000
16.41500 359.000
16.43000 376.000
16.44500 351.000
16.46000 382.000
16.47500 370.000
16.49000 345.000
16.50500 351.000
16.52000 341.000
16.53500 367.000
16.55000 376.000
16.56500 384.000
16.58000 375.000
16.59500 364.000
16.61000 365.000
16.62500 358.000
16.64000 371.000
16.65500 388.000
16.67000 364.000
16.68500 368.000
16.70000 399.000
16.71500 383.000
16.73000 348.000
16.74500 364.000
16.76000 349.000
16.77500 353.000
16.79000 347.000
16.80500 372.000
16.82000 384.000
16.83500 399.000
16.85000 358.000
16.86500 350.000
16.88000 355.000
16.89500 372.000
16.91000 368.000
16.92500 364.000
16.94000 385.000
16.95500 390.000
16.97000 354.000
16.98500 385.000
17.00000 351.000
17.01500 334.000
17.03000 357.000
17.04500 372.000
17.06000 360.000
17.07500 367.000
17.09000 354.000
17.10500 372.000
17.12000 349.000
17.13500 371.000
17.15000 385.000
17.16500 349.000
17.18000 361.000
17.19500 369.000
17.21000 381.000
17.22500 386.000
17.24000 379.000
17.25500 365.000
17.27000 353.000
17.28500 375.000
17.30000 351.000
17.31500 356.000
17.33000 355.000
17.34500 376.000
17.36000 361.000
17.37500 350.000
17.39000 367.000
17.40500 378.000
17.42000 333.000
17.43500 354.000
17.45000 371.000
17.46500 359.000
17.48000 340.000
17.49500 367.000
17.51000 368.000
17.52500 385.000
17.54000 384.000
17.55500 383.000
17.57000 387.000
17.58500 345.000
17.60000 361.000
17.61500 348.000
17.63000 374.000
17.64500 373.000
17.66000 366.000
17.67500 377.000
17.69000 358.000
17.70500 384.000
17.72000 359.000
17.73500 353.000
17.75000 376.000
17.76500 397.000
17.78000 389.000
17.79500 368.000
17.81000 345.000
17.82500 383.000
17.84000 358.000
17.85500 365.000
17.87000 361.000
17.88500 373.000
17.90000 392.000
17.91500 356.000
17.93000 359.000
17.94500 393.000
17.96000 378.000
17.97500 352.000
17.99000 381.000
18.00500 350.000
18.02000 377.000
18.03500 359.000
18.05000 362.000
18.06500 355.000
18.08000 346.000
18.09500 340.000
18.11000 359.000
18.12500 360.000
18.14000 359.000
18.15500 343.000
18.17000 313.000
18.18500 347.000
18.20000 352.000
18.21500 383.000
18.23000 374.000
18.24500 388.000
18.26000 374.000
18.27500 391.000
18.29000 358.000
18.30500 350.000
18.32000 390.000
18.33500 370.000
18.35000 361.000
18.36500 360.000
18.38000 372.000
18.39500 354.000
18.41000 378.000
18.42500 359.000
18.44000 375.000
18.45500 357.000
18.47000 348.000
18.48500 377.000
18.50000 345.000
18.51500 374.000
18.53000 354.000
18.54500 363.000
18.56000 379.000
18.57500 355.000
18.59000 339.000
18.60500 341.000
18.62000 364.000
18.63500 380.000
18.65000 356.000
18.66500 381.000
18.68000 351.000
18.69500 364.000
18.71000 387.000
18.72500 362.000
18.74000 342.000
18.75500 395.000
18.77000 342.000
18.78500 326.000
18.80000 365.000
18.81500 344.000
18.83000 338.000
18.84500 361.000
18.86000 366.000
18.87500 349.000
18.89000 378.000
18.90500 369.000
18.92000 350.000
18.93500 371.000
18.95000 339.000
18.96500 364.000
18.98000 382.000
18.99500 375.000
19.01000 372.000
19.02500 370.000
19.04000 366.000
19.05500 345.000
19.07000 371.000
19.08500 374.000
19.10000 377.000
19.11500 374.000
19.13000 353.000
19.14500 379.000
19.16000 354.000
19.17500 356.000
19.19000 395.000
19.20500 382.000
19.22000 374.000
19.23500 372.000
19.25000 390.000
19.26500 357.000
19.28000 365.000
19.29500 387.000
19.31000 356.000
19.32500 364.000
19.34000 337.000
19.35500 379.000
19.37000 373.000
19.38500 392.000
19.40000 360.000
19.41500 315.000
19.43000 342.000
19.44500 345.000
19.46000 379.000
19.47500 378.000
19.49000 362.000
19.50500 360.000
19.52000 362.000
19.53500 354.000
19.55000 355.000
19.56500 357.000
19.58000 350.000
19.59500 341.000
19.61000 375.000
19.62500 364.000
19.64000 373.000
19.65500 361.000
19.67000 368.000
19.68500 361.000
19.70000 377.000
19.71500 386.000
19.73000 368.000
19.74500 382.000
19.76000 339.000
19.77500 344.000
19.79000 352.000
19.80500 364.000
19.82000 359.000
19.83500 361.000
19.85000 369.000
19.86500 395.000
19.88000 343.000
19.89500 382.000
19.91000 361.000
19.92500 347.000
19.94000 335.000
19.95500 347.000
19.97000 342.000
19.98500 337.000
20.00000 375.000
20.01500 357.000
20.03000 367.000
20.04500 372.000
20.06000 361.000
20.07500 356.000
20.09000 375.000
20.10500 363.000
20.12000 386.000
20.13500 370.000
20.15000 375.000
20.16500 359.000
20.18000 334.000
20.19500 365.000
20.21000 363.000
20.22500 379.000
20.24000 361.000
20.25500 364.000
20.27000 362.000
20.28500 342.000
20.30000 351.000
20.31500 384.000
20.33000 372.000
20.34500 378.000
20.36000 391.000
20.37500 389.000
20.39000 408.000
20.40500 380.000
20.42000 334.000
20.43500 340.000
20.45000 321.000
20.46500 345.000
20.48000 373.000
20.49500 372.000
20.51000 383.000
20.52500 375.000
20.54000 366.000
20.55500 376.000
20.57000 367.000
20.58500 391.000
20.60000 357.000
20.61500 352.000
20.63000 373.000
20.64500 357.000
20.66000 357.000
20.67500 379.000
20.69000 374.000
20.70500 323.000
20.72000 319.000
20.73500 375.000
20.75000 364.000
20.76500 373.000
20.78000 368.000
20.79500 344.000
20.81000 373.000
20.82500 388.000
20.84000 386.000
20.85500 359.000
20.87000 338.000
20.88500 375.000
20.90000 353.000
20.91500 338.000
20.93000 365.000
20.94500 361.000
20.96000 367.000
20.97500 394.000
20.99000 386.000
21.00500 371.000
21.02000 366.000
21.03500 370.000
21.05000 380.000
21.06500 360.000
21.08000 358.000
21.09500 372.000
21.11000 384.000
21.12500 386.000
21.14000 343.000
21.15500 368.000
21.17000 365.000
21.18500 346.000
21.20000 343.000
21.21500 357.000
21.23000 374.000
21.24500 356.000
21.26000 369.000
21.27500 376.000
21.29000 374.000
21.30500 374.000
21.32000 392.000
21.33500 353.000
21.35000 364.000
21.36500 368.000
21.38000 356.000
21.39500 370.000
21.41000 366.000
21.42500 358.000
21.44000 371.000
21.45500 358.000
21.47000 346.000
21.48500 361.000
21.50000 369.000
21.51500 376.000
21.53000 362.000
21.54500 369.000
21.56000 347.000
21.57500 402.000
21.59000 377.000
21.60500 366.000
21.62000 369.000
21.63500 343.000
21.65000 400.000
21.66500 372.000
21.68000 353.000
21.69500 387.000
21.71000 368.000
21.72500 374.000
21.74000 390.000
21.75500 373.000
21.77000 361.000
21.78500 372.000
21.80000 392.000
21.81500 400.000
21.83000 357.000
21.84500 359.000
21.86000 364.000
21.87500 364.000
21.89000 386.000
21.90500 371.000
21.92000 399.000
21.93500 410.000
21.95000 372.000
21.96500 373.000
21.98000 366.000
21.99500 408.000
22.01000 399.000
22.02500 396.000
22.04000 384.000
22.05500 367.000
22.07000 370.000
22.08500 365.000
22.10000 383.000
22.11500 378.000
22.13000 389.000
22.14500 363.000
22.16000 358.000
22.17500 349.000
22.19000 408.000
22.20500 410.000
22.22000 357.000
22.23500 372.000
22.25000 356.000
22.26500 356.000
22.28000 361.000
22.29500 359.000
22.31000 362.000
22.32500 371.000
22.34000 349.000
22.35500 372.000
22.37000 378.000
22.38500 356.000
22.40000 364.000
22.41500 350.000
22.43000 356.000
22.44500 357.000
22.46000 385.000
22.47500 385.000
22.49000 375.000
22.50500 352.000
22.52000 340.000
22.53500 378.000
22.55000 385.000
22.56500 373.000
22.58000 356.000
22.59500 357.000
22.61000 337.000
22.62500 380.000
22.64000 394.000
22.65500 367.000
22.67000 382.000
22.68500 367.000
22.70000 350.000
22.71500 359.000
22.73000 374.000
22.74500 357.000
22.76000 357.000
22.77500 391.000
22.79000 407.000
22.80500 354.000
22.82000 400.000
22.83500 378.000
22.85000 379.000
22.86500 379.000
22.88000 368.000
22.89500 359.000
22.91000 373.000
22.92500 389.000
22.94000 360.000
22.95500 350.000
22.97000 345.000
22.98500 387.000
23.00000 388.000
23.01500 408.000
23.03000 369.000
23.04500 375.000
23.06000 373.000
23.07500 378.000
23.09000 354.000
23.10500 351.000
23.12000 357.000
23.13500 361.000
23.15000 396.000
23.16500 365.000
23.18000 379.000
23.19500 395.000
23.21000 368.000
23.22500 387.000
23.24000 356.000
23.25500 327.000
23.27000 356.000
23.28500 376.000
23.30000 360.000
23.31500 334.000
23.33000 322.000
23.34500 363.000
23.36000 367.000
23.37500 374.000
23.39000 373.000
23.40500 393.000
23.42000 370.000
23.43500 365.000
23.45000 373.000
23.46500 388.000
23.48000 365.000
23.49500 373.000
23.51000 356.000
23.52500 366.000
23.54000 379.000
23.55500 361.000
23.57000 372.000
23.58500 378.000
23.60000 353.000
23.61500 343.000
23.63000 375.000
23.64500 372.000
23.66000 374.000
23.67500 363.000
23.69000 375.000
23.70500 354.000
23.72000 350.000
23.73500 348.000
23.75000 369.000
23.76500 381.000
23.78000 369.000
23.79500 371.000
23.81000 352.000
23.82500 338.000
23.84000 367.000
23.85500 386.000
23.87000 345.000
23.88500 367.000
23.90000 400.000
23.91500 367.000
23.93000 383.000
23.94500 380.000
23.96000 386.000
23.97500 357.000
23.99000 352.000
24.00500 390.000
24.02000 368.000
24.03500 373.000
24.05000 369.000
24.06500 377.000
24.08000 368.000
24.09500 373.000
24.11000 386.000
24.12500 384.000
24.14000 336.000
24.15500 347.000
24.17000 316.000
24.18500 315.000
24.20000 371.000
24.21500 368.000
24.23000 395.000
24.24500 394.000
24.26000 342.000
24.27500 388.000
24.29000 360.000
24.30500 355.000
24.32000 362.000
24.33500 354.000
24.35000 350.000
24.36500 369.000
24.38000 372.000
24.39500 353.000
24.41000 359.000
24.42500 343.000
24.44000 361.000
24.45500 387.000
24.47000 370.000
24.48500 357.000
24.50000 358.000
24.51500 377.000
24.53000 362.000
24.54500 372.000
24.56000 362.000
24.57500 384.000
24.59000 379.000
24.60500 383.000
24.62000 383.000
24.63500 369.000
24.65000 368.000
24.66500 379.000
24.68000 376.000
24.69500 375.000
24.71000 366.000
24.72500 368.000
24.74000 362.000
24.75500 384.000
24.77000 333.000
24.78500 352.000
24.80000 343.000
24.81500 379.000
24.83000 367.000
24.84500 378.000
24.86000 362.000
24.87500 376.000
24.89000 359.000
24.90500 355.000
24.92000 348.000
24.93500 364.000
24.95000 357.000
24.96500 357.000
24.98000 347.000
24.99500 390.000
25.01000 366.000
25.02500 383.000
25.04000 374.000
25.05500 365.000
25.07000 378.000
25.08500 383.000
25.10000 362.000
25.11500 376.000
25.13000 357.000
25.14500 371.000
25.16000 360.000
25.17500 388.000
25.19000 378.000
25.20500 351.000
25.22000 365.000
25.23500 353.000
25.25000 370.000
25.26500 340.000
25.28000 362.000
25.29500 367.000
25.31000 336.000
25.32500 333.000
25.34000 370.000
25.35500 353.000
25.37000 346.000
25.38500 360.000
25.40000 401.000
25.41500 385.000
25.43000 374.000
25.44500 348.000
25.46000 358.000
25.47500 386.000
25.49000 396.000
25.50500 366.000
25.52000 350.000
25.53500 370.000
25.55000 356.000
25.56500 353.000
25.58000 392.000
25.59500 355.000
25.61000 337.000
25.62500 392.000
25.64000 362.000
25.65500 377.000
25.67000 378.000
25.68500 357.000
25.70000 335.000
25.71500 386.000
25.73000 354.000
25.74500 360.000
25.76000 356.000
25.77500 375.000
25.79000 341.000
25.80500 362.000
25.82000 347.000
25.83500 346.000
25.85000 348.000
25.86500 345.000
25.88000 348.000
25.89500 360.000
25.91000 367.000
25.92500 389.000
25.94000 412.000
25.95500 375.000
25.97000 377.000
25.98500 393.000
26.00000 356.000
26.01500 343.000
26.03000 351.000
26.04500 365.000
26.06000 384.000
26.07500 364.000
26.09000 373.000
26.10500 358.000
26.12000 372.000
26.13500 395.000
26.15000 388.000
26.16500 399.000
26.18000 385.000
26.19500 364.000
26.21000 368.000
26.22500 358.000
26.24000 360.000
26.25500 343.000
26.27000 382.000
26.28500 372.000
26.30000 390.000
26.31500 379.000
26.33000 387.000
26.34500 405.000
26.36000 394.000
26.37500 396.000
26.39000 390.000
26.40500 383.000
26.42000 356.000
26.43500 389.000
26.45000 377.000
26.46500 377.000
26.48000 381.000
26.49500 399.000
26.51000 385.000
26.52500 391.000
26.54000 397.000
26.55500 403.000
26.57000 397.000
26.58500 412.000
26.60000 404.000
26.61500 408.000
26.63000 416.000
26.64500 371.000
26.66000 369.000
26.67500 386.000
26.69000 387.000
26.70500 391.000
26.72000 397.000
26.73500 400.000
26.75000 407.000
26.76500 399.000
26.78000 400.000
26.79500 359.000
26.81000 390.000
26.82500 378.000
26.84000 390.000
26.85500 397.000
26.87000 399.000
26.88500 394.000
26.90000 372.000
26.91500 376.000
26.93000 385.000
26.94500 379.000
26.96000 387.000
26.97500 413.000
26.99000 400.000
27.00500 430.000
27.02000 397.000
27.03500 417.000
27.05000 404.000
27.06500 398.000
27.08000 392.000
27.09500 427.000
27.11000 428.000
27.12500 422.000
27.14000 407.000
27.15500 440.000
27.17000 438.000
27.18500 399.000
27.20000 388.000
27.21500 417.000
27.23000 439.000
27.24500 419.000
27.26000 412.000
27.27500 424.000
27.29000 455.000
27.30500 445.000
27.32000 469.000
27.33500 490.000
27.35000 470.000
27.36500 486.000
27.38000 504.000
27.39500 528.000
27.41000 528.000
27.42500 506.000
27.44000 504.000
27.45500 512.000
27.47000 500.000
27.48500 538.000
27.50000 558.000
27.51500 596.000
27.53000 628.000
27.54500 644.000
27.56000 675.000
27.57500 693.000
27.59000 798.000
27.60500 853.000
27.62000 894.000
27.63500 1039.000
27.65000 1105.000
27.66500 1247.000
27.68000 1384.000
27.69500 1497.000
27.71000 1678.000
27.72500 1883.000
27.74000 2080.000
27.75500 2276.000
27.77000 2487.000
27.78500 2738.000
27.80000 2839.000
27.81500 2910.000
27.83000 2968.000
27.84500 3044.000
27.86000 3093.000
27.87500 2945.000
27.89000 2663.000
27.90500 2424.000
27.92000 2093.000
27.93500 1908.000
27.95000 1653.000
27.96500 1370.000
27.98000 1201.000
27.99500 1169.000
28.01000 1090.000
28.02500 965.000
28.04000 875.000
28.05500 811.000
28.07000 787.000
28.08500 775.000
28.10000 682.000
28.11500 631.000
28.13000 618.000
28.14500 617.000
28.16000 573.000
28.17500 572.000
28.19000 528.000
28.20500 535.000
28.22000 512.000
28.23500 535.000
28.25000 507.000
28.26500 488.000
28.28000 500.000
28.29500 501.000
28.31000 460.000
28.32500 468.000
28.34000 470.000
28.35500 484.000
28.37000 442.000
28.38500 438.000
28.40000 493.000
28.41500 470.000
28.43000 486.000
28.44500 455.000
28.46000 466.000
28.47500 457.000
28.49000 456.000
28.50500 453.000
28.52000 437.000
28.53500 449.000
28.55000 492.000
28.56500 475.000
28.58000 457.000
28.59500 456.000
28.61000 479.000
28.62500 477.000
28.64000 461.000
28.65500 428.000
28.67000 405.000
28.68500 393.000
28.70000 422.000
28.71500 394.000
28.73000 414.000
28.74500 392.000
28.76000 406.000
28.77500 413.000
28.79000 392.000
28.80500 390.000
28.82000 389.000
28.83500 382.000
28.85000 383.000
28.86500 405.000
28.88000 378.000
28.89500 381.000
28.91000 375.000
28.92500 370.000
28.94000 401.000
28.95500 394.000
28.97000 384.000
28.98500 378.000
29.00000 379.000
29.01500 369.000
29.03000 355.000
29.04500 365.000
29.06000 376.000
29.07500 369.000
29.09000 363.000
29.10500 383.000
29.12000 392.000
29.13500 414.000
29.15000 403.000
29.16500 426.000
29.18000 370.000
29.19500 365.000
29.21000 381.000
29.22500 391.000
29.24000 385.000
29.25500 376.000
29.27000 402.000
29.28500 406.000
29.30000 395.000
29.31500 407.000
29.33000 386.000
29.34500 398.000
29.36000 424.000
29.37500 437.000
29.39000 460.000
29.40500 443.000
29.42000 436.000
29.43500 428.000
29.45000 393.000
29.46500 403.000
29.48000 404.000
29.49500 388.000
29.51000 411.000
29.52500 383.000
29.54000 412.000
29.55500 403.000
29.57000 403.000
29.58500 381.000
29.60000 382.000
29.61500 376.000
29.63000 346.000
29.64500 356.000
29.66000 363.000
29.67500 362.000
29.69000 340.000
29.70500 359.000
29.72000 352.000
29.73500 345.000
29.75000 325.000
29.76500 334.000
29.78000 354.000
29.79500 350.000
29.81000 325.000
29.82500 354.000
29.84000 360.000
29.85500 334.000
29.87000 352.000
29.88500 342.000
29.90000 316.000
29.91500 333.000
29.93000 342.000
29.94500 327.000
29.96000 322.000
29.97500 344.000
29.99000 363.000
30.00500 324.000
30.02000 318.000
30.03500 312.000
30.05000 324.000
30.06500 359.000
30.08000 332.000
30.09500 337.000
30.11000 338.000
30.12500 334.000
30.14000 354.000
30.15500 341.000
30.17000 347.000
30.18500 312.000
30.20000 327.000
30.21500 294.000
30.23000 309.000
30.24500 320.000
30.26000 314.000
30.27500 304.000
30.29000 301.000
30.30500 309.000
30.32000 319.000
30.33500 315.000
30.35000 325.000
30.36500 340.000
30.38000 327.000
30.39500 302.000
30.41000 328.000
30.42500 323.000
30.44000 316.000
30.45500 301.000
30.47000 317.000
30.48500 320.000
30.50000 320.000
30.51500 317.000
30.53000 315.000
30.54500 329.000
30.56000 338.000
30.57500 312.000
30.59000 330.000
30.60500 325.000
30.62000 320.000
30.63500 316.000
30.65000 298.000
30.66500 306.000
30.68000 292.000
30.69500 290.000
30.71000 345.000
30.72500 318.000
30.74000 308.000
30.75500 311.000
30.77000 324.000
30.78500 303.000
30.80000 278.000
30.81500 321.000
30.83000 305.000
30.84500 290.000
30.86000 283.000
30.87500 300.000
30.89000 294.000
30.90500 312.000
30.92000 287.000
30.93500 296.000
30.95000 312.000
30.96500 296.000
30.98000 304.000
30.99500 301.000
31.01000 303.000
31.02500 308.000
31.04000 314.000
31.05500 278.000
31.07000 284.000
31.08500 330.000
31.10000 313.000
31.11500 285.000
31.13000 293.000
31.14500 289.000
31.16000 300.000
31.17500 302.000
31.19000 293.000
31.20500 277.000
31.22000 294.000
31.23500 285.000
31.25000 270.000
31.26500 277.000
31.28000 272.000
31.29500 277.000
31.31000 305.000
31.32500 302.000
31.34000 284.000
31.35500 301.000
31.37000 279.000
31.38500 263.000
31.40000 285.000
31.41500 281.000
31.43000 301.000
31.44500 266.000
31.46000 292.000
31.47500 293.000
31.49000 312.000
31.50500 283.000
31.52000 291.000
31.53500 290.000
31.55000 282.000
31.56500 268.000
31.58000 303.000
31.59500 291.000
31.61000 298.000
31.62500 267.000
31.64000 258.000
31.65500 282.000
31.67000 288.000
31.68500 291.000
31.70000 301.000
31.71500 276.000
31.73000 292.000
31.74500 275.000
31.76000 281.000
31.77500 286.000
31.79000 264.000
31.80500 286.000
31.82000 277.000
31.83500 274.000
31.85000 268.000
31.86500 273.000
31.88000 297.000
31.89500 293.000
31.91000 279.000
31.92500 278.000
31.94000 280.000
31.95500 279.000
31.97000 268.000
31.98500 258.000
32.00000 258.000
32.01500 272.000
32.03000 279.000
32.04500 309.000
32.06000 265.000
32.07500 279.000
32.09000 275.000
32.10500 277.000
32.12000 290.000
32.13500 277.000
32.15000 261.000
32.16500 287.000
32.18000 291.000
32.19500 261.000
32.21000 289.000
32.22500 306.000
32.24000 270.000
32.25500 277.000
32.27000 285.000
32.28500 276.000
32.30000 280.000
32.31500 273.000
32.33000 253.000
32.34500 263.000
32.36000 272.000
32.37500 276.000
32.39000 286.000
32.40500 296.000
32.42000 285.000
32.43500 258.000
32.45000 274.000
32.46500 278.000
32.48000 261.000
32.49500 260.000
32.51000 291.000
32.52500 260.000
32.54000 259.000
32.55500 272.000
32.57000 264.000
32.58500 249.000
32.60000 278.000
32.61500 273.000
32.63000 279.000
32.64500 271.000
32.66000 262.000
32.67500 241.000
32.69000 276.000
32.70500 283.000
32.72000 259.000
32.73500 248.000
32.75000 277.000
32.76500 248.000
32.78000 257.000
32.79500 263.000
32.81000 270.000
32.82500 277.000
32.84000 282.000
32.85500 293.000
32.87000 267.000
32.88500 261.000
32.90000 254.000
32.91500 244.000
32.93000 257.000
32.94500 282.000
32.96000 244.000
32.97500 271.000
32.99000 257.000
33.00500 253.000
33.02000 256.000
33.03500 245.000
33.05000 246.000
33.06500 254.000
33.08000 247.000
33.09500 269.000
33.11000 256.000
33.12500 267.000
33.14000 256.000
33.15500 260.000
33.17000 289.000
33.18500 256.000
33.20000 279.000
33.21500 271.000
33.23000 228.000
33.24500 253.000
33.26000 294.000
33.27500 276.000
33.29000 250.000
33.30500 237.000
33.32000 260.000
33.33500 266.000
33.35000 253.000
33.36500 253.000
33.38000 261.000
33.39500 241.000
33.41000 248.000
33.42500 243.000
33.44000 259.000
33.45500 258.000
33.47000 242.000
33.48500 257.000
33.50000 240.000
33.51500 247.000
33.53000 249.000
33.54500 242.000
33.56000 249.000
33.57500 243.000
33.59000 251.000
33.60500 240.000
33.62000 222.000
33.63500 255.000
33.65000 251.000
33.66500 238.000
33.68000 250.000
33.69500 267.000
33.71000 239.000
33.72500 262.000
33.74000 247.000
33.75500 236.000
33.77000 246.000
33.78500 246.000
33.80000 238.000
33.81500 241.000
33.83000 254.000
33.84500 234.000
33.86000 243.000
33.87500 240.000
33.89000 237.000
33.90500 240.000
33.92000 236.000
33.93500 229.000
33.95000 220.000
33.96500 221.000
33.98000 220.000
33.99500 246.000
34.01000 269.000
34.02500 271.000
34.04000 264.000
34.05500 260.000
34.07000 244.000
34.08500 236.000
34.10000 220.000
34.11500 242.000
34.13000 229.000
34.14500 219.000
34.16000 231.000
34.17500 245.000
34.19000 239.000
34.20500 224.000
34.22000 270.000
34.23500 239.000
34.25000 240.000
34.26500 230.000
34.28000 232.000
34.29500 233.000
34.31000 219.000
34.32500 281.000
34.34000 248.000
34.35500 226.000
34.37000 235.000
34.38500 254.000
34.40000 228.000
34.41500 211.000
34.43000 224.000
34.44500 254.000
34.46000 256.000
34.47500 228.000
34.49000 231.000
34.50500 246.000
34.52000 229.000
34.53500 234.000
34.55000 220.000
34.56500 231.000
34.58000 236.000
34.59500 213.000
34.61000 230.000
34.62500 217.000
34.64000 230.000
34.65500 239.000
34.67000 243.000
34.68500 233.000
34.70000 229.000
34.71500 236.000
34.73000 228.000
34.74500 204.000
34.76000 228.000
34.77500 247.000
34.79000 234.000
34.80500 252.000
34.82000 219.000
34.83500 238.000
34.85000 245.000
34.86500 222.000
34.88000 220.000
34.89500 236.000
34.91000 256.000
34.92500 245.000
34.94000 222.000
34.95500 229.000
34.97000 222.000
34.98500 228.000
35.00000 247.000
35.01500 227.000
35.03000 237.000
35.04500 246.000
35.06000 235.000
35.07500 236.000
35.09000 216.000
35.10500 214.000
35.12000 221.000
35.13500 216.000
35.15000 226.000
35.16500 230.000
35.18000 219.000
35.19500 195.000
35.21000 224.000
35.22500 235.000
35.24000 227.000
35.25500 224.000
35.27000 227.000
35.28500 250.000
35.30000 228.000
35.31500 199.000
35.33000 220.000
35.34500 212.000
35.36000 211.000
35.37500 206.000
35.39000 231.000
35.40500 240.000
35.42000 215.000
35.43500 221.000
35.45000 226.000
35.46500 224.000
35.48000 221.000
35.49500 208.000
35.51000 225.000
35.52500 231.000
35.54000 216.000
35.55500 219.000
35.57000 229.000
35.58500 225.000
35.60000 222.000
35.61500 210.000
35.63000 208.000
35.64500 218.000
35.66000 203.000
35.67500 204.000
35.69000 220.000
35.70500 182.000
35.72000 193.000
35.73500 205.000
35.75000 196.000
35.76500 179.000
35.78000 194.000
35.79500 218.000
35.81000 228.000
35.82500 228.000
35.84000 227.000
35.85500 206.000
35.87000 205.000
35.88500 218.000
35.90000 189.000
35.91500 195.000
35.93000 210.000
35.94500 218.000
35.96000 223.000
35.97500 238.000
35.99000 226.000
36.00500 226.000
36.02000 212.000
36.03500 199.000
36.05000 197.000
36.06500 219.000
36.08000 208.000
36.09500 217.000
36.11000 217.000
36.12500 202.000
36.14000 202.000
36.15500 192.000
36.17000 210.000
36.18500 203.000
36.20000 219.000
36.21500 214.000
36.23000 196.000
36.24500 196.000
36.26000 211.000
36.27500 219.000
36.29000 217.000
36.30500 192.000
36.32000 195.000
36.33500 208.000
36.35000 209.000
36.36500 222.000
36.38000 201.000
36.39500 195.000
36.41000 202.000
36.42500 188.000
36.44000 210.000
36.45500 221.000
36.47000 201.000
36.48500 203.000
36.50000 194.000
36.51500 192.000
36.53000 208.000
36.54500 213.000
36.56000 202.000
36.57500 199.000
36.59000 198.000
36.60500 195.000
36.62000 208.000
36.63500 200.000
36.65000 197.000
36.66500 196.000
36.68000 211.000
36.69500 228.000
36.71000 216.000
36.72500 205.000
36.74000 207.000
36.75500 217.000
36.77000 225.000
36.78500 220.000
36.80000 213.000
36.81500 199.000
36.83000 190.000
36.84500 197.000
36.86000 217.000
36.87500 220.000
36.89000 182.000
36.90500 179.000
36.92000 196.000
36.93500 191.000
36.95000 190.000
36.96500 199.000
36.98000 186.000
36.99500 200.000
37.01000 212.000
37.02500 187.000
37.04000 193.000
37.05500 204.000
37.07000 213.000
37.08500 202.000
37.10000 188.000
37.11500 190.000
37.13000 216.000
37.14500 200.000
37.16000 192.000
37.17500 181.000
37.19000 194.000
37.20500 186.000
37.22000 201.000
37.23500 207.000
37.25000 207.000
37.26500 205.000
37.28000 190.000
37.29500 184.000
37.31000 219.000
37.32500 215.000
37.34000 207.000
37.35500 184.000
37.37000 202.000
37.38500 210.000
37.40000 171.000
37.41500 187.000
37.43000 204.000
37.44500 194.000
37.46000 199.000
37.47500 196.000
37.49000 190.000
37.50500 182.000
37.52000 182.000
37.53500 192.000
37.55000 205.000
37.56500 204.000
37.58000 205.000
37.59500 213.000
37.61000 207.000
37.62500 203.000
37.64000 199.000
37.65500 202.000
37.67000 192.000
37.68500 193.000
37.70000 185.000
37.71500 195.000
37.73000 187.000
37.74500 201.000
37.76000 186.000
37.77500 209.000
37.79000 204.000
37.80500 187.000
37.82000 187.000
37.83500 183.000
37.85000 192.000
37.86500 182.000
37.88000 177.000
37.89500 170.000
37.91000 170.000
37.92500 173.000
37.94000 200.000
37.95500 192.000
37.97000 178.000
37.98500 186.000
38.00000 191.000
38.01500 182.000
38.03000 183.000
38.04500 196.000
38.06000 191.000
38.07500 207.000
38.09000 180.000
38.10500 180.000
38.12000 196.000
38.13500 185.000
38.15000 193.000
38.16500 191.000
38.18000 187.000
38.19500 195.000
38.21000 209.000
38.22500 201.000
38.24000 183.000
38.25500 194.000
38.27000 179.000
38.28500 185.000
38.30000 203.000
38.31500 183.000
38.33000 167.000
38.34500 183.000
38.36000 167.000
38.37500 184.000
38.39000 194.000
38.40500 189.000
38.42000 198.000
38.43500 184.000
38.45000 181.000
38.46500 184.000
38.48000 214.000
38.49500 180.000
38.51000 212.000
38.52500 229.000
38.54000 178.000
38.55500 172.000
38.57000 189.000
38.58500 182.000
38.60000 188.000
38.61500 186.000
38.63000 190.000
38.64500 192.000
38.66000 178.000
38.67500 181.000
38.69000 192.000
38.70500 188.000
38.72000 187.000
38.73500 189.000
38.75000 202.000
38.76500 177.000
38.78000 180.000
38.79500 189.000
38.81000 182.000
38.82500 204.000
38.84000 206.000
38.85500 206.000
38.87000 165.000
38.88500 164.000
38.90000 188.000
38.91500 178.000
38.93000 188.000
38.94500 191.000
38.96000 192.000
38.97500 199.000
38.99000 202.000
39.00500 188.000
39.02000 200.000
39.03500 208.000
39.05000 188.000
39.06500 175.000
39.08000 186.000
39.09500 183.000
39.11000 171.000
39.12500 175.000
39.14000 167.000
39.15500 189.000
39.17000 193.000
39.18500 169.000
39.20000 190.000
39.21500 186.000
39.23000 205.000
39.24500 192.000
39.26000 178.000
39.27500 182.000
39.29000 195.000
39.30500 186.000
39.32000 187.000
39.33500 175.000
39.35000 185.000
39.36500 157.000
39.38000 186.000
39.39500 201.000
39.41000 188.000
39.42500 192.000
39.44000 186.000
39.45500 184.000
39.47000 187.000
39.48500 180.000
39.50000 174.000
39.51500 176.000
39.53000 174.000
39.54500 192.000
39.56000 184.000
39.57500 170.000
39.59000 183.000
39.60500 181.000
39.62000 201.000
39.63500 187.000
39.65000 189.000
39.66500 173.000
39.68000 205.000
39.69500 173.000
39.71000 178.000
39.72500 205.000
39.74000 196.000
39.75500 189.000
39.77000 196.000
39.78500 193.000
39.80000 198.000
39.81500 179.000
39.83000 181.000
39.84500 181.000
39.86000 174.000
39.87500 185.000
39.89000 176.000
39.90500 185.000
39.92000 175.000
39.93500 186.000
39.95000 174.000
39.96500 178.000
39.98000 183.000
39.99500 173.000
40.01000 158.000
40.02500 172.000
40.04000 182.000
40.05500 188.000
40.07000 188.000
40.08500 176.000
40.10000 165.000
40.11500 175.000
40.13000 173.000
40.14500 196.000
40.16000 199.000
40.17500 194.000
40.19000 203.000
40.20500 193.000
40.22000 183.000
40.23500 179.000
40.25000 189.000
40.26500 187.000
40.28000 180.000
40.29500 166.000
40.31000 171.000
40.32500 195.000
40.34000 188.000
40.35500 197.000
40.37000 182.000
40.38500 192.000
40.40000 168.000
40.41500 171.000
40.43000 180.000
40.44500 169.000
40.46000 190.000
40.47500 180.000
40.49000 173.000
40.50500 191.000
40.52000 165.000
40.53500 179.000
40.55000 171.000
40.56500 162.000
40.58000 166.000
40.59500 167.000
40.61000 163.000
40.62500 150.000
40.64000 172.000
40.65500 184.000
40.67000 176.000
40.68500 176.000
40.70000 174.000
40.71500 188.000
40.73000 178.000
40.74500 158.000
40.76000 174.000
40.77500 178.000
40.79000 181.000
40.80500 183.000
40.82000 201.000
40.83500 155.000
40.85000 159.000
40.86500 179.000
40.88000 173.000
40.89500 145.000
40.91000 164.000
40.92500 161.000
40.94000 171.000
40.95500 162.000
40.97000 176.000
40.98500 160.000
41.00000 178.000
41.01500 156.000
41.03000 157.000
41.04500 176.000
41.06000 174.000
41.07500 176.000
41.09000 182.000
41.10500 181.000
41.12000 200.000
41.13500 170.000
41.15000 165.000
41.16500 165.000
41.18000 179.000
41.19500 169.000
41.21000 175.000
41.22500 175.000
41.24000 175.000
41.25500 188.000
41.27000 186.000
41.28500 185.000
41.30000 175.000
41.31500 178.000
41.33000 152.000
41.34500 174.000
41.36000 178.000
41.37500 179.000
41.39000 172.000
41.40500 175.000
41.42000 172.000
41.43500 158.000
41.45000 161.000
41.46500 165.000
41.48000 187.000
41.49500 170.000
41.51000 174.000
41.52500 168.000
41.54000 164.000
41.55500 174.000
41.57000 162.000
41.58500 153.000
41.60000 182.000
41.61500 183.000
41.63000 168.000
41.64500 167.000
41.66000 177.000
41.67500 171.000
41.69000 168.000
41.70500 187.000
41.72000 176.000
41.73500 156.000
41.75000 167.000
41.76500 166.000
41.78000 173.000
41.79500 185.000
41.81000 184.000
41.82500 157.000
41.84000 189.000
41.85500 179.000
41.87000 178.000
41.88500 178.000
41.90000 171.000
41.91500 165.000
41.93000 175.000
41.94500 174.000
41.96000 174.000
41.97500 180.000
41.99000 195.000
42.00500 162.000
42.02000 165.000
42.03500 172.000
42.05000 178.000
42.06500 171.000
42.08000 155.000
42.09500 162.000
42.11000 166.000
42.12500 165.000
42.14000 166.000
42.15500 186.000
42.17000 190.000
42.18500 177.000
42.20000 183.000
42.21500 185.000
42.23000 151.000
42.24500 157.000
42.26000 176.000
42.27500 193.000
42.29000 166.000
42.30500 169.000
42.32000 175.000
42.33500 167.000
42.35000 167.000
42.36500 159.000
42.38000 173.000
42.39500 162.000
42.41000 178.000
42.42500 166.000
42.44000 193.000
42.45500 173.000
42.47000 151.000
42.48500 168.000
42.50000 181.000
42.51500 164.000
42.53000 174.000
42.54500 172.000
42.56000 181.000
42.57500 180.000
42.59000 166.000
42.60500 169.000
42.62000 154.000
42.63500 156.000
42.65000 168.000
42.66500 173.000
42.68000 159.000
42.69500 157.000
42.71000 170.000
42.72500 178.000
42.74000 176.000
42.75500 166.000
42.77000 162.000
42.78500 164.000
42.80000 161.000
42.81500 174.000
42.83000 174.000
42.84500 150.000
42.86000 173.000
42.87500 172.000
42.89000 157.000
42.90500 158.000
42.92000 168.000
42.93500 181.000
42.95000 178.000
42.96500 165.000
42.98000 172.000
42.99500 157.000
43.01000 151.000
43.02500 171.000
43.04000 170.000
43.05500 159.000
43.07000 155.000
43.08500 163.000
43.10000 154.000
43.11500 165.000
43.13000 179.000
43.14500 186.000
43.16000 178.000
43.17500 158.000
43.19000 164.000
43.20500 170.000
43.22000 170.000
43.23500 135.000
43.25000 148.000
43.26500 164.000
43.28000 175.000
43.29500 177.000
43.31000 182.000
43.32500 175.000
43.34000 163.000
43.35500 156.000
43.37000 165.000
43.38500 152.000
43.40000 173.000
43.41500 150.000
43.43000 151.000
43.44500 176.000
43.46000 179.000
43.47500 176.000
43.49000 161.000
43.50500 144.000
43.52000 165.000
43.53500 181.000
43.55000 161.000
43.56500 162.000
43.58000 171.000
43.59500 166.000
43.61000 165.000
43.62500 169.000
43.64000 181.000
43.65500 169.000
43.67000 163.000
43.68500 159.000
43.70000 167.000
43.71500 175.000
43.73000 144.000
43.74500 160.000
43.76000 161.000
43.77500 165.000
43.79000 148.000
43.80500 165.000
43.82000 155.000
43.83500 165.000
43.85000 163.000
43.86500 180.000
43.88000 155.000
43.89500 143.000
43.91000 150.000
43.92500 151.000
43.94000 156.000
43.95500 155.000
43.97000 152.000
43.98500 138.000
44.00000 163.000
44.01500 178.000
44.03000 159.000
44.04500 163.000
44.06000 158.000
44.07500 156.000
44.09000 184.000
44.10500 159.000
44.12000 156.000
44.13500 159.000
44.15000 165.000
44.16500 173.000
44.18000 168.000
44.19500 157.000
44.21000 169.000
44.22500 169.000
44.24000 159.000
44.25500 159.000
44.27000 165.000
44.28500 170.000
44.30000 167.000
44.31500 175.000
44.33000 154.000
44.34500 154.000
44.36000 151.000
44.37500 157.000
44.39000 160.000
44.40500 172.000
44.42000 186.000
44.43500 166.000
44.45000 169.000
44.46500 162.000
44.48000 168.000
44.49500 156.000
44.51000 170.000
44.52500 160.000
44.54000 159.000
44.55500 150.000
44.57000 168.000
44.58500 157.000
44.60000 150.000
44.61500 158.000
44.63000 164.000
44.64500 161.000
44.66000 147.000
44.67500 165.000
44.69000 161.000
44.70500 159.000
44.72000 145.000
44.73500 145.000
44.75000 156.000
44.76500 149.000
44.78000 166.000
44.79500 167.000
44.81000 159.000
44.82500 156.000
44.84000 153.000
44.85500 154.000
44.87000 157.000
44.88500 149.000
44.90000 159.000
44.91500 159.000
44.93000 152.000
44.94500 159.000
44.96000 163.000
44.97500 159.000
44.99000 173.000
45.00500 165.000
45.02000 180.000
45.03500 171.000
45.05000 145.000
45.06500 147.000
45.08000 147.000
45.09500 149.000
45.11000 141.000
45.12500 152.000
45.14000 150.000
45.15500 161.000
45.17000 151.000
45.18500 152.000
45.20000 164.000
45.21500 162.000
45.23000 147.000
45.24500 166.000
45.26000 147.000
45.27500 160.000
45.29000 152.000
45.30500 160.000
45.32000 154.000
45.33500 158.000
45.35000 142.000
45.36500 141.000
45.38000 136.000
45.39500 152.000
45.41000 137.000
45.42500 157.000
45.44000 175.000
45.45500 152.000
45.47000 152.000
45.48500 166.000
45.50000 160.000
45.51500 156.000
45.53000 130.000
45.54500 147.000
45.56000 154.000
45.57500 158.000
45.59000 166.000
45.60500 166.000
45.62000 140.000
45.63500 146.000
45.65000 169.000
45.66500 153.000
45.68000 153.000
45.69500 145.000
45.71000 149.000
45.72500 162.000
45.74000 149.000
45.75500 146.000
45.77000 156.000
45.78500 161.000
45.80000 158.000
45.81500 175.000
45.83000 156.000
45.84500 155.000
45.86000 147.000
45.87500 144.000
45.89000 171.000
45.90500 146.000
45.92000 151.000
45.93500 167.000
45.95000 148.000
45.96500 155.000
45.98000 156.000
45.99500 178.000
46.01000 142.000
46.02500 158.000
46.04000 146.000
46.05500 150.000
46.07000 149.000
46.08500 169.000
46.10000 154.000
46.11500 154.000
46.13000 149.000
46.14500 156.000
46.16000 158.000
46.17500 155.000
46.19000 148.000
46.20500 148.000
46.22000 166.000
46.23500 142.000
46.25000 148.000
46.26500 130.000
46.28000 146.000
46.29500 151.000
46.31000 147.000
46.32500 142.000
46.34000 158.000
46.35500 155.000
46.37000 140.000
46.38500 146.000
46.40000 131.000
46.41500 145.000
46.43000 143.000
46.44500 148.000
46.46000 151.000
46.47500 153.000
46.49000 153.000
46.50500 158.000
46.52000 135.000
46.53500 159.000
46.55000 142.000
46.56500 148.000
46.58000 141.000
46.59500 135.000
46.61000 132.000
46.62500 152.000
46.64000 135.000
46.65500 144.000
46.67000 150.000
46.68500 159.000
46.70000 134.000
46.71500 154.000
46.73000 161.000
46.74500 140.000
46.76000 139.000
46.77500 138.000
46.79000 142.000
46.80500 142.000
46.82000 138.000
46.83500 132.000
46.85000 128.000
46.86500 139.000
46.88000 133.000
46.89500 138.000
46.91000 137.000
46.92500 137.000
46.94000 139.000
46.95500 156.000
46.97000 143.000
46.98500 151.000
47.00000 132.000
47.01500 156.000
47.03000 153.000
47.04500 176.000
47.06000 162.000
47.07500 152.000
47.09000 132.000
47.10500 142.000
47.12000 139.000
47.13500 142.000
47.15000 151.000
47.16500 164.000
47.18000 140.000
47.19500 131.000
47.21000 124.000
47.22500 135.000
47.24000 151.000
47.25500 158.000
47.27000 155.000
47.28500 161.000
47.30000 148.000
47.31500 141.000
47.33000 142.000
47.34500 159.000
47.36000 160.000
47.37500 164.000
47.39000 147.000
47.40500 149.000
47.42000 125.000
47.43500 139.000
47.45000 156.000
47.46500 135.000
47.48000 147.000
47.49500 135.000
47.51000 161.000
47.52500 175.000
47.54000 153.000
47.55500 149.000
47.57000 143.000
47.58500 144.000
47.60000 141.000
47.61500 142.000
47.63000 145.000
47.64500 126.000
47.66000 146.000
47.67500 136.000
47.69000 150.000
47.70500 150.000
47.72000 147.000
47.73500 164.000
47.75000 151.000
47.76500 148.000
47.78000 150.000
47.79500 148.000
47.81000 137.000
47.82500 154.000
47.84000 139.000
47.85500 161.000
47.87000 149.000
47.88500 146.000
47.90000 160.000
47.91500 141.000
47.93000 134.000
47.94500 143.000
47.96000 162.000
47.97500 149.000
47.99000 120.000
48.00500 128.000
48.02000 146.000
48.03500 132.000
48.05000 132.000
48.06500 129.000
48.08000 150.000
48.09500 154.000
48.11000 143.000
48.12500 140.000
48.14000 133.000
48.15500 145.000
48.17000 134.000
48.18500 142.000
48.20000 132.000
48.21500 158.000
48.23000 119.000
48.24500 123.000
48.26000 128.000
48.27500 146.000
48.29000 135.000
48.30500 141.000
48.32000 127.000
48.33500 143.000
48.35000 132.000
48.36500 130.000
48.38000 133.000
48.39500 127.000
48.41000 131.000
48.42500 136.000
48.44000 132.000
48.45500 140.000
48.47000 133.000
48.48500 143.000
48.50000 138.000
48.51500 156.000
48.53000 151.000
48.54500 123.000
48.56000 131.000
48.57500 134.000
48.59000 139.000
48.60500 133.000
48.62000 137.000
48.63500 143.000
48.65000 151.000
48.66500 142.000
48.68000 143.000
48.69500 139.000
48.71000 136.000
48.72500 133.000
48.74000 148.000
48.75500 147.000
48.77000 151.000
48.78500 136.000
48.80000 125.000
48.81500 143.000
48.83000 135.000
48.84500 127.000
48.86000 137.000
48.87500 132.000
48.89000 134.000
48.90500 140.000
48.92000 124.000
48.93500 125.000
48.95000 144.000
48.96500 147.000
48.98000 133.000
48.99500 130.000
49.01000 137.000
49.02500 149.000
49.04000 143.000
49.05500 134.000
49.07000 129.000
49.08500 135.000
49.10000 110.000
49.11500 123.000
49.13000 125.000
49.14500 128.000
49.16000 126.000
49.17500 136.000
49.19000 122.000
49.20500 134.000
49.22000 139.000
49.23500 146.000
49.25000 157.000
49.26500 125.000
49.28000 139.000
49.29500 129.000
49.31000 132.000
49.32500 147.000
49.34000 127.000
49.35500 126.000
49.37000 128.000
49.38500 124.000
49.40000 144.000
49.41500 141.000
49.43000 132.000
49.44500 133.000
49.46000 139.000
49.47500 147.000
49.49000 142.000
49.50500 143.000
49.52000 139.000
49.53500 131.000
49.55000 128.000
49.56500 130.000
49.58000 132.000
49.59500 136.000
49.61000 132.000
49.62500 139.000
49.64000 135.000
49.65500 126.000
49.67000 134.000
49.68500 111.000
49.70000 134.000
49.71500 126.000
49.73000 128.000
49.74500 134.000
49.76000 133.000
49.77500 126.000
49.79000 125.000
49.80500 124.000
49.82000 120.000
49.83500 122.000
49.85000 138.000
49.86500 130.000
49.88000 137.000
49.89500 158.000
49.91000 144.000
49.92500 130.000
49.94000 117.000
49.95500 116.000
49.97000 136.000
49.98500 125.000
50.00000 126.000
50.01500 133.000
50.03000 117.000
50.04500 131.000
50.06000 145.000
50.07500 138.000
50.09000 125.000
50.10500 122.000
50.12000 120.000
50.13500 133.000
50.15000 125.000
50.16500 119.000
50.18000 150.000
50.19500 147.000
50.21000 127.000
50.22500 131.000
50.24000 119.000
50.25500 145.000
50.27000 128.000
50.28500 129.000
50.30000 140.000
50.31500 123.000
50.33000 109.000
50.34500 132.000
50.36000 135.000
50.37500 130.000
50.39000 118.000
50.40500 118.000
50.42000 131.000
50.43500 115.000
50.45000 114.000
50.46500 125.000
50.48000 133.000
50.49500 134.000
50.51000 136.000
50.52500 129.000
50.54000 123.000
50.55500 119.000
50.57000 127.000
50.58500 150.000
50.60000 145.000
50.61500 123.000
50.63000 118.000
50.64500 118.000
50.66000 131.000
50.67500 131.000
50.69000 133.000
50.70500 123.000
50.72000 135.000
50.73500 142.000
50.75000 142.000
50.76500 122.000
50.78000 128.000
50.79500 150.000
50.81000 138.000
50.82500 129.000
50.84000 126.000
50.85500 137.000
50.87000 129.000
50.88500 116.000
50.90000 112.000
50.91500 117.000
50.93000 127.000
50.94500 137.000
50.96000 126.000
50.97500 127.000
50.99000 134.000
51.00500 124.000
51.02000 135.000
51.03500 131.000
51.05000 148.000
51.06500 141.000
51.08000 124.000
51.09500 124.000
51.11000 123.000
51.12500 145.000
51.14000 141.000
51.15500 128.000
51.17000 124.000
51.18500 123.000
51.20000 127.000
51.21500 134.000
51.23000 120.000
51.24500 126.000
51.26000 117.000
51.27500 149.000
51.29000 149.000
51.30500 125.000
51.32000 141.000
51.33500 119.000
51.35000 152.000
51.36500 129.000
51.38000 124.000
51.39500 154.000
51.41000 134.000
51.42500 128.000
51.44000 139.000
51.45500 133.000
51.47000 126.000
51.48500 133.000
51.50000 146.000
51.51500 144.000
51.53000 129.000
51.54500 127.000
51.56000 147.000
51.57500 137.000
51.59000 130.000
51.60500 119.000
51.62000 130.000
51.63500 117.000
51.65000 111.000
51.66500 120.000
51.68000 127.000
51.69500 114.000
51.71000 123.000
51.72500 119.000
51.74000 133.000
51.75500 123.000
51.77000 122.000
51.78500 134.000
51.80000 128.000
51.81500 119.000
51.83000 119.000
51.84500 123.000
51.86000 133.000
51.87500 125.000
51.89000 149.000
51.90500 131.000
51.92000 123.000
51.93500 142.000
51.95000 128.000
51.96500 112.000
51.98000 123.000
51.99500 115.000
52.01000 138.000
52.02500 135.000
52.04000 142.000
52.05500 129.000
52.07000 109.000
52.08500 125.000
52.10000 143.000
52.11500 121.000
52.13000 114.000
52.14500 128.000
52.16000 116.000
52.17500 115.000
52.19000 118.000
52.20500 134.000
52.22000 137.000
52.23500 122.000
52.25000 119.000
52.26500 129.000
52.28000 126.000
52.29500 124.000
52.31000 129.000
52.32500 132.000
52.34000 126.000
52.35500 120.000
52.37000 129.000
52.38500 134.000
52.40000 131.000
52.41500 146.000
52.43000 142.000
52.44500 117.000
52.46000 117.000
52.47500 137.000
52.49000 123.000
52.50500 116.000
52.52000 131.000
52.53500 127.000
52.55000 126.000
52.56500 125.000
52.58000 137.000
52.59500 136.000
52.61000 120.000
52.62500 107.000
52.64000 127.000
52.65500 126.000
52.67000 126.000
52.68500 128.000
52.70000 116.000
52.71500 129.000
52.73000 115.000
52.74500 103.000
52.76000 110.000
52.77500 108.000
52.79000 111.000
52.80500 137.000
52.82000 134.000
52.83500 135.000
52.85000 123.000
52.86500 109.000
52.88000 131.000
52.89500 107.000
52.91000 117.000
52.92500 135.000
52.94000 136.000
52.95500 130.000
52.97000 129.000
52.98500 117.000
53.00000 120.000
53.01500 114.000
53.03000 121.000
53.04500 128.000
53.06000 139.000
53.07500 131.000
53.09000 117.000
53.10500 109.000
53.12000 126.000
53.13500 124.000
53.15000 118.000
53.16500 137.000
53.18000 142.000
53.19500 132.000
53.21000 122.000
53.22500 136.000
53.24000 112.000
53.25500 105.000
53.27000 119.000
53.28500 133.000
53.30000 133.000
53.31500 127.000
53.33000 135.000
53.34500 131.000
53.36000 119.000
53.37500 123.000
53.39000 135.000
53.40500 138.000
53.42000 129.000
53.43500 112.000
53.45000 115.000
53.46500 106.000
53.48000 112.000
53.49500 117.000
53.51000 128.000
53.52500 138.000
53.54000 135.000
53.55500 130.000
53.57000 125.000
53.58500 122.000
53.60000 115.000
53.61500 107.000
53.63000 112.000
53.64500 117.000
53.66000 120.000
53.67500 112.000
53.69000 122.000
53.70500 125.000
53.72000 125.000
53.73500 121.000
53.75000 127.000
53.76500 125.000
53.78000 105.000
53.79500 135.000
53.81000 130.000
53.82500 118.000
53.84000 147.000
53.85500 134.000
53.87000 122.000
53.88500 121.000
53.90000 115.000
53.91500 118.000
53.93000 130.000
53.94500 134.000
53.96000 130.000
53.97500 103.000
53.99000 125.000
54.00500 133.000
54.02000 129.000
54.03500 131.000
54.05000 140.000
54.06500 133.000
54.08000 126.000
54.09500 131.000
54.11000 129.000
54.12500 117.000
54.14000 108.000
54.15500 113.000
54.17000 127.000
54.18500 121.000
54.20000 137.000
54.21500 117.000
54.23000 118.000
54.24500 129.000
54.26000 115.000
54.27500 139.000
54.29000 123.000
54.30500 156.000
54.32000 135.000
54.33500 126.000
54.35000 102.000
54.36500 121.000
54.38000 109.000
54.39500 124.000
54.41000 117.000
54.42500 120.000
54.44000 132.000
54.45500 134.000
54.47000 115.000
54.48500 112.000
54.50000 121.000
54.51500 134.000
54.53000 125.000
54.54500 120.000
54.56000 117.000
54.57500 119.000
54.59000 107.000
54.60500 108.000
54.62000 112.000
54.63500 127.000
54.65000 105.000
54.66500 125.000
54.68000 137.000
54.69500 116.000
54.71000 127.000
54.72500 139.000
54.74000 137.000
54.75500 113.000
54.77000 128.000
54.78500 120.000
54.80000 122.000
54.81500 120.000
54.83000 120.000
54.84500 126.000
54.86000 120.000
54.87500 129.000
54.89000 117.000
54.90500 134.000
54.92000 98.000
54.93500 92.000
54.95000 112.000
54.96500 117.000
54.98000 122.000
54.99500 110.000
55.01000 119.000
55.02500 110.000
55.04000 110.000
55.05500 127.000
55.07000 137.000
55.08500 117.000
55.10000 134.000
55.11500 116.000
55.13000 110.000
55.14500 135.000
55.16000 131.000
55.17500 124.000
55.19000 126.000
55.20500 132.000
55.22000 111.000
55.23500 121.000
55.25000 121.000
55.26500 114.000
55.28000 112.000
55.29500 120.000
55.31000 113.000
55.32500 120.000
55.34000 133.000
55.35500 116.000
55.37000 122.000
55.38500 136.000
55.40000 123.000
55.41500 122.000
55.43000 138.000
55.44500 113.000
55.46000 117.000
55.47500 109.000
55.49000 109.000
55.50500 109.000
55.52000 116.000
55.53500 127.000
55.55000 124.000
55.56500 136.000
55.58000 130.000
55.59500 114.000
55.61000 112.000
55.62500 118.000
55.64000 111.000
55.65500 102.000
55.67000 115.000
55.68500 124.000
55.70000 142.000
55.71500 114.000
55.73000 119.000
55.74500 123.000
55.76000 118.000
55.77500 108.000
55.79000 121.000
55.80500 127.000
55.82000 131.000
55.83500 130.000
55.85000 127.000
55.86500 112.000
55.88000 136.000
55.89500 138.000
55.91000 119.000
55.92500 107.000
55.94000 131.000
55.95500 132.000
55.97000 124.000
55.98500 127.000
56.00000 117.000
56.01500 124.000
56.03000 112.000
56.04500 134.000
56.06000 121.000
56.07500 128.000
56.09000 134.000
56.10500 122.000
56.12000 124.000
56.13500 134.000
56.15000 128.000
56.16500 124.000
56.18000 126.000
56.19500 135.000
56.21000 122.000
56.22500 130.000
56.24000 122.000
56.25500 117.000
56.27000 115.000
56.28500 113.000
56.30000 121.000
56.31500 122.000
56.33000 130.000
56.34500 118.000
56.36000 122.000
56.37500 107.000
56.39000 109.000
56.40500 107.000
56.42000 121.000
56.43500 136.000
56.45000 120.000
56.46500 106.000
56.48000 127.000
56.49500 128.000
56.51000 134.000
56.52500 127.000
56.54000 119.000
56.55500 129.000
56.57000 130.000
56.58500 134.000
56.60000 114.000
56.61500 126.000
56.63000 122.000
56.64500 116.000
56.66000 105.000
56.67500 110.000
56.69000 102.000
56.70500 126.000
56.72000 140.000
56.73500 126.000
56.75000 130.000
56.76500 115.000
56.78000 116.000
56.79500 125.000
56.81000 128.000
56.82500 126.000
56.84000 115.000
56.85500 118.000
56.87000 129.000
56.88500 124.000
56.90000 124.000
56.91500 126.000
56.93000 130.000
56.94500 131.000
56.96000 117.000
56.97500 121.000
56.99000 134.000
57.00500 130.000
57.02000 135.000
57.03500 126.000
57.05000 114.000
57.06500 124.000
57.08000 133.000
57.09500 138.000
57.11000 127.000
57.12500 123.000
57.14000 138.000
57.15500 144.000
57.17000 139.000
57.18500 140.000
57.20000 131.000
57.21500 136.000
57.23000 132.000
57.24500 141.000
57.26000 139.000
57.27500 141.000
57.29000 149.000
57.30500 157.000
57.32000 148.000
57.33500 135.000
57.35000 134.000
57.36500 134.000
57.38000 135.000
57.39500 156.000
57.41000 168.000
57.42500 162.000
57.44000 163.000
57.45500 158.000
57.47000 159.000
57.48500 172.000
57.50000 155.000
57.51500 149.000
57.53000 159.000
57.54500 173.000
57.56000 167.000
57.57500 172.000
57.59000 173.000
57.60500 157.000
57.62000 167.000
57.63500 165.000
57.65000 146.000
57.66500 158.000
57.68000 133.000
57.69500 148.000
57.71000 145.000
57.72500 150.000
57.74000 165.000
57.75500 137.000
57.77000 121.000
57.78500 131.000
57.80000 139.000
57.81500 132.000
57.83000 135.000
57.84500 135.000
57.86000 130.000
57.87500 125.000
57.89000 131.000
57.90500 139.000
57.92000 141.000
57.93500 138.000
57.95000 133.000
57.96500 122.000
57.98000 132.000
57.99500 127.000
58.01000 119.000
58.02500 121.000
58.04000 122.000
58.05500 135.000
58.07000 134.000
58.08500 107.000
58.10000 121.000
58.11500 135.000
58.13000 125.000
58.14500 118.000
58.16000 142.000
58.17500 120.000
58.19000 129.000
58.20500 120.000
58.22000 128.000
58.23500 132.000
58.25000 117.000
58.26500 126.000
58.28000 120.000
58.29500 126.000
58.31000 107.000
58.32500 122.000
58.34000 132.000
58.35500 123.000
58.37000 122.000
58.38500 130.000
58.40000 117.000
58.41500 113.000
58.43000 127.000
58.44500 126.000
58.46000 107.000
58.47500 101.000
58.49000 107.000
58.50500 118.000
58.52000 114.000
58.53500 134.000
58.55000 133.000
58.56500 108.000
58.58000 115.000
58.59500 126.000
58.61000 136.000
58.62500 131.000
58.64000 125.000
58.65500 111.000
58.67000 111.000
58.68500 115.000
58.70000 116.000
58.71500 108.000
58.73000 109.000
58.74500 103.000
58.76000 105.000
58.77500 133.000
58.79000 124.000
58.80500 128.000
58.82000 130.000
58.83500 116.000
58.85000 117.000
58.86500 114.000
58.88000 100.000
58.89500 120.000
58.91000 121.000
58.92500 114.000
58.94000 125.000
58.95500 112.000
58.97000 105.000
58.98500 109.000
59.00000 113.000
59.01500 120.000
59.03000 121.000
59.04500 125.000
59.06000 107.000
59.07500 110.000
59.09000 112.000
59.10500 131.000
59.12000 125.000
59.13500 128.000
59.15000 126.000
59.16500 120.000
59.18000 109.000
59.19500 124.000
59.21000 110.000
59.22500 97.000
59.24000 111.000
59.25500 113.000
59.27000 128.000
59.28500 126.000
59.30000 111.000
59.31500 119.000
59.33000 117.000
59.34500 102.000
59.36000 121.000
59.37500 115.000
59.39000 106.000
59.40500 103.000
59.42000 101.000
59.43500 108.000
59.45000 95.000
59.46500 101.000
59.48000 122.000
59.49500 113.000
59.51000 110.000
59.52500 114.000
59.54000 106.000
59.55500 120.000
59.57000 130.000
59.58500 107.000
59.60000 93.000
59.61500 107.000
59.63000 117.000
59.64500 114.000
59.66000 106.000
59.67500 116.000
59.69000 133.000
59.70500 123.000
59.72000 127.000
59.73500 121.000
59.75000 118.000
59.76500 106.000
59.78000 119.000
59.79500 121.000
59.81000 101.000
59.82500 110.000
59.84000 130.000
59.85500 131.000
59.87000 121.000
59.88500 102.000
59.90000 125.000
59.91500 118.000
59.93000 116.000
59.94500 124.000
59.96000 119.000
59.97500 112.000
59.99000 106.000
60.00500 113.000
60.02000 111.000
60.03500 100.000
60.05000 120.000
60.06500 107.000
60.08000 93.000
60.09500 116.000
60.11000 121.000
60.12500 117.000
60.14000 115.000
60.15500 109.000
60.17000 121.000
60.18500 120.000
60.20000 112.000
60.21500 104.000
60.23000 118.000
60.24500 106.000
60.26000 108.000
60.27500 107.000
60.29000 114.000
60.30500 107.000
60.32000 107.000
60.33500 135.000
60.35000 133.000
60.36500 128.000
60.38000 122.000
60.39500 123.000
60.41000 119.000
60.42500 113.000
60.44000 109.000
60.45500 106.000
60.47000 116.000
60.48500 110.000
60.50000 113.000
60.51500 104.000
60.53000 95.000
60.54500 130.000
60.56000 120.000
60.57500 108.000
60.59000 118.000
60.60500 110.000
60.62000 109.000
60.63500 119.000
60.65000 110.000
60.66500 120.000
60.68000 114.000
60.69500 108.000
60.71000 108.000
60.72500 97.000
60.74000 119.000
60.75500 126.000
60.77000 120.000
60.78500 112.000
60.80000 102.000
60.81500 111.000
60.83000 113.000
60.84500 108.000
60.86000 104.000
60.87500 112.000
60.89000 115.000
60.90500 100.000
60.92000 118.000
60.93500 124.000
60.95000 122.000
60.96500 110.000
60.98000 115.000
60.99500 106.000
61.01000 139.000
61.02500 105.000
61.04000 103.000
61.05500 122.000
61.07000 116.000
61.08500 113.000
61.10000 117.000
61.11500 113.000
61.13000 117.000
61.14500 119.000
61.16000 108.000
61.17500 102.000
61.19000 97.000
61.20500 120.000
61.22000 121.000
61.23500 119.000
61.25000 127.000
61.26500 116.000
61.28000 118.000
61.29500 107.000
61.31000 101.000
61.32500 114.000
61.34000 103.000
61.35500 106.000
61.37000 119.000
61.38500 111.000
61.40000 119.000
61.41500 133.000
61.43000 125.000
61.44500 108.000
61.46000 107.000
61.47500 103.000
61.49000 122.000
61.50500 112.000
61.52000 124.000
61.53500 100.000
61.55000 102.000
61.56500 113.000
61.58000 110.000
61.59500 106.000
61.61000 101.000
61.62500 112.000
61.64000 107.000
61.65500 129.000
61.67000 112.000
61.68500 106.000
61.70000 110.000
61.71500 110.000
61.73000 99.000
61.74500 109.000
61.76000 115.000
61.77500 100.000
61.79000 105.000
61.80500 132.000
61.82000 122.000
61.83500 121.000
61.85000 116.000
61.86500 104.000
61.88000 103.000
61.89500 115.000
61.91000 99.000
61.92500 100.000
61.94000 108.000
61.95500 106.000
61.97000 117.000
61.98500 118.000
