2.00000 1.000
2.01500 1.000
2.03000 1.000
2.04500 0.000
2.06000 1.000
2.07500 1.000
2.09000 1.000
2.10500 3.000
2.12000 2.000
2.13500 1.000
2.15000 1.000
2.16500 1.000
2.18000 2.000
2.19500 1.000
2.21000 1.000
2.22500 1.000
2.24000 1.000
2.25500 1.000
2.27000 1.000
2.28500 0.000
2.30000 2.000
2.31500 0.000
2.33000 1.000
2.34500 2.000
2.36000 1.000
2.37500 2.000
2.39000 3.000
2.40500 2.000
2.42000 2.000
2.43500 5.000
2.45000 2.000
2.46500 1.000
2.48000 4.000
2.49500 4.000
2.51000 1.000
2.52500 2.000
2.54000 0.000
2.55500 2.000
2.57000 1.000
2.58500 0.000
2.60000 1.000
2.61500 1.000
2.63000 1.000
2.64500 5.000
2.66000 5.000
2.67500 5.000
2.69000 9.000
2.70500 11.000
2.72000 11.000
2.73500 15.000
2.75000 19.000
2.76500 20.000
2.78000 25.000
2.79500 29.000
2.81000 44.000
2.82500 61.000
2.84000 82.000
2.85500 124.000
2.87000 147.000
2.88500 170.000
2.90000 216.000
2.91500 223.000
2.93000 263.000
2.94500 255.000
2.96000 271.000
2.97500 253.000
2.99000 245.000
3.00500 253.000
3.02000 232.000
3.03500 217.000
3.05000 230.000
3.06500 239.000
3.08000 233.000
3.09500 213.000
3.11000 230.000
3.12500 229.000
3.14000 227.000
3.15500 232.000
3.17000 207.000
3.18500 202.000
3.20000 223.000
3.21500 229.000
3.23000 192.000
3.24500 225.000
3.26000 203.000
3.27500 215.000
3.29000 198.000
3.30500 178.000
3.32000 196.000
3.33500 220.000
3.35000 202.000
3.36500 184.000
3.38000 208.000
3.39500 188.000
3.41000 183.000
3.42500 199.000
3.44000 191.000
3.45500 179.000
3.47000 195.000
3.48500 196.000
3.50000 182.000
3.51500 191.000
3.53000 184.000
3.54500 186.000
3.56000 180.000
3.57500 182.000
3.59000 195.000
3.60500 167.000
3.62000 161.000
3.63500 160.000
3.65000 163.000
3.66500 157.000
3.68000 180.000
3.69500 176.000
3.71000 178.000
3.72500 164.000
3.74000 152.000
3.75500 147.000
3.77000 172.000
3.78500 169.000
3.80000 171.000
3.81500 160.000
3.83000 156.000
3.84500 148.000
3.86000 149.000
3.87500 160.000
3.89000 165.000
3.90500 144.000
3.92000 164.000
3.93500 172.000
3.95000 156.000
3.96500 156.000
3.98000 167.000
3.99500 153.000
4.01000 163.000
4.02500 141.000
4.04000 158.000
4.05500 143.000
4.07000 158.000
4.08500 163.000
4.10000 143.000
4.11500 156.000
4.13000 136.000
4.14500 147.000
4.16000 152.000
4.17500 153.000
4.19000 124.000
4.20500 130.000
4.22000 152.000
4.23500 135.000
4.25000 138.000
4.26500 151.000
4.28000 139.000
4.29500 142.000
4.31000 151.000
4.32500 138.000
4.34000 135.000
4.35500 130.000
4.37000 141.000
4.38500 152.000
4.40000 139.000
4.41500 137.000
4.43000 131.000
4.44500 127.000
4.46000 148.000
4.47500 146.000
4.49000 153.000
4.50500 141.000
4.52000 146.000
4.53500 132.000
4.55000 150.000
4.56500 136.000
4.58000 118.000
4.59500 134.000
4.61000 111.000
4.62500 139.000
4.64000 126.000
4.65500 142.000
4.67000 141.000
4.68500 122.000
4.70000 152.000
4.71500 141.000
4.73000 139.000
4.74500 146.000
4.76000 122.000
4.77500 127.000
4.79000 136.000
4.80500 128.000
4.82000 117.000
4.83500 124.000
4.85000 135.000
4.86500 114.000
4.88000 121.000
4.89500 124.000
4.91000 140.000
4.92500 143.000
4.94000 117.000
4.95500 121.000
4.97000 136.000
4.98500 150.000
5.00000 131.000
5.01500 128.000
5.03000 138.000
5.04500 115.000
5.06000 138.000
5.07500 128.000
5.09000 132.000
5.10500 136.000
5.12000 132.000
5.13500 143.000
5.15000 140.000
5.16500 131.000
5.18000 137.000
5.19500 133.000
5.21000 123.000
5.22500 125.000
5.24000 127.000
5.25500 125.000
5.27000 134.000
5.28500 135.000
5.30000 132.000
5.31500 149.000
5.33000 119.000
5.34500 132.000
5.36000 143.000
5.37500 128.000
5.39000 127.000
5.40500 138.000
5.42000 116.000
5.43500 126.000
5.45000 121.000
5.46500 123.000
5.48000 135.000
5.49500 124.000
5.51000 145.000
5.52500 144.000
5.54000 121.000
5.55500 123.000
5.57000 118.000
5.58500 134.000
5.60000 136.000
5.61500 134.000
5.63000 109.000
5.64500 112.000
5.66000 143.000
5.67500 132.000
5.69000 141.000
5.70500 130.000
5.72000 135.000
5.73500 129.000
5.75000 113.000
5.76500 122.000
5.78000 140.000
5.79500 141.000
5.81000 119.000
5.82500 127.000
5.84000 111.000
5.85500 127.000
5.87000 130.000
5.88500 125.000
5.90000 141.000
5.91500 132.000
5.93000 119.000
5.94500 127.000
5.96000 143.000
5.97500 133.000
5.99000 144.000
6.00500 119.000
6.02000 124.000
6.03500 114.000
6.05000 127.000
6.06500 140.000
6.08000 144.000
6.09500 127.000
6.11000 123.000
6.12500 129.000
6.14000 131.000
6.15500 134.000
6.17000 142.000
6.18500 138.000
6.20000 129.000
6.21500 144.000
6.23000 156.000
6.24500 158.000
6.26000 139.000
6.27500 136.000
6.29000 146.000
6.30500 146.000
6.32000 138.000
6.33500 134.000
6.35000 156.000
6.36500 140.000
6.38000 133.000
6.39500 133.000
6.41000 148.000
6.42500 137.000
6.44000 119.000
6.45500 124.000
6.47000 141.000
6.48500 126.000
6.50000 115.000
6.51500 116.000
6.53000 128.000
6.54500 134.000
6.56000 132.000
6.57500 129.000
6.59000 129.000
6.60500 125.000
6.62000 117.000
6.63500 132.000
6.65000 120.000
6.66500 132.000
6.68000 126.000
6.69500 128.000
6.71000 131.000
6.72500 134.000
6.74000 124.000
6.75500 134.000
6.77000 128.000
6.78500 128.000
6.80000 140.000
6.81500 130.000
6.83000 129.000
6.84500 127.000
6.86000 143.000
6.87500 127.000
6.89000 140.000
6.90500 149.000
6.92000 149.000
6.93500 146.000
6.95000 143.000
6.96500 138.000
6.98000 155.000
6.99500 180.000
7.01000 167.000
7.02500 155.000
7.04000 173.000
7.05500 169.000
7.07000 170.000
7.08500 203.000
7.10000 209.000
7.11500 226.000
7.13000 220.000
7.14500 244.000
7.16000 278.000
7.17500 298.000
7.19000 317.000
7.20500 385.000
7.22000 431.000
7.23500 492.000
7.25000 560.000
7.26500 661.000
7.28000 842.000
7.29500 930.000
7.31000 903.000
7.32500 669.000
7.34000 404.000
7.35500 236.000
7.37000 148.000
7.38500 153.000
7.40000 170.000
7.41500 141.000
7.43000 123.000
7.44500 132.000
7.46000 126.000
7.47500 121.000
7.49000 136.000
7.50500 126.000
7.52000 126.000
7.53500 122.000
7.55000 114.000
7.56500 118.000
7.58000 135.000
7.59500 140.000
7.61000 141.000
7.62500 137.000
7.64000 120.000
7.65500 131.000
7.67000 142.000
7.68500 123.000
7.70000 140.000
7.71500 154.000
7.73000 130.000
7.74500 131.000
7.76000 147.000
7.77500 118.000
7.79000 135.000
7.80500 149.000
7.82000 118.000
7.83500 118.000
7.85000 141.000
7.86500 143.000
7.88000 133.000
7.89500 132.000
7.91000 124.000
7.92500 132.000
7.94000 125.000
7.95500 133.000
7.97000 121.000
7.98500 119.000
8.00000 129.000
8.01500 131.000
8.03000 113.000
8.04500 123.000
8.06000 122.000
8.07500 138.000
8.09000 118.000
8.10500 138.000
8.12000 123.000
8.13500 152.000
8.15000 140.000
8.16500 134.000
8.18000 131.000
8.19500 118.000
8.21000 128.000
8.22500 131.000
8.24000 127.000
8.25500 140.000
8.27000 121.000
8.28500 139.000
8.30000 137.000
8.31500 118.000
8.33000 124.000
8.34500 136.000
8.36000 132.000
8.37500 139.000
8.39000 133.000
8.40500 132.000
8.42000 127.000
8.43500 150.000
8.45000 136.000
8.46500 151.000
8.48000 136.000
8.49500 115.000
8.51000 130.000
8.52500 131.000
8.54000 140.000
8.55500 125.000
8.57000 136.000
8.58500 136.000
8.60000 131.000
8.61500 140.000
8.63000 132.000
8.64500 122.000
8.66000 138.000
8.67500 150.000
8.69000 137.000
8.70500 136.000
8.72000 143.000
8.73500 147.000
8.75000 131.000
8.76500 144.000
8.78000 151.000
8.79500 138.000
8.81000 136.000
8.82500 149.000
8.84000 130.000
8.85500 131.000
8.87000 134.000
8.88500 128.000
8.90000 136.000
8.91500 134.000
8.93000 130.000
8.94500 120.000
8.96000 131.000
8.97500 128.000
8.99000 120.000
9.00500 115.000
9.02000 124.000
9.03500 129.000
9.05000 141.000
9.06500 125.000
9.08000 120.000
9.09500 134.000
9.11000 134.000
9.12500 125.000
9.14000 128.000
9.15500 128.000
9.17000 120.000
9.18500 126.000
9.20000 127.000
9.21500 119.000
9.23000 128.000
9.24500 125.000
9.26000 123.000
9.27500 130.000
9.29000 127.000
9.30500 128.000
9.32000 119.000
9.33500 120.000
9.35000 130.000
9.36500 114.000
9.38000 124.000
9.39500 133.000
9.41000 119.000
9.42500 135.000
9.44000 126.000
9.45500 122.000
9.47000 119.000
9.48500 133.000
9.50000 131.000
9.51500 107.000
9.53000 120.000
9.54500 124.000
9.56000 120.000
9.57500 106.000
9.59000 115.000
9.60500 127.000
9.62000 138.000
9.63500 136.000
9.65000 120.000
9.66500 126.000
9.68000 131.000
9.69500 123.000
9.71000 124.000
9.72500 141.000
9.74000 139.000
9.75500 131.000
9.77000 137.000
9.78500 119.000
9.80000 121.000
9.81500 117.000
9.83000 123.000
9.84500 133.000
9.86000 144.000
9.87500 128.000
9.89000 119.000
9.90500 140.000
9.92000 132.000
9.93500 129.000
9.95000 146.000
9.96500 144.000
9.98000 143.000
9.99500 145.000
10.01000 151.000
10.02500 164.000
10.04000 165.000
10.05500 161.000
10.07000 180.000
10.08500 191.000
10.10000 211.000
10.11500 242.000
10.13000 271.000
10.14500 294.000
10.16000 319.000
10.17500 378.000
10.19000 440.000
10.20500 532.000
10.22000 619.000
10.23500 779.000
10.25000 940.000
10.26500 1115.000
10.28000 1308.000
10.29500 1536.000
10.31000 1788.000
10.32500 1949.000
10.34000 1817.000
10.35500 1206.000
10.37000 675.000
10.38500 353.000
10.40000 212.000
10.41500 185.000
10.43000 144.000
10.44500 141.000
10.46000 154.000
10.47500 127.000
10.49000 155.000
10.50500 153.000
10.52000 138.000
10.53500 123.000
10.55000 136.000
10.56500 128.000
10.58000 128.000
10.59500 142.000
10.61000 134.000
10.62500 136.000
10.64000 126.000
10.65500 127.000
10.67000 130.000
10.68500 139.000
10.70000 137.000
10.71500 123.000
10.73000 133.000
10.74500 131.000
10.76000 124.000
10.77500 128.000
10.79000 133.000
10.80500 114.000
10.82000 117.000
10.83500 130.000
10.85000 143.000
10.86500 132.000
10.88000 127.000
10.89500 129.000
10.91000 131.000
10.92500 133.000
10.94000 102.000
10.95500 122.000
10.97000 122.000
10.98500 126.000
11.00000 130.000
11.01500 132.000
11.03000 130.000
11.04500 129.000
11.06000 132.000
11.07500 124.000
11.09000 133.000
11.10500 139.000
11.12000 132.000
11.13500 124.000
11.15000 121.000
11.16500 120.000
11.18000 140.000
11.19500 155.000
11.21000 137.000
11.22500 135.000
11.24000 118.000
11.25500 138.000
11.27000 132.000
11.28500 131.000
11.30000 119.000
11.31500 129.000
11.33000 117.000
11.34500 135.000
11.36000 137.000
11.37500 123.000
11.39000 130.000
11.40500 133.000
11.42000 120.000
11.43500 121.000
11.45000 127.000
11.46500 134.000
11.48000 134.000
11.49500 127.000
11.51000 133.000
11.52500 122.000
11.54000 129.000
11.55500 134.000
11.57000 140.000
11.58500 128.000
11.60000 132.000
11.61500 129.000
11.63000 138.000
11.64500 152.000
11.66000 141.000
11.67500 131.000
11.69000 129.000
11.70500 122.000
11.72000 144.000
11.73500 129.000
11.75000 122.000
11.76500 124.000
11.78000 125.000
11.79500 113.000
11.81000 124.000
11.82500 129.000
11.84000 156.000
11.85500 157.000
11.87000 153.000
11.88500 139.000
11.90000 137.000
11.91500 145.000
11.93000 140.000
11.94500 147.000
11.96000 159.000
11.97500 173.000
11.99000 153.000
12.00500 165.000
12.02000 180.000
12.03500 173.000
12.05000 165.000
12.06500 173.000
12.08000 181.000
12.09500 185.000
12.11000 189.000
12.12500 159.000
12.14000 158.000
12.15500 147.000
12.17000 128.000
12.18500 137.000
12.20000 152.000
12.21500 136.000
12.23000 143.000
12.24500 153.000
12.26000 129.000
12.27500 132.000
12.29000 145.000
12.30500 132.000
12.32000 131.000
12.33500 158.000
12.35000 135.000
12.36500 133.000
12.38000 156.000
12.39500 163.000
12.41000 166.000
12.42500 178.000
12.44000 193.000
12.45500 196.000
12.47000 243.000
12.48500 270.000
12.50000 314.000
12.51500 343.000
12.53000 423.000
12.54500 499.000
12.56000 625.000
12.57500 730.000
12.59000 882.000
12.60500 1061.000
12.62000 1183.000
12.63500 1391.000
12.65000 1518.000
12.66500 1412.000
12.68000 1083.000
12.69500 651.000
12.71000 336.000
12.72500 198.000
12.74000 169.000
12.75500 149.000
12.77000 136.000
12.78500 128.000
12.80000 136.000
12.81500 142.000
12.83000 126.000
12.84500 123.000
12.86000 128.000
12.87500 141.000
12.89000 134.000
12.90500 130.000
12.92000 134.000
12.93500 135.000
12.95000 120.000
12.96500 133.000
12.98000 139.000
12.99500 129.000
13.01000 130.000
13.02500 143.000
13.04000 144.000
13.05500 132.000
13.07000 137.000
13.08500 127.000
13.10000 130.000
13.11500 123.000
13.13000 125.000
13.14500 125.000
13.16000 119.000
13.17500 123.000
13.19000 125.000
13.20500 136.000
13.22000 133.000
13.23500 132.000
13.25000 115.000
13.26500 114.000
13.28000 128.000
13.29500 107.000
13.31000 115.000
13.32500 138.000
13.34000 139.000
13.35500 141.000
13.37000 133.000
13.38500 137.000
13.40000 125.000
13.41500 126.000
13.43000 120.000
13.44500 126.000
13.46000 108.000
13.47500 116.000
13.49000 128.000
13.50500 113.000
13.52000 130.000
13.53500 125.000
13.55000 118.000
13.56500 131.000
13.58000 127.000
13.59500 137.000
13.61000 107.000
13.62500 118.000
13.64000 132.000
13.65500 116.000
13.67000 137.000
13.68500 137.000
13.70000 127.000
13.71500 135.000
13.73000 123.000
13.74500 128.000
13.76000 121.000
13.77500 135.000
13.79000 116.000
13.80500 112.000
13.82000 116.000
13.83500 114.000
13.85000 135.000
13.86500 133.000
13.88000 131.000
13.89500 133.000
13.91000 129.000
13.92500 117.000
13.94000 126.000
13.95500 128.000
13.97000 123.000
13.98500 128.000
14.00000 124.000
14.01500 131.000
14.03000 124.000
14.04500 114.000
14.06000 115.000
14.07500 117.000
14.09000 113.000
14.10500 123.000
14.12000 128.000
14.13500 124.000
14.15000 127.000
14.16500 117.000
14.18000 121.000
14.19500 124.000
14.21000 139.000
14.22500 150.000
14.24000 171.000
14.25500 131.000
14.27000 108.000
14.28500 125.000
14.30000 128.000
14.31500 139.000
14.33000 133.000
14.34500 127.000
14.36000 124.000
14.37500 115.000
14.39000 138.000
14.40500 133.000
14.42000 126.000
14.43500 128.000
14.45000 137.000
14.46500 153.000
14.48000 154.000
14.49500 133.000
14.51000 157.000
14.52500 170.000
14.54000 170.000
14.55500 182.000
14.57000 175.000
14.58500 199.000
14.60000 213.000
14.61500 202.000
14.63000 230.000
14.64500 192.000
14.66000 167.000
14.67500 136.000
14.69000 113.000
14.70500 134.000
14.72000 151.000
14.73500 123.000
14.75000 121.000
14.76500 133.000
14.78000 142.000
14.79500 137.000
14.81000 131.000
14.82500 134.000
14.84000 115.000
14.85500 131.000
14.87000 128.000
14.88500 127.000
14.90000 126.000
14.91500 129.000
14.93000 132.000
14.94500 131.000
14.96000 117.000
14.97500 128.000
14.99000 137.000
15.00500 134.000
15.02000 124.000
15.03500 130.000
15.05000 117.000
15.06500 131.000
15.08000 122.000
15.09500 132.000
15.11000 121.000
15.12500 134.000
15.14000 127.000
15.15500 124.000
15.17000 122.000
15.18500 141.000
15.20000 110.000
15.21500 126.000
15.23000 142.000
15.24500 141.000
15.26000 129.000
15.27500 124.000
15.29000 141.000
15.30500 129.000
15.32000 118.000
15.33500 108.000
15.35000 121.000
15.36500 123.000
15.38000 121.000
15.39500 147.000
15.41000 128.000
15.42500 141.000
15.44000 143.000
15.45500 137.000
15.47000 137.000
15.48500 122.000
15.50000 117.000
15.51500 118.000
15.53000 119.000
15.54500 130.000
15.56000 127.000
15.57500 123.000
15.59000 120.000
15.60500 131.000
15.62000 133.000
15.63500 129.000
15.65000 131.000
15.66500 118.000
15.68000 115.000
15.69500 126.000
15.71000 127.000
15.72500 139.000
15.74000 144.000
15.75500 150.000
15.77000 126.000
15.78500 125.000
15.80000 114.000
15.81500 140.000
15.83000 134.000
15.84500 131.000
15.86000 144.000
15.87500 132.000
15.89000 157.000
15.90500 146.000
15.92000 150.000
15.93500 142.000
15.95000 137.000
15.96500 124.000
15.98000 142.000
15.99500 123.000
16.01000 132.000
16.02500 120.000
16.04000 130.000
16.05500 136.000
16.07000 143.000
16.08500 130.000
16.10000 131.000
16.11500 151.000
16.13000 145.000
16.14500 148.000
16.16000 150.000
16.17500 160.000
16.19000 159.000
16.20500 158.000
16.22000 165.000
16.23500 180.000
16.25000 186.000
16.26500 205.000
16.28000 247.000
16.29500 273.000
16.31000 314.000
16.32500 360.000
16.34000 412.000
16.35500 415.000
16.37000 377.000
16.38500 339.000
16.40000 262.000
16.41500 159.000
16.43000 148.000
16.44500 143.000
16.46000 135.000
16.47500 139.000
16.49000 133.000
16.50500 143.000
16.52000 144.000
16.53500 130.000
16.55000 134.000
16.56500 112.000
16.58000 134.000
16.59500 143.000
16.61000 162.000
16.62500 126.000
16.64000 115.000
16.65500 125.000
16.67000 122.000
16.68500 132.000
16.70000 122.000
16.71500 131.000
16.73000 124.000
16.74500 120.000
16.76000 131.000
16.77500 145.000
16.79000 135.000
16.80500 120.000
16.82000 136.000
16.83500 134.000
16.85000 139.000
16.86500 135.000
16.88000 136.000
16.89500 139.000
16.91000 120.000
16.92500 131.000
16.94000 141.000
16.95500 141.000
16.97000 132.000
16.98500 123.000
17.00000 128.000
17.01500 133.000
17.03000 127.000
17.04500 136.000
17.06000 132.000
17.07500 122.000
17.09000 135.000
17.10500 116.000
17.12000 126.000
17.13500 147.000
17.15000 138.000
17.16500 141.000
17.18000 144.000
17.19500 137.000
17.21000 134.000
17.22500 131.000
17.24000 111.000
17.25500 123.000
17.27000 135.000
17.28500 133.000
17.30000 117.000
17.31500 134.000
17.33000 123.000
17.34500 118.000
17.36000 138.000
17.37500 139.000
17.39000 147.000
17.40500 143.000
17.42000 131.000
17.43500 139.000
17.45000 134.000
17.46500 126.000
17.48000 131.000
17.49500 133.000
17.51000 143.000
17.52500 124.000
17.54000 123.000
17.55500 133.000
17.57000 147.000
17.58500 140.000
17.60000 143.000
17.61500 120.000
17.63000 135.000
17.64500 120.000
17.66000 123.000
17.67500 122.000
17.69000 137.000
17.70500 142.000
17.72000 146.000
17.73500 136.000
17.75000 138.000
17.76500 144.000
17.78000 139.000
17.79500 147.000
17.81000 144.000
17.82500 145.000
17.84000 149.000
17.85500 159.000
17.87000 144.000
17.88500 165.000
17.90000 140.000
17.91500 137.000
17.93000 131.000
17.94500 148.000
17.96000 138.000
17.97500 123.000
17.99000 123.000
18.00500 134.000
18.02000 144.000
18.03500 128.000
18.05000 136.000
18.06500 129.000
18.08000 143.000
18.09500 146.000
18.11000 127.000
18.12500 139.000
18.14000 123.000
18.15500 118.000
18.17000 125.000
18.18500 132.000
18.20000 148.000
18.21500 129.000
18.23000 140.000
18.24500 156.000
18.26000 144.000
18.27500 134.000
18.29000 126.000
18.30500 139.000
18.32000 153.000
18.33500 133.000
18.35000 142.000
18.36500 122.000
18.38000 117.000
18.39500 140.000
18.41000 155.000
18.42500 146.000
18.44000 141.000
18.45500 152.000
18.47000 122.000
18.48500 133.000
18.50000 131.000
18.51500 141.000
18.53000 150.000
18.54500 167.000
18.56000 158.000
18.57500 150.000
18.59000 146.000
18.60500 148.000
18.62000 147.000
18.63500 144.000
18.65000 144.000
18.66500 146.000
18.68000 163.000
18.69500 140.000
18.71000 139.000
18.72500 148.000
18.74000 147.000
18.75500 149.000
18.77000 143.000
18.78500 155.000
18.80000 141.000
18.81500 155.000
18.83000 135.000
18.84500 145.000
18.86000 148.000
18.87500 152.000
18.89000 176.000
18.90500 162.000
18.92000 166.000
18.93500 190.000
18.95000 196.000
18.96500 178.000
18.98000 184.000
18.99500 150.000
19.01000 182.000
19.02500 159.000
19.04000 143.000
19.05500 153.000
19.07000 145.000
19.08500 142.000
19.10000 145.000
19.11500 145.000
19.13000 123.000
19.14500 145.000
19.16000 138.000
19.17500 147.000
19.19000 149.000
19.20500 132.000
19.22000 132.000
19.23500 143.000
19.25000 136.000
19.26500 128.000
19.28000 133.000
19.29500 137.000
19.31000 147.000
19.32500 154.000
19.34000 149.000
19.35500 144.000
19.37000 129.000
19.38500 139.000
19.40000 129.000
19.41500 147.000
19.43000 142.000
19.44500 137.000
19.46000 156.000
19.47500 152.000
19.49000 146.000
19.50500 170.000
19.52000 147.000
19.53500 147.000
19.55000 157.000
19.56500 158.000
19.58000 143.000
19.59500 160.000
19.61000 143.000
19.62500 157.000
19.64000 155.000
19.65500 157.000
19.67000 156.000
19.68500 170.000
19.70000 150.000
19.71500 152.000
19.73000 159.000
19.74500 155.000
19.76000 146.000
19.77500 151.000
19.79000 170.000
19.80500 154.000
19.82000 161.000
19.83500 172.000
19.85000 145.000
19.86500 152.000
19.88000 134.000
19.89500 149.000
19.91000 140.000
19.92500 156.000
19.94000 141.000
19.95500 127.000
19.97000 151.000
19.98500 150.000
20.00000 152.000
20.01500 155.000
20.03000 144.000
20.04500 171.000
20.06000 157.000
20.07500 153.000
20.09000 144.000
20.10500 144.000
20.12000 156.000
20.13500 151.000
20.15000 160.000
20.16500 162.000
20.18000 147.000
20.19500 149.000
20.21000 141.000
20.22500 167.000
20.24000 159.000
20.25500 150.000
20.27000 144.000
20.28500 151.000
20.30000 164.000
20.31500 155.000
20.33000 156.000
20.34500 164.000
20.36000 160.000
20.37500 146.000
20.39000 140.000
20.40500 146.000
20.42000 150.000
20.43500 138.000
20.45000 164.000
20.46500 163.000
20.48000 154.000
20.49500 162.000
20.51000 158.000
20.52500 164.000
20.54000 146.000
20.55500 147.000
20.57000 176.000
20.58500 155.000
20.60000 165.000
20.61500 174.000
20.63000 167.000
20.64500 184.000
20.66000 184.000
20.67500 195.000
20.69000 189.000
20.70500 224.000
20.72000 240.000
20.73500 231.000
20.75000 219.000
20.76500 214.000
20.78000 175.000
20.79500 195.000
20.81000 191.000
20.82500 212.000
20.84000 229.000
20.85500 204.000
20.87000 221.000
20.88500 204.000
20.90000 200.000
20.91500 191.000
20.93000 154.000
20.94500 158.000
20.96000 171.000
20.97500 161.000
20.99000 198.000
21.00500 175.000
21.02000 183.000
21.03500 179.000
21.05000 192.000
21.06500 188.000
21.08000 168.000
21.09500 156.000
21.11000 179.000
21.12500 174.000
21.14000 170.000
21.15500 162.000
21.17000 137.000
21.18500 157.000
21.20000 152.000
21.21500 151.000
21.23000 165.000
21.24500 160.000
21.26000 185.000
21.27500 177.000
21.29000 181.000
21.30500 181.000
21.32000 177.000
21.33500 165.000
21.35000 160.000
21.36500 183.000
21.38000 157.000
21.39500 167.000
21.41000 180.000
21.42500 166.000
21.44000 171.000
21.45500 187.000
21.47000 194.000
21.48500 198.000
21.50000 197.000
21.51500 208.000
21.53000 215.000
21.54500 233.000
21.56000 253.000
21.57500 251.000
21.59000 300.000
21.60500 290.000
21.62000 301.000
21.63500 340.000
21.65000 363.000
21.66500 355.000
21.68000 382.000
21.69500 368.000
21.71000 349.000
21.72500 256.000
21.74000 269.000
21.75500 238.000
21.77000 218.000
21.78500 253.000
21.80000 254.000
21.81500 271.000
21.83000 296.000
21.84500 332.000
21.86000 349.000
21.87500 377.000
21.89000 451.000
21.90500 454.000
21.92000 502.000
21.93500 565.000
21.95000 681.000
21.96500 822.000
21.98000 1018.000
21.99500 1146.000
22.01000 1096.000
22.02500 906.000
22.04000 652.000
22.05500 464.000
22.07000 319.000
22.08500 256.000
22.10000 210.000
22.11500 177.000
22.13000 176.000
22.14500 195.000
22.16000 181.000
22.17500 176.000
22.19000 155.000
22.20500 157.000
22.22000 177.000
22.23500 184.000
22.25000 168.000
22.26500 166.000
22.28000 174.000
22.29500 166.000
22.31000 148.000
22.32500 150.000
22.34000 159.000
22.35500 175.000
22.37000 160.000
22.38500 160.000
22.40000 152.000
22.41500 170.000
22.43000 161.000
22.44500 165.000
22.46000 166.000
22.47500 171.000
22.49000 161.000
22.50500 164.000
22.52000 170.000
22.53500 145.000
22.55000 169.000
22.56500 170.000
22.58000 164.000
22.59500 169.000
22.61000 153.000
22.62500 168.000
22.64000 156.000
22.65500 157.000
22.67000 178.000
22.68500 166.000
22.70000 166.000
22.71500 166.000
22.73000 154.000
22.74500 154.000
22.76000 171.000
22.77500 166.000
22.79000 147.000
22.80500 170.000
22.82000 161.000
22.83500 164.000
22.85000 163.000
22.86500 149.000
22.88000 154.000
22.89500 165.000
22.91000 163.000
22.92500 181.000
22.94000 179.000
22.95500 161.000
22.97000 156.000
22.98500 162.000
23.00000 173.000
23.01500 191.000
23.03000 202.000
23.04500 211.000
23.06000 206.000
23.07500 226.000
23.09000 239.000
23.10500 255.000
23.12000 267.000
23.13500 270.000
23.15000 298.000
23.16500 341.000
23.18000 385.000
23.19500 381.000
23.21000 386.000
23.22500 343.000
23.24000 268.000
23.25500 235.000
23.27000 214.000
23.28500 181.000
23.30000 176.000
23.31500 166.000
23.33000 148.000
23.34500 151.000
23.36000 152.000
23.37500 169.000
23.39000 151.000
23.40500 145.000
23.42000 162.000
23.43500 171.000
23.45000 144.000
23.46500 180.000
23.48000 163.000
23.49500 170.000
23.51000 166.000
23.52500 158.000
23.54000 168.000
23.55500 178.000
23.57000 167.000
23.58500 172.000
23.60000 162.000
23.61500 178.000
23.63000 166.000
23.64500 151.000
23.66000 173.000
23.67500 196.000
23.69000 186.000
23.70500 188.000
23.72000 169.000
23.73500 152.000
23.75000 152.000
23.76500 152.000
23.78000 160.000
23.79500 159.000
23.81000 184.000
23.82500 158.000
23.84000 174.000
23.85500 171.000
23.87000 179.000
23.88500 181.000
23.90000 174.000
23.91500 192.000
23.93000 183.000
23.94500 175.000
23.96000 175.000
23.97500 208.000
23.99000 233.000
24.00500 215.000
24.02000 231.000
24.03500 266.000
24.05000 255.000
24.06500 254.000
24.08000 288.000
24.09500 308.000
24.11000 310.000
24.12500 355.000
24.14000 377.000
24.15500 433.000
24.17000 480.000
24.18500 453.000
24.20000 548.000
24.21500 621.000
24.23000 640.000
24.24500 727.000
24.26000 829.000
24.27500 927.000
24.29000 1067.000
24.30500 1296.000
24.32000 1555.000
24.33500 1805.000
24.35000 1873.000
24.36500 1817.000
24.38000 1596.000
24.39500 1114.000
24.41000 720.000
24.42500 510.000
24.44000 368.000
24.45500 281.000
24.47000 251.000
24.48500 244.000
24.50000 207.000
24.51500 212.000
24.53000 185.000
24.54500 188.000
24.56000 176.000
24.57500 175.000
24.59000 193.000
24.60500 190.000
24.62000 188.000
24.63500 159.000
24.65000 162.000
24.66500 194.000
24.68000 200.000
24.69500 154.000
24.71000 173.000
24.72500 186.000
24.74000 171.000
24.75500 185.000
24.77000 171.000
24.78500 166.000
24.80000 172.000
24.81500 166.000
24.83000 169.000
24.84500 188.000
24.86000 179.000
24.87500 179.000
24.89000 187.000
24.90500 167.000
24.92000 168.000
24.93500 180.000
24.95000 171.000
24.96500 181.000
24.98000 184.000
24.99500 195.000
25.01000 166.000
25.02500 182.000
25.04000 168.000
25.05500 153.000
25.07000 178.000
25.08500 192.000
25.10000 178.000
25.11500 165.000
25.13000 162.000
25.14500 163.000
25.16000 184.000
25.17500 174.000
25.19000 185.000
25.20500 194.000
25.22000 189.000
25.23500 172.000
25.25000 187.000
25.26500 182.000
25.28000 171.000
25.29500 193.000
25.31000 187.000
25.32500 179.000
25.34000 198.000
25.35500 178.000
25.37000 176.000
25.38500 178.000
25.40000 193.000
25.41500 178.000
25.43000 180.000
25.44500 195.000
25.46000 167.000
25.47500 177.000
25.49000 169.000
25.50500 172.000
25.52000 170.000
25.53500 162.000
25.55000 183.000
25.56500 174.000
25.58000 165.000
25.59500 190.000
25.61000 196.000
25.62500 186.000
25.64000 152.000
25.65500 173.000
25.67000 184.000
25.68500 176.000
25.70000 174.000
25.71500 167.000
25.73000 166.000
25.74500 164.000
25.76000 170.000
25.77500 168.000
25.79000 173.000
25.80500 171.000
25.82000 156.000
25.83500 194.000
25.85000 184.000
25.86500 170.000
25.88000 164.000
25.89500 182.000
25.91000 179.000
25.92500 179.000
25.94000 157.000
25.95500 164.000
25.97000 180.000
25.98500 187.000
26.00000 182.000
26.01500 172.000
26.03000 184.000
26.04500 185.000
26.06000 184.000
26.07500 194.000
26.09000 198.000
26.10500 176.000
26.12000 197.000
26.13500 228.000
26.15000 225.000
26.16500 211.000
26.18000 242.000
26.19500 274.000
26.21000 272.000
26.22500 265.000
26.24000 284.000
26.25500 331.000
26.27000 315.000
26.28500 329.000
26.30000 333.000
26.31500 359.000
26.33000 402.000
26.34500 420.000
26.36000 418.000
26.37500 398.000
26.39000 436.000
26.40500 494.000
26.42000 504.000
26.43500 624.000
26.45000 726.000
26.46500 863.000
26.48000 1032.000
26.49500 1245.000
26.51000 1355.000
26.52500 1285.000
26.54000 1067.000
26.55500 875.000
26.57000 661.000
26.58500 531.000
26.60000 462.000
26.61500 452.000
26.63000 503.000
26.64500 547.000
26.66000 557.000
26.67500 447.000
26.69000 343.000
26.70500 269.000
26.72000 249.000
26.73500 232.000
26.75000 223.000
26.76500 239.000
26.78000 240.000
26.79500 203.000
26.81000 227.000
26.82500 225.000
26.84000 211.000
26.85500 189.000
26.87000 193.000
26.88500 214.000
26.90000 223.000
26.91500 201.000
26.93000 207.000
26.94500 205.000
26.96000 200.000
26.97500 167.000
26.99000 182.000
27.00500 192.000
27.02000 192.000
27.03500 203.000
27.05000 197.000
27.06500 166.000
27.08000 182.000
27.09500 202.000
27.11000 189.000
27.12500 199.000
27.14000 189.000
27.15500 207.000
27.17000 219.000
27.18500 198.000
27.20000 213.000
27.21500 225.000
27.23000 231.000
27.24500 220.000
27.26000 231.000
27.27500 281.000
27.29000 322.000
27.30500 353.000
27.32000 403.000
27.33500 424.000
27.35000 465.000
27.36500 481.000
27.38000 540.000
27.39500 574.000
27.41000 592.000
27.42500 655.000
27.44000 729.000
27.45500 849.000
27.47000 1011.000
27.48500 1200.000
27.50000 1364.000
27.51500 1615.000
27.53000 1773.000
27.54500 1656.000
27.56000 1383.000
27.57500 1031.000
27.59000 711.000
27.60500 504.000
27.62000 383.000
27.63500 341.000
27.65000 301.000
27.66500 266.000
27.68000 214.000
27.69500 204.000
27.71000 200.000
27.72500 218.000
27.74000 203.000
27.75500 193.000
27.77000 199.000
27.78500 206.000
27.80000 189.000
27.81500 207.000
27.83000 171.000
27.84500 181.000
27.86000 187.000
27.87500 189.000
27.89000 166.000
27.90500 184.000
27.92000 196.000
27.93500 185.000
27.95000 176.000
27.96500 172.000
27.98000 190.000
27.99500 189.000
28.01000 172.000
28.02500 184.000
28.04000 185.000
28.05500 181.000
28.07000 186.000
28.08500 203.000
28.10000 188.000
28.11500 176.000
28.13000 172.000
28.14500 193.000
28.16000 208.000
28.17500 221.000
28.19000 219.000
28.20500 211.000
28.22000 196.000
28.23500 196.000
28.25000 206.000
28.26500 211.000
28.28000 206.000
28.29500 196.000
28.31000 176.000
28.32500 182.000
28.34000 190.000
28.35500 175.000
28.37000 215.000
28.38500 204.000
28.40000 176.000
28.41500 177.000
28.43000 196.000
28.44500 193.000
28.46000 180.000
28.47500 184.000
28.49000 177.000
28.50500 190.000
28.52000 192.000
28.53500 203.000
28.55000 178.000
28.56500 188.000
28.58000 182.000
28.59500 188.000
28.61000 183.000
28.62500 190.000
28.64000 167.000
28.65500 177.000
28.67000 184.000
28.68500 179.000
28.70000 188.000
28.71500 168.000
28.73000 160.000
28.74500 170.000
28.76000 180.000
28.77500 179.000
28.79000 212.000
28.80500 180.000
28.82000 191.000
28.83500 204.000
28.85000 191.000
28.86500 181.000
28.88000 190.000
28.89500 183.000
28.91000 185.000
28.92500 174.000
28.94000 206.000
28.95500 219.000
28.97000 209.000
28.98500 184.000
29.00000 210.000
29.01500 207.000
29.03000 195.000
29.04500 199.000
29.06000 197.000
29.07500 197.000
29.09000 207.000
29.10500 195.000
29.12000 232.000
29.13500 238.000
29.15000 222.000
29.16500 230.000
29.18000 237.000
29.19500 232.000
29.21000 256.000
29.22500 255.000
29.24000 270.000
29.25500 265.000
29.27000 266.000
29.28500 283.000
29.30000 296.000
29.31500 309.000
29.33000 287.000
29.34500 289.000
29.36000 292.000
29.37500 315.000
29.39000 342.000
29.40500 330.000
29.42000 367.000
29.43500 393.000
29.45000 432.000
29.46500 448.000
29.48000 407.000
29.49500 414.000
29.51000 382.000
29.52500 306.000
29.54000 274.000
29.55500 242.000
29.57000 239.000
29.58500 199.000
29.60000 206.000
29.61500 202.000
29.63000 203.000
29.64500 191.000
29.66000 191.000
29.67500 206.000
29.69000 198.000
29.70500 178.000
29.72000 193.000
29.73500 215.000
29.75000 224.000
29.76500 219.000
29.78000 208.000
29.79500 185.000
29.81000 175.000
29.82500 188.000
29.84000 198.000
29.85500 196.000
29.87000 171.000
29.88500 184.000
29.90000 186.000
29.91500 196.000
29.93000 194.000
29.94500 201.000
29.96000 221.000
29.97500 216.000
29.99000 211.000
30.00500 230.000
30.02000 222.000
30.03500 243.000
30.05000 226.000
30.06500 260.000
30.08000 255.000
30.09500 291.000
30.11000 331.000
30.12500 337.000
30.14000 353.000
30.15500 413.000
30.17000 490.000
30.18500 470.000
30.20000 516.000
30.21500 526.000
30.23000 550.000
30.24500 591.000
30.26000 607.000
30.27500 643.000
30.29000 690.000
30.30500 795.000
30.32000 919.000
30.33500 1021.000
30.35000 1237.000
30.36500 1416.000
30.38000 1574.000
30.39500 1752.000
30.41000 1743.000
30.42500 1543.000
30.44000 1192.000
30.45500 896.000
30.47000 624.000
30.48500 432.000
30.50000 325.000
30.51500 287.000
30.53000 253.000
30.54500 229.000
30.56000 209.000
30.57500 204.000
30.59000 196.000
30.60500 193.000
30.62000 175.000
30.63500 186.000
30.65000 177.000
30.66500 172.000
30.68000 169.000
30.69500 179.000
30.71000 177.000
30.72500 178.000
30.74000 175.000
30.75500 159.000
30.77000 160.000
30.78500 161.000
30.80000 185.000
30.81500 180.000
30.83000 148.000
30.84500 156.000
30.86000 179.000
30.87500 173.000
30.89000 178.000
30.90500 171.000
30.92000 174.000
30.93500 177.000
30.95000 183.000
30.96500 180.000
30.98000 195.000
30.99500 191.000
31.01000 207.000
31.02500 186.000
31.04000 210.000
31.05500 195.000
31.07000 203.000
31.08500 211.000
31.10000 193.000
31.11500 209.000
31.13000 201.000
31.14500 197.000
31.16000 209.000
31.17500 193.000
31.19000 214.000
31.20500 220.000
31.22000 247.000
31.23500 249.000
31.25000 279.000
31.26500 295.000
31.28000 354.000
31.29500 363.000
31.31000 326.000
31.32500 341.000
31.34000 291.000
31.35500 275.000
31.37000 229.000
31.38500 214.000
31.40000 202.000
31.41500 175.000
31.43000 169.000
31.44500 190.000
31.46000 187.000
31.47500 186.000
31.49000 164.000
31.50500 179.000
31.52000 171.000
31.53500 171.000
31.55000 179.000
31.56500 165.000
31.58000 171.000
31.59500 167.000
31.61000 177.000
31.62500 199.000
31.64000 191.000
31.65500 215.000
31.67000 220.000
31.68500 226.000
31.70000 200.000
31.71500 231.000
31.73000 254.000
31.74500 247.000
31.76000 245.000
31.77500 269.000
31.79000 276.000
31.80500 259.000
31.82000 268.000
31.83500 291.000
31.85000 293.000
31.86500 329.000
31.88000 328.000
31.89500 379.000
31.91000 367.000
31.92500 393.000
31.94000 411.000
31.95500 453.000
31.97000 428.000
31.98500 407.000
32.00000 360.000
32.01500 300.000
32.03000 294.000
32.04500 265.000
32.06000 240.000
32.07500 234.000
32.09000 224.000
32.10500 224.000
32.12000 209.000
32.13500 195.000
32.15000 208.000
32.16500 196.000
32.18000 216.000
32.19500 230.000
32.21000 201.000
32.22500 202.000
32.24000 190.000
32.25500 196.000
32.27000 178.000
32.28500 167.000
32.30000 174.000
32.31500 147.000
32.33000 175.000
32.34500 180.000
32.36000 182.000
32.37500 175.000
32.39000 185.000
32.40500 181.000
32.42000 168.000
32.43500 172.000
32.45000 151.000
32.46500 161.000
32.48000 166.000
32.49500 163.000
32.51000 161.000
32.52500 167.000
32.54000 148.000
32.55500 165.000
32.57000 152.000
32.58500 161.000
32.60000 154.000
32.61500 159.000
32.63000 178.000
32.64500 159.000
32.66000 169.000
32.67500 174.000
32.69000 169.000
32.70500 188.000
32.72000 187.000
32.73500 215.000
32.75000 225.000
32.76500 217.000
32.78000 237.000
32.79500 243.000
32.81000 236.000
32.82500 249.000
32.84000 238.000
32.85500 255.000
32.87000 278.000
32.88500 294.000
32.90000 294.000
32.91500 283.000
32.93000 298.000
32.94500 309.000
32.96000 328.000
32.97500 386.000
32.99000 430.000
33.00500 465.000
33.02000 525.000
33.03500 554.000
33.05000 546.000
33.06500 488.000
33.08000 442.000
33.09500 353.000
33.11000 291.000
33.12500 230.000
33.14000 208.000
33.15500 199.000
33.17000 191.000
33.18500 170.000
33.20000 154.000
33.21500 169.000
33.23000 171.000
33.24500 143.000
33.26000 155.000
33.27500 158.000
33.29000 164.000
33.30500 182.000
33.32000 152.000
33.33500 156.000
33.35000 170.000
33.36500 149.000
33.38000 160.000
33.39500 152.000
33.41000 154.000
33.42500 172.000
33.44000 156.000
33.45500 181.000
33.47000 172.000
33.48500 168.000
33.50000 197.000
33.51500 202.000
33.53000 185.000
33.54500 206.000
33.56000 207.000
33.57500 212.000
33.59000 211.000
33.60500 228.000
33.62000 216.000
33.63500 229.000
33.65000 249.000
33.66500 292.000
33.68000 280.000
33.69500 254.000
33.71000 278.000
33.72500 269.000
33.74000 285.000
33.75500 259.000
33.77000 279.000
33.78500 319.000
33.80000 342.000
33.81500 367.000
33.83000 396.000
33.84500 445.000
33.86000 502.000
33.87500 513.000
33.89000 552.000
33.90500 532.000
33.92000 445.000
33.93500 348.000
33.95000 289.000
33.96500 242.000
33.98000 252.000
33.99500 212.000
34.01000 195.000
34.02500 187.000
34.04000 172.000
34.05500 154.000
34.07000 147.000
34.08500 154.000
34.10000 165.000
34.11500 142.000
34.13000 171.000
34.14500 150.000
34.16000 163.000
34.17500 157.000
34.19000 159.000
34.20500 170.000
34.22000 150.000
34.23500 151.000
34.25000 168.000
34.26500 165.000
34.28000 161.000
34.29500 154.000
34.31000 142.000
34.32500 148.000
34.34000 155.000
34.35500 173.000
34.37000 167.000
34.38500 179.000
34.40000 172.000
34.41500 186.000
34.43000 214.000
34.44500 234.000
34.46000 216.000
34.47500 238.000
34.49000 296.000
34.50500 296.000
34.52000 311.000
34.53500 318.000
34.55000 294.000
34.56500 300.000
34.58000 313.000
34.59500 311.000
34.61000 369.000
34.62500 396.000
34.64000 396.000
34.65500 480.000
34.67000 562.000
34.68500 588.000
34.70000 630.000
34.71500 685.000
34.73000 593.000
34.74500 478.000
34.76000 402.000
34.77500 321.000
34.79000 237.000
34.80500 229.000
34.82000 202.000
34.83500 172.000
34.85000 166.000
34.86500 158.000
34.88000 178.000
34.89500 172.000
34.91000 163.000
34.92500 168.000
34.94000 157.000
34.95500 150.000
34.97000 143.000
34.98500 152.000
35.00000 132.000
35.01500 126.000
35.03000 135.000
35.04500 152.000
35.06000 151.000
35.07500 160.000
35.09000 147.000
35.10500 147.000
35.12000 155.000
35.13500 147.000
35.15000 157.000
35.16500 163.000
35.18000 141.000
35.19500 140.000
35.21000 148.000
35.22500 145.000
35.24000 178.000
35.25500 170.000
35.27000 165.000
35.28500 144.000
35.30000 152.000
35.31500 172.000
35.33000 160.000
35.34500 160.000
35.36000 155.000
35.37500 157.000
35.39000 146.000
35.40500 129.000
35.42000 148.000
35.43500 154.000
35.45000 150.000
35.46500 147.000
35.48000 146.000
35.49500 152.000
35.51000 165.000
35.52500 149.000
35.54000 146.000
35.55500 143.000
35.57000 144.000
35.58500 144.000
35.60000 164.000
35.61500 142.000
35.63000 127.000
35.64500 138.000
35.66000 141.000
35.67500 160.000
35.69000 165.000
35.70500 140.000
35.72000 140.000
35.73500 125.000
35.75000 134.000
35.76500 153.000
35.78000 143.000
35.79500 137.000
35.81000 143.000
35.82500 135.000
35.84000 135.000
35.85500 141.000
35.87000 145.000
35.88500 130.000
35.90000 156.000
35.91500 149.000
35.93000 142.000
35.94500 143.000
35.96000 149.000
35.97500 150.000
35.99000 155.000
36.00500 159.000
36.02000 173.000
36.03500 187.000
36.05000 183.000
36.06500 194.000
36.08000 200.000
36.09500 185.000
36.11000 196.000
36.12500 212.000
36.14000 204.000
36.15500 181.000
36.17000 201.000
36.18500 197.000
36.20000 221.000
36.21500 248.000
36.23000 261.000
36.24500 295.000
36.26000 320.000
36.27500 340.000
36.29000 403.000
36.30500 408.000
36.32000 396.000
36.33500 358.000
36.35000 292.000
36.36500 247.000
36.38000 195.000
36.39500 188.000
36.41000 168.000
36.42500 180.000
36.44000 155.000
36.45500 134.000
36.47000 121.000
36.48500 143.000
36.50000 141.000
36.51500 150.000
36.53000 135.000
36.54500 136.000
36.56000 159.000
36.57500 162.000
36.59000 158.000
36.60500 160.000
36.62000 156.000
36.63500 173.000
36.65000 173.000
36.66500 166.000
36.68000 172.000
36.69500 169.000
36.71000 176.000
36.72500 183.000
36.74000 174.000
36.75500 192.000
36.77000 174.000
36.78500 204.000
36.80000 222.000
36.81500 215.000
36.83000 194.000
36.84500 202.000
36.86000 198.000
36.87500 191.000
36.89000 208.000
36.90500 191.000
36.92000 192.000
36.93500 187.000
36.95000 179.000
36.96500 168.000
36.98000 170.000
36.99500 165.000
37.01000 162.000
37.02500 161.000
37.04000 151.000
37.05500 150.000
37.07000 158.000
37.08500 172.000
37.10000 145.000
37.11500 134.000
37.13000 143.000
37.14500 143.000
37.16000 149.000
37.17500 138.000
37.19000 122.000
37.20500 129.000
37.22000 129.000
37.23500 122.000
37.25000 119.000
37.26500 126.000
37.28000 109.000
37.29500 120.000
37.31000 139.000
37.32500 140.000
37.34000 121.000
37.35500 124.000
37.37000 111.000
37.38500 146.000
37.40000 127.000
37.41500 134.000
37.43000 135.000
37.44500 128.000
37.46000 138.000
37.47500 121.000
37.49000 145.000
37.50500 129.000
37.52000 117.000
37.53500 104.000
37.55000 101.000
37.56500 112.000
37.58000 119.000
37.59500 125.000
37.61000 112.000
37.62500 114.000
37.64000 121.000
37.65500 127.000
37.67000 120.000
37.68500 113.000
37.70000 131.000
37.71500 154.000
37.73000 142.000
37.74500 134.000
37.76000 124.000
37.77500 144.000
37.79000 138.000
37.80500 132.000
37.82000 130.000
37.83500 134.000
37.85000 128.000
37.86500 122.000
37.88000 131.000
37.89500 138.000
37.91000 125.000
37.92500 111.000
37.94000 122.000
37.95500 129.000
37.97000 147.000
37.98500 149.000
38.00000 126.000
38.01500 121.000
38.03000 123.000
38.04500 130.000
38.06000 132.000
38.07500 119.000
38.09000 141.000
38.10500 125.000
38.12000 129.000
38.13500 114.000
38.15000 122.000
38.16500 156.000
38.18000 125.000
38.19500 128.000
38.21000 118.000
38.22500 123.000
38.24000 130.000
38.25500 146.000
38.27000 153.000
38.28500 169.000
38.30000 151.000
38.31500 165.000
38.33000 168.000
38.34500 165.000
38.36000 163.000
38.37500 176.000
38.39000 195.000
38.40500 197.000
38.42000 168.000
38.43500 161.000
38.45000 165.000
38.46500 174.000
38.48000 186.000
38.49500 153.000
38.51000 170.000
38.52500 171.000
38.54000 175.000
38.55500 197.000
38.57000 217.000
38.58500 201.000
38.60000 202.000
38.61500 167.000
38.63000 168.000
38.64500 176.000
38.66000 139.000
38.67500 135.000
38.69000 124.000
38.70500 128.000
38.72000 125.000
38.73500 119.000
38.75000 112.000
38.76500 105.000
38.78000 122.000
38.79500 103.000
38.81000 104.000
38.82500 113.000
38.84000 127.000
38.85500 126.000
38.87000 118.000
38.88500 107.000
38.90000 97.000
38.91500 109.000
38.93000 113.000
38.94500 113.000
38.96000 125.000
38.97500 101.000
38.99000 116.000
39.00500 119.000
39.02000 106.000
39.03500 103.000
39.05000 102.000
39.06500 127.000
39.08000 100.000
39.09500 101.000
39.11000 109.000
39.12500 127.000
39.14000 119.000
39.15500 103.000
39.17000 106.000
39.18500 106.000
39.20000 99.000
39.21500 101.000
39.23000 122.000
39.24500 97.000
39.26000 96.000
39.27500 115.000
39.29000 126.000
39.30500 113.000
39.32000 111.000
39.33500 109.000
39.35000 113.000
39.36500 122.000
39.38000 119.000
39.39500 120.000
39.41000 117.000
39.42500 118.000
39.44000 129.000
39.45500 139.000
39.47000 150.000
39.48500 170.000
39.50000 138.000
39.51500 142.000
39.53000 153.000
39.54500 151.000
39.56000 156.000
39.57500 162.000
39.59000 181.000
39.60500 165.000
39.62000 170.000
39.63500 176.000
39.65000 186.000
39.66500 204.000
39.68000 193.000
39.69500 191.000
39.71000 234.000
39.72500 234.000
39.74000 229.000
39.75500 253.000
39.77000 271.000
39.78500 261.000
39.80000 275.000
39.81500 293.000
39.83000 309.000
39.84500 327.000
39.86000 308.000
39.87500 305.000
39.89000 299.000
39.90500 275.000
39.92000 239.000
39.93500 212.000
39.95000 206.000
39.96500 203.000
39.98000 184.000
39.99500 184.000
40.01000 172.000
40.02500 194.000
40.04000 185.000
40.05500 172.000
40.07000 158.000
40.08500 147.000
40.10000 133.000
40.11500 127.000
40.13000 109.000
40.14500 115.000
40.16000 124.000
40.17500 116.000
40.19000 114.000
40.20500 127.000
40.22000 127.000
40.23500 113.000
40.25000 131.000
40.26500 127.000
40.28000 113.000
40.29500 104.000
40.31000 101.000
40.32500 127.000
40.34000 121.000
40.35500 119.000
40.37000 118.000
40.38500 111.000
40.40000 114.000
40.41500 124.000
40.43000 124.000
40.44500 114.000
40.46000 132.000
40.47500 118.000
40.49000 113.000
40.50500 106.000
40.52000 111.000
40.53500 120.000
40.55000 123.000
40.56500 136.000
40.58000 120.000
40.59500 111.000
40.61000 114.000
40.62500 125.000
40.64000 146.000
40.65500 139.000
40.67000 126.000
40.68500 139.000
40.70000 135.000
40.71500 145.000
40.73000 152.000
40.74500 149.000
40.76000 139.000
40.77500 148.000
40.79000 144.000
40.80500 170.000
40.82000 136.000
40.83500 118.000
40.85000 121.000
40.86500 114.000
40.88000 113.000
40.89500 102.000
40.91000 95.000
40.92500 103.000
40.94000 109.000
40.95500 108.000
40.97000 116.000
40.98500 91.000
41.00000 93.000
41.01500 93.000
41.03000 101.000
41.04500 113.000
41.06000 121.000
41.07500 110.000
41.09000 127.000
41.10500 111.000
41.12000 111.000
41.13500 105.000
41.15000 104.000
41.16500 103.000
41.18000 122.000
41.19500 112.000
41.21000 112.000
41.22500 114.000
41.24000 104.000
41.25500 98.000
41.27000 121.000
41.28500 102.000
41.30000 103.000
41.31500 106.000
41.33000 108.000
41.34500 126.000
41.36000 116.000
41.37500 124.000
41.39000 123.000
41.40500 111.000
41.42000 82.000
41.43500 94.000
41.45000 101.000
41.46500 94.000
41.48000 103.000
41.49500 110.000
41.51000 113.000
41.52500 110.000
41.54000 92.000
41.55500 99.000
41.57000 118.000
41.58500 117.000
41.60000 100.000
41.61500 105.000
41.63000 117.000
41.64500 97.000
41.66000 96.000
41.67500 110.000
41.69000 105.000
41.70500 103.000
41.72000 117.000
41.73500 123.000
41.75000 114.000
41.76500 114.000
41.78000 120.000
41.79500 133.000
41.81000 145.000
41.82500 143.000
41.84000 150.000
41.85500 151.000
41.87000 133.000
41.88500 160.000
41.90000 163.000
41.91500 162.000
41.93000 158.000
41.94500 165.000
41.96000 175.000
41.97500 185.000
41.99000 188.000
42.00500 183.000
42.02000 174.000
42.03500 195.000
42.05000 184.000
42.06500 196.000
42.08000 204.000
42.09500 206.000
42.11000 239.000
42.12500 255.000
42.14000 277.000
42.15500 276.000
42.17000 263.000
42.18500 273.000
42.20000 239.000
42.21500 208.000
42.23000 186.000
42.24500 162.000
42.26000 140.000
42.27500 140.000
42.29000 106.000
42.30500 120.000
42.32000 138.000
42.33500 149.000
42.35000 120.000
42.36500 114.000
42.38000 118.000
42.39500 125.000
42.41000 118.000
42.42500 118.000
42.44000 114.000
42.45500 118.000
42.47000 125.000
42.48500 137.000
42.50000 126.000
42.51500 125.000
42.53000 122.000
42.54500 113.000
42.56000 126.000
42.57500 123.000
42.59000 124.000
42.60500 129.000
42.62000 150.000
42.63500 125.000
42.65000 147.000
42.66500 146.000
42.68000 140.000
42.69500 138.000
42.71000 143.000
42.72500 139.000
42.74000 124.000
42.75500 142.000
42.77000 137.000
42.78500 130.000
42.80000 127.000
42.81500 125.000
42.83000 110.000
42.84500 114.000
42.86000 119.000
42.87500 134.000
42.89000 133.000
42.90500 115.000
42.92000 111.000
42.93500 126.000
42.95000 99.000
42.96500 100.000
42.98000 105.000
42.99500 111.000
43.01000 111.000
43.02500 118.000
43.04000 93.000
43.05500 109.000
43.07000 120.000
43.08500 103.000
43.10000 118.000
43.11500 123.000
43.13000 112.000
43.14500 117.000
43.16000 109.000
43.17500 110.000
43.19000 101.000
43.20500 97.000
43.22000 116.000
43.23500 110.000
43.25000 102.000
43.26500 110.000
43.28000 127.000
43.29500 120.000
43.31000 107.000
43.32500 127.000
43.34000 134.000
43.35500 125.000
43.37000 114.000
43.38500 138.000
43.40000 116.000
43.41500 113.000
43.43000 124.000
43.44500 152.000
43.46000 163.000
43.47500 148.000
43.49000 153.000
43.50500 181.000
43.52000 174.000
43.53500 179.000
43.55000 195.000
43.56500 163.000
43.58000 148.000
43.59500 137.000
43.61000 116.000
43.62500 130.000
43.64000 139.000
43.65500 132.000
43.67000 127.000
43.68500 129.000
43.70000 135.000
43.71500 134.000
43.73000 134.000
43.74500 125.000
43.76000 126.000
43.77500 142.000
43.79000 130.000
43.80500 129.000
43.82000 124.000
43.83500 136.000
43.85000 132.000
43.86500 114.000
43.88000 123.000
43.89500 144.000
43.91000 147.000
43.92500 161.000
43.94000 168.000
43.95500 169.000
43.97000 203.000
43.98500 172.000
44.00000 197.000
44.01500 188.000
44.03000 169.000
44.04500 175.000
44.06000 169.000
44.07500 175.000
44.09000 157.000
44.10500 147.000
44.12000 140.000
44.13500 160.000
44.15000 147.000
44.16500 146.000
44.18000 156.000
44.19500 134.000
44.21000 131.000
44.22500 155.000
44.24000 141.000
44.25500 139.000
44.27000 116.000
44.28500 117.000
44.30000 131.000
44.31500 133.000
44.33000 139.000
44.34500 125.000
44.36000 106.000
44.37500 109.000
44.39000 132.000
44.40500 136.000
44.42000 120.000
44.43500 127.000
44.45000 125.000
44.46500 128.000
44.48000 133.000
44.49500 142.000
44.51000 148.000
44.52500 147.000
44.54000 140.000
44.55500 142.000
44.57000 156.000
44.58500 146.000
44.60000 148.000
44.61500 152.000
44.63000 155.000
44.64500 148.000
44.66000 130.000
44.67500 140.000
44.69000 160.000
44.70500 154.000
44.72000 165.000
44.73500 190.000
44.75000 203.000
44.76500 220.000
44.78000 237.000
44.79500 288.000
44.81000 328.000
44.82500 354.000
44.84000 365.000
44.85500 354.000
44.87000 349.000
44.88500 355.000
44.90000 315.000
44.91500 262.000
44.93000 234.000
44.94500 178.000
44.96000 175.000
44.97500 166.000
44.99000 137.000
45.00500 153.000
45.02000 129.000
45.03500 134.000
45.05000 143.000
45.06500 136.000
45.08000 144.000
45.09500 128.000
45.11000 123.000
45.12500 145.000
45.14000 115.000
45.15500 126.000
45.17000 119.000
45.18500 126.000
45.20000 126.000
45.21500 130.000
45.23000 121.000
45.24500 137.000
45.26000 124.000
45.27500 128.000
45.29000 132.000
45.30500 121.000
45.32000 125.000
45.33500 128.000
45.35000 136.000
45.36500 144.000
45.38000 127.000
45.39500 127.000
45.41000 127.000
45.42500 109.000
45.44000 140.000
45.45500 132.000
45.47000 127.000
45.48500 135.000
45.50000 117.000
45.51500 120.000
45.53000 106.000
45.54500 118.000
45.56000 96.000
45.57500 110.000
45.59000 123.000
45.60500 95.000
45.62000 107.000
45.63500 102.000
45.65000 99.000
45.66500 107.000
45.68000 122.000
45.69500 102.000
45.71000 121.000
45.72500 120.000
45.74000 109.000
45.75500 111.000
45.77000 116.000
45.78500 105.000
45.80000 112.000
45.81500 133.000
45.83000 123.000
45.84500 119.000
45.86000 116.000
45.87500 97.000
45.89000 91.000
45.90500 101.000
45.92000 110.000
45.93500 112.000
45.95000 113.000
45.96500 114.000
45.98000 109.000
45.99500 116.000
46.01000 105.000
46.02500 109.000
46.04000 117.000
46.05500 108.000
46.07000 106.000
46.08500 112.000
46.10000 99.000
46.11500 104.000
46.13000 119.000
46.14500 135.000
46.16000 120.000
46.17500 123.000
46.19000 141.000
46.20500 134.000
46.22000 119.000
46.23500 105.000
46.25000 101.000
46.26500 101.000
46.28000 96.000
46.29500 109.000
46.31000 104.000
46.32500 100.000
46.34000 121.000
46.35500 115.000
46.37000 96.000
46.38500 104.000
46.40000 116.000
46.41500 114.000
46.43000 117.000
46.44500 101.000
46.46000 103.000
46.47500 89.000
46.49000 113.000
46.50500 112.000
46.52000 117.000
46.53500 111.000
46.55000 116.000
46.56500 112.000
46.58000 119.000
46.59500 102.000
46.61000 123.000
46.62500 135.000
46.64000 127.000
46.65500 97.000
46.67000 97.000
46.68500 110.000
46.70000 112.000
46.71500 101.000
46.73000 114.000
46.74500 112.000
46.76000 100.000
46.77500 97.000
46.79000 110.000
46.80500 101.000
46.82000 107.000
46.83500 121.000
46.85000 102.000
46.86500 94.000
46.88000 90.000
46.89500 100.000
46.91000 92.000
46.92500 78.000
46.94000 92.000
46.95500 101.000
46.97000 105.000
46.98500 113.000
47.00000 101.000
47.01500 86.000
47.03000 113.000
47.04500 102.000
47.06000 76.000
47.07500 93.000
47.09000 82.000
47.10500 106.000
47.12000 104.000
47.13500 100.000
47.15000 90.000
47.16500 98.000
47.18000 108.000
47.19500 109.000
47.21000 91.000
47.22500 97.000
47.24000 100.000
47.25500 95.000
47.27000 103.000
47.28500 99.000
47.30000 105.000
47.31500 97.000
47.33000 112.000
47.34500 101.000
47.36000 91.000
47.37500 91.000
47.39000 87.000
47.40500 98.000
47.42000 92.000
47.43500 104.000
47.45000 97.000
47.46500 100.000
47.48000 114.000
47.49500 108.000
47.51000 91.000
47.52500 83.000
47.54000 108.000
47.55500 110.000
47.57000 120.000
47.58500 117.000
47.60000 116.000
47.61500 106.000
47.63000 109.000
47.64500 94.000
47.66000 105.000
47.67500 114.000
47.69000 115.000
47.70500 121.000
47.72000 122.000
47.73500 124.000
47.75000 144.000
47.76500 136.000
47.78000 122.000
47.79500 142.000
47.81000 137.000
47.82500 148.000
47.84000 150.000
47.85500 155.000
47.87000 138.000
47.88500 149.000
47.90000 152.000
47.91500 157.000
47.93000 155.000
47.94500 154.000
47.96000 190.000
47.97500 183.000
47.99000 226.000
48.00500 226.000
48.02000 233.000
48.03500 256.000
48.05000 265.000
48.06500 245.000
48.08000 258.000
48.09500 231.000
48.11000 214.000
48.12500 157.000
48.14000 142.000
48.15500 147.000
48.17000 110.000
48.18500 99.000
48.20000 113.000
48.21500 110.000
48.23000 112.000
48.24500 113.000
48.26000 117.000
48.27500 116.000
48.29000 108.000
48.30500 97.000
48.32000 112.000
48.33500 117.000
48.35000 116.000
48.36500 125.000
48.38000 111.000
48.39500 112.000
48.41000 121.000
48.42500 114.000
48.44000 116.000
48.45500 129.000
48.47000 120.000
48.48500 118.000
48.50000 125.000
48.51500 118.000
48.53000 132.000
48.54500 139.000
48.56000 104.000
48.57500 145.000
48.59000 161.000
48.60500 157.000
48.62000 188.000
48.63500 195.000
48.65000 172.000
48.66500 212.000
48.68000 186.000
48.69500 210.000
48.71000 204.000
48.72500 164.000
48.74000 165.000
48.75500 157.000
48.77000 136.000
48.78500 135.000
48.80000 119.000
48.81500 117.000
48.83000 127.000
48.84500 101.000
48.86000 110.000
48.87500 108.000
48.89000 103.000
48.90500 94.000
48.92000 93.000
48.93500 104.000
48.95000 108.000
48.96500 135.000
48.98000 148.000
48.99500 133.000
49.01000 130.000
49.02500 128.000
49.04000 135.000
49.05500 131.000
49.07000 129.000
49.08500 146.000
49.10000 144.000
49.11500 140.000
49.13000 155.000
49.14500 154.000
49.16000 144.000
49.17500 129.000
49.19000 133.000
49.20500 150.000
49.22000 146.000
49.23500 137.000
49.25000 146.000
49.26500 158.000
49.28000 151.000
49.29500 153.000
49.31000 149.000
49.32500 141.000
49.34000 107.000
49.35500 125.000
49.37000 113.000
49.38500 117.000
49.40000 120.000
49.41500 107.000
49.43000 101.000
49.44500 104.000
49.46000 98.000
49.47500 93.000
49.49000 103.000
49.50500 107.000
49.52000 104.000
49.53500 93.000
49.55000 86.000
49.56500 108.000
49.58000 105.000
49.59500 104.000
49.61000 107.000
49.62500 118.000
49.64000 105.000
49.65500 103.000
49.67000 102.000
49.68500 98.000
49.70000 101.000
49.71500 92.000
49.73000 95.000
49.74500 106.000
49.76000 102.000
49.77500 89.000
49.79000 107.000
49.80500 103.000
49.82000 103.000
49.83500 108.000
49.85000 124.000
49.86500 106.000
49.88000 101.000
49.89500 115.000
49.91000 124.000
49.92500 118.000
49.94000 111.000
49.95500 117.000
49.97000 121.000
49.98500 112.000
50.00000 103.000
50.01500 106.000
50.03000 106.000
50.04500 128.000
50.06000 109.000
50.07500 128.000
50.09000 135.000
50.10500 124.000
50.12000 141.000
50.13500 139.000
50.15000 135.000
50.16500 136.000
50.18000 132.000
50.19500 126.000
50.21000 137.000
50.22500 115.000
50.24000 119.000
50.25500 136.000
50.27000 139.000
50.28500 117.000
50.30000 127.000
50.31500 131.000
50.33000 145.000
50.34500 119.000
50.36000 124.000
50.37500 129.000
50.39000 138.000
50.40500 140.000
50.42000 132.000
50.43500 134.000
50.45000 127.000
50.46500 119.000
50.48000 118.000
50.49500 116.000
50.51000 128.000
50.52500 129.000
50.54000 115.000
50.55500 112.000
50.57000 101.000
50.58500 100.000
50.60000 120.000
50.61500 116.000
50.63000 99.000
50.64500 97.000
50.66000 95.000
50.67500 105.000
50.69000 118.000
50.70500 99.000
50.72000 101.000
50.73500 105.000
50.75000 116.000
50.76500 116.000
50.78000 111.000
50.79500 99.000
50.81000 97.000
50.82500 97.000
50.84000 99.000
50.85500 101.000
50.87000 107.000
50.88500 99.000
50.90000 101.000
50.91500 94.000
50.93000 101.000
50.94500 104.000
50.96000 116.000
50.97500 100.000
50.99000 100.000
51.00500 117.000
51.02000 124.000
51.03500 110.000
51.05000 111.000
51.06500 98.000
51.08000 108.000
51.09500 98.000
51.11000 111.000
51.12500 120.000
51.14000 108.000
51.15500 102.000
51.17000 96.000
51.18500 101.000
51.20000 97.000
51.21500 92.000
51.23000 96.000
51.24500 91.000
51.26000 91.000
51.27500 98.000
51.29000 107.000
51.30500 103.000
51.32000 99.000
51.33500 91.000
51.35000 97.000
51.36500 104.000
51.38000 117.000
51.39500 110.000
51.41000 110.000
51.42500 104.000
51.44000 109.000
51.45500 100.000
51.47000 110.000
51.48500 112.000
51.50000 119.000
51.51500 101.000
51.53000 102.000
51.54500 103.000
51.56000 99.000
51.57500 105.000
51.59000 120.000
51.60500 108.000
51.62000 96.000
51.63500 96.000
51.65000 102.000
51.66500 103.000
51.68000 108.000
51.69500 104.000
51.71000 114.000
51.72500 95.000
51.74000 94.000
51.75500 105.000
51.77000 94.000
51.78500 101.000
51.80000 102.000
51.81500 97.000
51.83000 106.000
51.84500 97.000
51.86000 109.000
51.87500 110.000
51.89000 95.000
51.90500 99.000
51.92000 81.000
51.93500 94.000
51.95000 96.000
51.96500 90.000
51.98000 86.000
51.99500 95.000
52.01000 98.000
52.02500 101.000
52.04000 98.000
52.05500 95.000
52.07000 100.000
52.08500 92.000
52.10000 101.000
52.11500 95.000
52.13000 107.000
52.14500 112.000
52.16000 97.000
52.17500 109.000
52.19000 97.000
52.20500 109.000
52.22000 99.000
52.23500 121.000
52.25000 112.000
52.26500 111.000
52.28000 129.000
52.29500 142.000
52.31000 109.000
52.32500 104.000
52.34000 111.000
52.35500 106.000
52.37000 117.000
52.38500 109.000
52.40000 112.000
52.41500 100.000
52.43000 102.000
52.44500 103.000
52.46000 113.000
52.47500 104.000
52.49000 109.000
52.50500 113.000
52.52000 111.000
52.53500 110.000
52.55000 109.000
52.56500 113.000
52.58000 107.000
52.59500 104.000
52.61000 128.000
52.62500 129.000
52.64000 127.000
52.65500 127.000
52.67000 120.000
52.68500 132.000
52.70000 147.000
52.71500 134.000
52.73000 133.000
52.74500 150.000
52.76000 138.000
52.77500 158.000
52.79000 176.000
52.80500 187.000
52.82000 186.000
52.83500 225.000
52.85000 188.000
52.86500 187.000
52.88000 198.000
52.89500 184.000
52.91000 173.000
52.92500 163.000
52.94000 164.000
52.95500 155.000
52.97000 145.000
52.98500 140.000
53.00000 121.000
53.01500 118.000
53.03000 135.000
53.04500 143.000
53.06000 150.000
53.07500 168.000
53.09000 157.000
53.10500 142.000
53.12000 136.000
53.13500 146.000
53.15000 161.000
53.16500 144.000
53.18000 171.000
53.19500 166.000
53.21000 161.000
53.22500 179.000
53.24000 163.000
53.25500 145.000
53.27000 178.000
53.28500 199.000
53.30000 173.000
53.31500 193.000
53.33000 196.000
53.34500 237.000
53.36000 265.000
53.37500 290.000
53.39000 333.000
53.40500 335.000
53.42000 352.000
53.43500 382.000
53.45000 365.000
53.46500 334.000
53.48000 295.000
53.49500 273.000
53.51000 260.000
53.52500 231.000
53.54000 177.000
53.55500 163.000
53.57000 152.000
53.58500 146.000
53.60000 125.000
53.61500 123.000
53.63000 120.000
53.64500 122.000
53.66000 107.000
53.67500 120.000
53.69000 107.000
53.70500 112.000
53.72000 108.000
53.73500 117.000
53.75000 129.000
53.76500 110.000
53.78000 109.000
53.79500 103.000
53.81000 112.000
53.82500 115.000
53.84000 110.000
53.85500 119.000
53.87000 114.000
53.88500 122.000
53.90000 109.000
53.91500 104.000
53.93000 122.000
53.94500 112.000
53.96000 124.000
53.97500 122.000
53.99000 111.000
54.00500 120.000
54.02000 107.000
54.03500 106.000
54.05000 106.000
54.06500 103.000
54.08000 103.000
54.09500 99.000
54.11000 91.000
54.12500 109.000
54.14000 100.000
54.15500 103.000
54.17000 98.000
54.18500 107.000
54.20000 95.000
54.21500 104.000
54.23000 82.000
54.24500 93.000
54.26000 90.000
54.27500 98.000
54.29000 97.000
54.30500 103.000
54.32000 116.000
54.33500 107.000
54.35000 124.000
54.36500 107.000
54.38000 114.000
54.39500 114.000
54.41000 106.000
54.42500 104.000
54.44000 105.000
54.45500 102.000
54.47000 107.000
54.48500 99.000
54.50000 104.000
54.51500 99.000
54.53000 107.000
54.54500 119.000
54.56000 129.000
54.57500 124.000
54.59000 127.000
54.60500 136.000
54.62000 119.000
54.63500 127.000
54.65000 129.000
54.66500 134.000
54.68000 113.000
54.69500 113.000
54.71000 127.000
54.72500 114.000
54.74000 118.000
54.75500 118.000
54.77000 128.000
54.78500 135.000
54.80000 128.000
54.81500 133.000
54.83000 132.000
54.84500 142.000
54.86000 141.000
54.87500 150.000
54.89000 139.000
54.90500 133.000
54.92000 141.000
54.93500 154.000
54.95000 151.000
54.96500 154.000
54.98000 156.000
54.99500 154.000
55.01000 141.000
55.02500 163.000
55.04000 195.000
55.05500 190.000
55.07000 190.000
55.08500 216.000
55.10000 230.000
55.11500 226.000
55.13000 216.000
55.14500 258.000
55.16000 240.000
55.17500 221.000
55.19000 211.000
55.20500 200.000
55.22000 196.000
55.23500 174.000
55.25000 170.000
55.26500 149.000
55.28000 141.000
55.29500 126.000
55.31000 120.000
55.32500 134.000
55.34000 128.000
55.35500 114.000
55.37000 120.000
55.38500 103.000
55.40000 109.000
55.41500 87.000
55.43000 93.000
55.44500 97.000
55.46000 103.000
55.47500 120.000
55.49000 114.000
55.50500 97.000
55.52000 100.000
55.53500 114.000
55.55000 117.000
55.56500 120.000
55.58000 104.000
55.59500 122.000
55.61000 109.000
55.62500 102.000
55.64000 108.000
55.65500 121.000
55.67000 132.000
55.68500 111.000
55.70000 134.000
55.71500 120.000
55.73000 117.000
55.74500 119.000
55.76000 105.000
55.77500 119.000
55.79000 122.000
55.80500 117.000
55.82000 90.000
55.83500 100.000
55.85000 102.000
55.86500 104.000
55.88000 106.000
55.89500 105.000
55.91000 107.000
55.92500 91.000
55.94000 100.000
55.95500 97.000
55.97000 91.000
55.98500 98.000
56.00000 92.000
56.01500 108.000
56.03000 97.000
56.04500 107.000
56.06000 103.000
56.07500 92.000
56.09000 104.000
56.10500 101.000
56.12000 117.000
56.13500 109.000
56.15000 105.000
56.16500 94.000
56.18000 112.000
56.19500 103.000
56.21000 103.000
56.22500 98.000
56.24000 94.000
56.25500 117.000
56.27000 120.000
56.28500 94.000
56.30000 84.000
56.31500 97.000
56.33000 97.000
56.34500 106.000
56.36000 91.000
56.37500 99.000
56.39000 103.000
56.40500 103.000
56.42000 94.000
56.43500 88.000
56.45000 93.000
56.46500 104.000
56.48000 110.000
56.49500 115.000
56.51000 110.000
56.52500 103.000
56.54000 91.000
56.55500 99.000
56.57000 104.000
56.58500 96.000
56.60000 88.000
56.61500 103.000
56.63000 93.000
56.64500 110.000
56.66000 101.000
56.67500 101.000
56.69000 96.000
56.70500 104.000
56.72000 89.000
56.73500 80.000
56.75000 103.000
56.76500 112.000
56.78000 112.000
56.79500 119.000
56.81000 95.000
56.82500 107.000
56.84000 115.000
56.85500 125.000
56.87000 97.000
56.88500 112.000
56.90000 102.000
56.91500 97.000
56.93000 117.000
56.94500 123.000
56.96000 123.000
56.97500 119.000
56.99000 126.000
57.00500 121.000
57.02000 124.000
57.03500 124.000
57.05000 129.000
57.06500 129.000
57.08000 131.000
57.09500 148.000
57.11000 130.000
57.12500 136.000
57.14000 139.000
57.15500 146.000
57.17000 132.000
57.18500 145.000
57.20000 148.000
57.21500 166.000
57.23000 130.000
57.24500 159.000
57.26000 150.000
57.27500 162.000
57.29000 167.000
57.30500 163.000
57.32000 190.000
57.33500 205.000
57.35000 207.000
57.36500 193.000
57.38000 186.000
57.39500 206.000
57.41000 195.000
57.42500 183.000
57.44000 160.000
57.45500 154.000
57.47000 138.000
57.48500 134.000
57.50000 132.000
57.51500 119.000
57.53000 108.000
57.54500 118.000
57.56000 107.000
57.57500 109.000
57.59000 92.000
57.60500 88.000
57.62000 103.000
57.63500 110.000
57.65000 104.000
57.66500 106.000
57.68000 91.000
57.69500 101.000
57.71000 101.000
57.72500 102.000
57.74000 109.000
57.75500 110.000
57.77000 84.000
57.78500 107.000
57.80000 101.000
57.81500 106.000
57.83000 108.000
57.84500 98.000
57.86000 107.000
57.87500 107.000
57.89000 113.000
57.90500 117.000
57.92000 120.000
57.93500 115.000
57.95000 108.000
57.96500 112.000
57.98000 115.000
57.99500 119.000
58.01000 92.000
58.02500 106.000
58.04000 123.000
58.05500 115.000
58.07000 102.000
58.08500 106.000
58.10000 100.000
58.11500 115.000
58.13000 106.000
58.14500 116.000
58.16000 112.000
58.17500 109.000
58.19000 95.000
58.20500 119.000
58.22000 112.000
58.23500 105.000
58.25000 118.000
58.26500 116.000
58.28000 119.000
58.29500 122.000
58.31000 122.000
58.32500 124.000
58.34000 123.000
58.35500 137.000
58.37000 145.000
58.38500 151.000
58.40000 166.000
58.41500 164.000
58.43000 181.000
58.44500 179.000
58.46000 194.000
58.47500 204.000
58.49000 191.000
58.50500 187.000
58.52000 161.000
58.53500 140.000
58.55000 148.000
58.56500 129.000
58.58000 120.000
58.59500 109.000
58.61000 121.000
58.62500 123.000
58.64000 105.000
58.65500 100.000
58.67000 109.000
58.68500 87.000
58.70000 96.000
58.71500 105.000
58.73000 95.000
58.74500 84.000
58.76000 84.000
58.77500 80.000
58.79000 95.000
58.80500 102.000
58.82000 100.000
58.83500 94.000
58.85000 96.000
58.86500 108.000
58.88000 115.000
58.89500 118.000
58.91000 114.000
58.92500 94.000
58.94000 91.000
58.95500 94.000
58.97000 98.000
58.98500 101.000
59.00000 104.000
59.01500 122.000
59.03000 113.000
59.04500 128.000
59.06000 111.000
59.07500 100.000
59.09000 107.000
59.10500 125.000
59.12000 121.000
59.13500 114.000
59.15000 108.000
59.16500 124.000
59.18000 123.000
59.19500 122.000
59.21000 124.000
59.22500 137.000
59.24000 123.000
59.25500 124.000
59.27000 135.000
59.28500 121.000
59.30000 149.000
59.31500 145.000
59.33000 106.000
59.34500 128.000
59.36000 150.000
59.37500 145.000
59.39000 129.000
59.40500 143.000
59.42000 157.000
59.43500 153.000
59.45000 153.000
59.46500 167.000
59.48000 163.000
59.49500 195.000
59.51000 192.000
59.52500 180.000
59.54000 208.000
59.55500 217.000
59.57000 195.000
59.58500 172.000
59.60000 179.000
59.61500 158.000
59.63000 160.000
59.64500 151.000
59.66000 138.000
59.67500 125.000
59.69000 119.000
59.70500 106.000
59.72000 113.000
59.73500 107.000
59.75000 106.000
59.76500 110.000
59.78000 103.000
59.79500 135.000
59.81000 106.000
59.82500 86.000
59.84000 105.000
59.85500 104.000
59.87000 120.000
59.88500 111.000
59.90000 107.000
59.91500 117.000
59.93000 131.000
59.94500 133.000
59.96000 141.000
59.97500 130.000
59.99000 139.000
60.00500 132.000
60.02000 123.000
60.03500 123.000
60.05000 125.000
60.06500 133.000
60.08000 120.000
60.09500 140.000
60.11000 159.000
60.12500 132.000
60.14000 134.000
60.15500 105.000
60.17000 105.000
60.18500 93.000
60.20000 111.000
60.21500 110.000
60.23000 104.000
60.24500 108.000
60.26000 105.000
60.27500 105.000
60.29000 114.000
60.30500 100.000
60.32000 87.000
60.33500 100.000
60.35000 97.000
60.36500 86.000
60.38000 90.000
60.39500 107.000
60.41000 92.000
60.42500 96.000
60.44000 115.000
60.45500 95.000
60.47000 102.000
60.48500 107.000
60.50000 110.000
60.51500 107.000
60.53000 97.000
60.54500 113.000
60.56000 105.000
60.57500 104.000
60.59000 107.000
60.60500 100.000
60.62000 93.000
60.63500 108.000
60.65000 102.000
60.66500 96.000
60.68000 97.000
60.69500 99.000
60.71000 101.000
60.72500 100.000
60.74000 110.000
60.75500 97.000
60.77000 106.000
60.78500 101.000
60.80000 97.000
60.81500 108.000
60.83000 95.000
60.84500 113.000
60.86000 109.000
60.87500 103.000
60.89000 108.000
60.90500 111.000
60.92000 105.000
60.93500 110.000
60.95000 108.000
60.96500 112.000
60.98000 123.000
60.99500 120.000
61.01000 119.000
61.02500 110.000
61.04000 107.000
61.05500 113.000
61.07000 126.000
61.08500 139.000
61.10000 153.000
61.11500 134.000
61.13000 134.000
61.14500 133.000
61.16000 133.000
61.17500 141.000
61.19000 147.000
61.20500 138.000
61.22000 136.000
61.23500 143.000
61.25000 141.000
61.26500 133.000
61.28000 115.000
61.29500 105.000
61.31000 104.000
61.32500 108.000
61.34000 108.000
61.35500 121.000
61.37000 124.000
61.38500 111.000
61.40000 116.000
61.41500 106.000
61.43000 124.000
61.44500 126.000
61.46000 124.000
61.47500 118.000
61.49000 128.000
61.50500 110.000
61.52000 119.000
61.53500 116.000
61.55000 124.000
61.56500 130.000
61.58000 126.000
61.59500 135.000
61.61000 132.000
61.62500 150.000
61.64000 140.000
61.65500 150.000
61.67000 132.000
61.68500 119.000
61.70000 132.000
61.71500 145.000
61.73000 135.000
61.74500 118.000
61.76000 122.000
61.77500 118.000
61.79000 127.000
61.80500 119.000
61.82000 117.000
61.83500 114.000
61.85000 108.000
61.86500 119.000
61.88000 92.000
61.89500 106.000
61.91000 100.000
61.92500 109.000
61.94000 106.000
61.95500 102.000
61.97000 98.000
61.98500 111.000
