2.00000 2.000
2.01500 2.000
2.03000 2.000
2.04500 2.000
2.06000 3.000
2.07500 1.000
2.09000 1.000
2.10500 1.000
2.12000 0.000
2.13500 1.000
2.15000 2.000
2.16500 3.000
2.18000 3.000
2.19500 2.000
2.21000 1.000
2.22500 3.000
2.24000 4.000
2.25500 3.000
2.27000 4.000
2.28500 4.000
2.30000 3.000
2.31500 4.000
2.33000 3.000
2.34500 2.000
2.36000 2.000
2.37500 2.000
2.39000 2.000
2.40500 2.000
2.42000 0.000
2.43500 1.000
2.45000 2.000
2.46500 3.000
2.48000 2.000
2.49500 3.000
2.51000 4.000
2.52500 3.000
2.54000 4.000
2.55500 4.000
2.57000 3.000
2.58500 2.000
2.60000 1.000
2.61500 1.000
2.63000 2.000
2.64500 2.000
2.66000 1.000
2.67500 1.000
2.69000 1.000
2.70500 3.000
2.72000 1.000
2.73500 1.000
2.75000 0.000
2.76500 1.000
2.78000 3.000
2.79500 4.000
2.81000 2.000
2.82500 1.000
2.84000 3.000
2.85500 2.000
2.87000 2.000
2.88500 3.000
2.90000 5.000
2.91500 4.000
2.93000 4.000
2.94500 2.000
2.96000 1.000
2.97500 0.000
2.99000 2.000
3.00500 2.000
3.02000 3.000
3.03500 2.000
3.05000 3.000
3.06500 1.000
3.08000 1.000
3.09500 2.000
3.11000 3.000
3.12500 9.000
3.14000 8.000
3.15500 7.000
3.17000 12.000
3.18500 27.000
3.20000 34.000
3.21500 64.000
3.23000 110.000
3.24500 159.000
3.26000 197.000
3.27500 250.000
3.29000 260.000
3.30500 292.000
3.32000 310.000
3.33500 331.000
3.35000 310.000
3.36500 320.000
3.38000 301.000
3.39500 299.000
3.41000 287.000
3.42500 296.000
3.44000 298.000
3.45500 293.000
3.47000 277.000
3.48500 290.000
3.50000 286.000
3.51500 259.000
3.53000 264.000
3.54500 276.000
3.56000 302.000
3.57500 285.000
3.59000 293.000
3.60500 282.000
3.62000 288.000
3.63500 293.000
3.65000 304.000
3.66500 312.000
3.68000 302.000
3.69500 281.000
3.71000 273.000
3.72500 270.000
3.74000 281.000
3.75500 287.000
3.77000 281.000
3.78500 261.000
3.80000 257.000
3.81500 305.000
3.83000 274.000
3.84500 250.000
3.86000 253.000
3.87500 266.000
3.89000 271.000
3.90500 320.000
3.92000 291.000
3.93500 304.000
3.95000 276.000
3.96500 267.000
3.98000 281.000
3.99500 299.000
4.01000 303.000
4.02500 277.000
4.04000 280.000
4.05500 289.000
4.07000 291.000
4.08500 294.000
4.10000 277.000
4.11500 284.000
4.13000 295.000
4.14500 294.000
4.16000 277.000
4.17500 284.000
4.19000 284.000
4.20500 282.000
4.22000 280.000
4.23500 291.000
4.25000 297.000
4.26500 291.000
4.28000 261.000
4.29500 274.000
4.31000 266.000
4.32500 301.000
4.34000 289.000
4.35500 294.000
4.37000 264.000
4.38500 270.000
4.40000 257.000
4.41500 276.000
4.43000 281.000
4.44500 299.000
4.46000 271.000
4.47500 270.000
4.49000 278.000
4.50500 271.000
4.52000 280.000
4.53500 298.000
4.55000 293.000
4.56500 292.000
4.58000 283.000
4.59500 293.000
4.61000 277.000
4.62500 279.000
4.64000 268.000
4.65500 303.000
4.67000 292.000
4.68500 261.000
4.70000 284.000
4.71500 310.000
4.73000 311.000
4.74500 281.000
4.76000 298.000
4.77500 293.000
4.79000 296.000
4.80500 277.000
4.82000 287.000
4.83500 287.000
4.85000 270.000
4.86500 292.000
4.88000 299.000
4.89500 275.000
4.91000 261.000
4.92500 264.000
4.94000 304.000
4.95500 289.000
4.97000 271.000
4.98500 293.000
5.00000 308.000
5.01500 277.000
5.03000 319.000
5.04500 306.000
5.06000 301.000
5.07500 317.000
5.09000 311.000
5.10500 282.000
5.12000 315.000
5.13500 311.000
5.15000 316.000
5.16500 298.000
5.18000 312.000
5.19500 310.000
5.21000 331.000
5.22500 319.000
5.24000 298.000
5.25500 316.000
5.27000 290.000
5.28500 313.000
5.30000 310.000
5.31500 323.000
5.33000 309.000
5.34500 302.000
5.36000 312.000
5.37500 286.000
5.39000 292.000
5.40500 297.000
5.42000 283.000
5.43500 303.000
5.45000 315.000
5.46500 314.000
5.48000 318.000
5.49500 318.000
5.51000 296.000
5.52500 321.000
5.54000 312.000
5.55500 310.000
5.57000 314.000
5.58500 318.000
5.60000 315.000
5.61500 312.000
5.63000 330.000
5.64500 325.000
5.66000 319.000
5.67500 347.000
5.69000 332.000
5.70500 339.000
5.72000 318.000
5.73500 326.000
5.75000 329.000
5.76500 327.000
5.78000 299.000
5.79500 307.000
5.81000 300.000
5.82500 307.000
5.84000 299.000
5.85500 307.000
5.87000 316.000
5.88500 310.000
5.90000 299.000
5.91500 319.000
5.93000 332.000
5.94500 336.000
5.96000 322.000
5.97500 325.000
5.99000 317.000
6.00500 328.000
6.02000 333.000
6.03500 326.000
6.05000 324.000
6.06500 296.000
6.08000 304.000
6.09500 331.000
6.11000 325.000
6.12500 305.000
6.14000 310.000
6.15500 330.000
6.17000 320.000
6.18500 326.000
6.20000 317.000
6.21500 328.000
6.23000 312.000
6.24500 323.000
6.26000 338.000
6.27500 324.000
6.29000 333.000
6.30500 334.000
6.32000 328.000
6.33500 351.000
6.35000 324.000
6.36500 293.000
6.38000 318.000
6.39500 328.000
6.41000 333.000
6.42500 346.000
6.44000 335.000
6.45500 334.000
6.47000 317.000
6.48500 326.000
6.50000 318.000
6.51500 341.000
6.53000 326.000
6.54500 325.000
6.56000 361.000
6.57500 333.000
6.59000 334.000
6.60500 318.000
6.62000 314.000
6.63500 335.000
6.65000 332.000
6.66500 363.000
6.68000 353.000
6.69500 329.000
6.71000 352.000
6.72500 329.000
6.74000 330.000
6.75500 325.000
6.77000 307.000
6.78500 363.000
6.80000 337.000
6.81500 297.000
6.83000 306.000
6.84500 338.000
6.86000 319.000
6.87500 312.000
6.89000 323.000
6.90500 328.000
6.92000 336.000
6.93500 326.000
6.95000 312.000
6.96500 330.000
6.98000 325.000
6.99500 330.000
7.01000 342.000
7.02500 341.000
7.04000 332.000
7.05500 339.000
7.07000 358.000
7.08500 341.000
7.10000 320.000
7.11500 333.000
7.13000 336.000
7.14500 326.000
7.16000 305.000
7.17500 308.000
7.19000 329.000
7.20500 336.000
7.22000 331.000
7.23500 327.000
7.25000 330.000
7.26500 307.000
7.28000 308.000
7.29500 328.000
7.31000 315.000
7.32500 337.000
7.34000 310.000
7.35500 338.000
7.37000 325.000
7.38500 327.000
7.40000 347.000
7.41500 296.000
7.43000 291.000
7.44500 307.000
7.46000 324.000
7.47500 305.000
7.49000 317.000
7.50500 314.000
7.52000 308.000
7.53500 309.000
7.55000 325.000
7.56500 325.000
7.58000 321.000
7.59500 322.000
7.61000 342.000
7.62500 316.000
7.64000 300.000
7.65500 293.000
7.67000 314.000
7.68500 309.000
7.70000 322.000
7.71500 330.000
7.73000 332.000
7.74500 305.000
7.76000 309.000
7.77500 289.000
7.79000 330.000
7.80500 337.000
7.82000 312.000
7.83500 301.000
7.85000 296.000
7.86500 317.000
7.88000 296.000
7.89500 294.000
7.91000 294.000
7.92500 312.000
7.94000 322.000
7.95500 308.000
7.97000 308.000
7.98500 319.000
8.00000 290.000
8.01500 318.000
8.03000 324.000
8.04500 288.000
8.06000 328.000
8.07500 305.000
8.09000 336.000
8.10500 310.000
8.12000 303.000
8.13500 345.000
8.15000 332.000
8.16500 332.000
8.18000 342.000
8.19500 329.000
8.21000 321.000
8.22500 311.000
8.24000 351.000
8.25500 320.000
8.27000 316.000
8.28500 336.000
8.30000 368.000
8.31500 345.000
8.33000 336.000
8.34500 357.000
8.36000 357.000
8.37500 361.000
8.39000 359.000
8.40500 354.000
8.42000 343.000
8.43500 329.000
8.45000 310.000
8.46500 306.000
8.48000 314.000
8.49500 305.000
8.51000 320.000
8.52500 324.000
8.54000 328.000
8.55500 314.000
8.57000 298.000
8.58500 310.000
8.60000 297.000
8.61500 281.000
8.63000 291.000
8.64500 303.000
8.66000 320.000
8.67500 349.000
8.69000 345.000
8.70500 327.000
8.72000 340.000
8.73500 320.000
8.75000 315.000
8.76500 315.000
8.78000 281.000
8.79500 295.000
8.81000 299.000
8.82500 282.000
8.84000 277.000
8.85500 299.000
8.87000 309.000
8.88500 302.000
8.90000 295.000
8.91500 287.000
8.93000 290.000
8.94500 292.000
8.96000 303.000
8.97500 313.000
8.99000 309.000
9.00500 300.000
9.02000 304.000
9.03500 266.000
9.05000 281.000
9.06500 289.000
9.08000 284.000
9.09500 314.000
9.11000 297.000
9.12500 301.000
9.14000 292.000
9.15500 329.000
9.17000 310.000
9.18500 299.000
9.20000 293.000
9.21500 302.000
9.23000 289.000
9.24500 286.000
9.26000 297.000
9.27500 325.000
9.29000 298.000
9.30500 292.000
9.32000 283.000
9.33500 280.000
9.35000 281.000
9.36500 307.000
9.38000 293.000
9.39500 287.000
9.41000 296.000
9.42500 317.000
9.44000 302.000
9.45500 305.000
9.47000 279.000
9.48500 279.000
9.50000 300.000
9.51500 283.000
9.53000 298.000
9.54500 284.000
9.56000 287.000
9.57500 292.000
9.59000 276.000
9.60500 272.000
9.62000 283.000
9.63500 288.000
9.65000 280.000
9.66500 274.000
9.68000 294.000
9.69500 280.000
9.71000 301.000
9.72500 278.000
9.74000 269.000
9.75500 293.000
9.77000 271.000
9.78500 271.000
9.80000 266.000
9.81500 310.000
9.83000 261.000
9.84500 288.000
9.86000 261.000
9.87500 271.000
9.89000 289.000
9.90500 277.000
9.92000 292.000
9.93500 267.000
9.95000 276.000
9.96500 286.000
9.98000 271.000
9.99500 284.000
10.01000 278.000
10.02500 294.000
10.04000 283.000
10.05500 291.000
10.07000 290.000
10.08500 279.000
10.10000 266.000
10.11500 298.000
10.13000 283.000
10.14500 270.000
10.16000 265.000
10.17500 269.000
10.19000 260.000
10.20500 292.000
10.22000 266.000
10.23500 261.000
10.25000 271.000
10.26500 268.000
10.28000 276.000
10.29500 276.000
10.31000 267.000
10.32500 237.000
10.34000 280.000
10.35500 296.000
10.37000 300.000
10.38500 298.000
10.40000 286.000
10.41500 263.000
10.43000 300.000
10.44500 269.000
10.46000 280.000
10.47500 283.000
10.49000 275.000
10.50500 277.000
10.52000 258.000
10.53500 270.000
10.55000 289.000
10.56500 278.000
10.58000 286.000
10.59500 293.000
10.61000 288.000
10.62500 270.000
10.64000 255.000
10.65500 275.000
10.67000 273.000
10.68500 286.000
10.70000 272.000
10.71500 267.000
10.73000 289.000
10.74500 273.000
10.76000 271.000
10.77500 266.000
10.79000 277.000
10.80500 276.000
10.82000 279.000
10.83500 269.000
10.85000 266.000
10.86500 268.000
10.88000 266.000
10.89500 285.000
10.91000 276.000
10.92500 282.000
10.94000 282.000
10.95500 299.000
10.97000 286.000
10.98500 296.000
11.00000 290.000
11.01500 275.000
11.03000 265.000
11.04500 298.000
11.06000 281.000
11.07500 287.000
11.09000 268.000
11.10500 285.000
11.12000 293.000
11.13500 258.000
11.15000 262.000
11.16500 259.000
11.18000 293.000
11.19500 282.000
11.21000 267.000
11.22500 241.000
11.24000 266.000
11.25500 285.000
11.27000 251.000
11.28500 282.000
11.30000 290.000
11.31500 283.000
11.33000 274.000
11.34500 291.000
11.36000 289.000
11.37500 279.000
11.39000 260.000
11.40500 258.000
11.42000 286.000
11.43500 286.000
11.45000 284.000
11.46500 252.000
11.48000 271.000
11.49500 282.000
11.51000 294.000
11.52500 278.000
11.54000 279.000
11.55500 295.000
11.57000 281.000
11.58500 262.000
11.60000 278.000
11.61500 288.000
11.63000 271.000
11.64500 277.000
11.66000 274.000
11.67500 284.000
11.69000 277.000
11.70500 281.000
11.72000 298.000
11.73500 261.000
11.75000 292.000
11.76500 276.000
11.78000 259.000
11.79500 275.000
11.81000 283.000
11.82500 300.000
11.84000 293.000
11.85500 296.000
11.87000 273.000
11.88500 271.000
11.90000 274.000
11.91500 241.000
11.93000 251.000
11.94500 274.000
11.96000 283.000
11.97500 263.000
11.99000 288.000
12.00500 264.000
12.02000 263.000
12.03500 257.000
12.05000 272.000
12.06500 276.000
12.08000 267.000
12.09500 256.000
12.11000 270.000
12.12500 271.000
12.14000 246.000
12.15500 268.000
12.17000 272.000
12.18500 261.000
12.20000 285.000
12.21500 258.000
12.23000 279.000
12.24500 252.000
12.26000 275.000
12.27500 286.000
12.29000 298.000
12.30500 292.000
12.32000 291.000
12.33500 281.000
12.35000 273.000
12.36500 279.000
12.38000 277.000
12.39500 302.000
12.41000 291.000
12.42500 292.000
12.44000 268.000
12.45500 250.000
12.47000 282.000
12.48500 253.000
12.50000 257.000
12.51500 269.000
12.53000 276.000
12.54500 298.000
12.56000 296.000
12.57500 285.000
12.59000 242.000
12.60500 260.000
12.62000 264.000
12.63500 266.000
12.65000 297.000
12.66500 287.000
12.68000 280.000
12.69500 264.000
12.71000 248.000
12.72500 274.000
12.74000 262.000
12.75500 279.000
12.77000 274.000
12.78500 249.000
12.80000 263.000
12.81500 287.000
12.83000 283.000
12.84500 286.000
12.86000 278.000
12.87500 290.000
12.89000 259.000
12.90500 267.000
12.92000 242.000
12.93500 278.000
12.95000 257.000
12.96500 263.000
12.98000 284.000
12.99500 284.000
13.01000 287.000
13.02500 279.000
13.04000 260.000
13.05500 282.000
13.07000 304.000
13.08500 286.000
13.10000 285.000
13.11500 267.000
13.13000 283.000
13.14500 276.000
13.16000 283.000
13.17500 278.000
13.19000 293.000
13.20500 294.000
13.22000 260.000
13.23500 286.000
13.25000 263.000
13.26500 271.000
13.28000 274.000
13.29500 261.000
13.31000 277.000
13.32500 288.000
13.34000 291.000
13.35500 286.000
13.37000 264.000
13.38500 280.000
13.40000 291.000
13.41500 280.000
13.43000 269.000
13.44500 270.000
13.46000 279.000
13.47500 271.000
13.49000 274.000
13.50500 272.000
13.52000 281.000
13.53500 286.000
13.55000 282.000
13.56500 287.000
13.58000 283.000
13.59500 283.000
13.61000 300.000
13.62500 277.000
13.64000 282.000
13.65500 293.000
13.67000 272.000
13.68500 278.000
13.70000 290.000
13.71500 287.000
13.73000 281.000
13.74500 259.000
13.76000 278.000
13.77500 263.000
13.79000 266.000
13.80500 271.000
13.82000 271.000
13.83500 275.000
13.85000 293.000
13.86500 298.000
13.88000 297.000
13.89500 274.000
13.91000 283.000
13.92500 270.000
13.94000 265.000
13.95500 278.000
13.97000 283.000
13.98500 268.000
14.00000 287.000
14.01500 276.000
14.03000 317.000
14.04500 320.000
14.06000 295.000
14.07500 296.000
14.09000 291.000
14.10500 293.000
14.12000 276.000
14.13500 285.000
14.15000 299.000
14.16500 295.000
14.18000 304.000
14.19500 286.000
14.21000 289.000
14.22500 315.000
14.24000 265.000
14.25500 273.000
14.27000 301.000
14.28500 295.000
14.30000 273.000
14.31500 298.000
14.33000 280.000
14.34500 272.000
14.36000 300.000
14.37500 291.000
14.39000 285.000
14.40500 271.000
14.42000 281.000
14.43500 263.000
14.45000 245.000
14.46500 280.000
14.48000 250.000
14.49500 270.000
14.51000 292.000
14.52500 293.000
14.54000 286.000
14.55500 297.000
14.57000 301.000
14.58500 307.000
14.60000 277.000
14.61500 278.000
14.63000 288.000
14.64500 282.000
14.66000 279.000
14.67500 279.000
14.69000 285.000
14.70500 274.000
14.72000 272.000
14.73500 269.000
14.75000 287.000
14.76500 283.000
14.78000 280.000
14.79500 281.000
14.81000 270.000
14.82500 292.000
14.84000 283.000
14.85500 297.000
14.87000 262.000
14.88500 289.000
14.90000 290.000
14.91500 267.000
14.93000 312.000
14.94500 296.000
14.96000 295.000
14.97500 289.000
14.99000 311.000
15.00500 292.000
15.02000 292.000
15.03500 307.000
15.05000 303.000
15.06500 289.000
15.08000 275.000
15.09500 303.000
15.11000 294.000
15.12500 303.000
15.14000 282.000
15.15500 289.000
15.17000 283.000
15.18500 272.000
15.20000 285.000
15.21500 309.000
15.23000 298.000
15.24500 297.000
15.26000 261.000
15.27500 289.000
15.29000 291.000
15.30500 295.000
15.32000 280.000
15.33500 275.000
15.35000 304.000
15.36500 286.000
15.38000 266.000
15.39500 283.000
15.41000 288.000
15.42500 275.000
15.44000 299.000
15.45500 305.000
15.47000 271.000
15.48500 282.000
15.50000 289.000
15.51500 277.000
15.53000 276.000
15.54500 292.000
15.56000 284.000
15.57500 295.000
15.59000 283.000
15.60500 270.000
15.62000 286.000
15.63500 306.000
15.65000 283.000
15.66500 278.000
15.68000 312.000
15.69500 295.000
15.71000 302.000
15.72500 293.000
15.74000 303.000
15.75500 315.000
15.77000 294.000
15.78500 284.000
15.80000 268.000
15.81500 271.000
15.83000 285.000
15.84500 291.000
15.86000 289.000
15.87500 294.000
15.89000 290.000
15.90500 298.000
15.92000 270.000
15.93500 289.000
15.95000 304.000
15.96500 289.000
15.98000 287.000
15.99500 295.000
16.01000 299.000
16.02500 295.000
16.04000 302.000
16.05500 294.000
16.07000 317.000
16.08500 317.000
16.10000 299.000
16.11500 293.000
16.13000 294.000
16.14500 304.000
16.16000 299.000
16.17500 283.000
16.19000 300.000
16.20500 291.000
16.22000 271.000
16.23500 262.000
16.25000 283.000
16.26500 295.000
16.28000 274.000
16.29500 303.000
16.31000 283.000
16.32500 315.000
16.34000 305.000
16.35500 285.000
16.37000 281.000
16.38500 286.000
16.40000 318.000
16.41500 300.000
16.43000 313.000
16.44500 296.000
16.46000 290.000
16.47500 304.000
16.49000 299.000
16.50500 277.000
16.52000 290.000
16.53500 304.000
16.55000 278.000
16.56500 287.000
16.58000 277.000
16.59500 297.000
16.61000 290.000
16.62500 319.000
16.64000 331.000
16.65500 291.000
16.67000 325.000
16.68500 314.000
16.70000 305.000
16.71500 302.000
16.73000 295.000
16.74500 311.000
16.76000 300.000
16.77500 298.000
16.79000 315.000
16.80500 322.000
16.82000 320.000
16.83500 302.000
16.85000 314.000
16.86500 310.000
16.88000 314.000
16.89500 309.000
16.91000 312.000
16.92500 309.000
16.94000 324.000
16.95500 305.000
16.97000 300.000
16.98500 335.000
17.00000 319.000
17.01500 318.000
17.03000 304.000
17.04500 332.000
17.06000 330.000
17.07500 339.000
17.09000 333.000
17.10500 300.000
17.12000 307.000
17.13500 333.000
17.15000 343.000
17.16500 331.000
17.18000 319.000
17.19500 310.000
17.21000 336.000
17.22500 302.000
17.24000 292.000
17.25500 288.000
17.27000 294.000
17.28500 309.000
17.30000 314.000
17.31500 321.000
17.33000 313.000
17.34500 297.000
17.36000 307.000
17.37500 317.000
17.39000 325.000
17.40500 320.000
17.42000 298.000
17.43500 342.000
17.45000 312.000
17.46500 315.000
17.48000 325.000
17.49500 338.000
17.51000 322.000
17.52500 338.000
17.54000 329.000
17.55500 338.000
17.57000 323.000
17.58500 308.000
17.60000 311.000
17.61500 291.000
17.63000 336.000
17.64500 346.000
17.66000 338.000
17.67500 344.000
17.69000 346.000
17.70500 326.000
17.72000 311.000
17.73500 322.000
17.75000 308.000
17.76500 324.000
17.78000 330.000
17.79500 311.000
17.81000 302.000
17.82500 311.000
17.84000 338.000
17.85500 336.000
17.87000 330.000
17.88500 343.000
17.90000 346.000
17.91500 323.000
17.93000 320.000
17.94500 302.000
17.96000 327.000
17.97500 370.000
17.99000 323.000
18.00500 328.000
18.02000 339.000
18.03500 351.000
18.05000 320.000
18.06500 327.000
18.08000 300.000
18.09500 350.000
18.11000 325.000
18.12500 342.000
18.14000 335.000
18.15500 328.000
18.17000 314.000
18.18500 333.000
18.20000 326.000
18.21500 326.000
18.23000 341.000
18.24500 346.000
18.26000 350.000
18.27500 348.000
18.29000 337.000
18.30500 343.000
18.32000 336.000
18.33500 322.000
18.35000 339.000
18.36500 328.000
18.38000 346.000
18.39500 367.000
18.41000 339.000
18.42500 351.000
18.44000 316.000
18.45500 338.000
18.47000 356.000
18.48500 351.000
18.50000 343.000
18.51500 352.000
18.53000 330.000
18.54500 333.000
18.56000 375.000
18.57500 331.000
18.59000 336.000
18.60500 322.000
18.62000 373.000
18.63500 337.000
18.65000 362.000
18.66500 366.000
18.68000 353.000
18.69500 330.000
18.71000 352.000
18.72500 331.000
18.74000 327.000
18.75500 362.000
18.77000 338.000
18.78500 333.000
18.80000 346.000
18.81500 340.000
18.83000 332.000
18.84500 348.000
18.86000 356.000
18.87500 354.000
18.89000 345.000
18.90500 363.000
18.92000 379.000
18.93500 350.000
18.95000 338.000
18.96500 356.000
18.98000 376.000
18.99500 358.000
19.01000 361.000
19.02500 352.000
19.04000 373.000
19.05500 393.000
19.07000 362.000
19.08500 355.000
19.10000 377.000
19.11500 374.000
19.13000 337.000
19.14500 325.000
19.16000 350.000
19.17500 346.000
19.19000 360.000
19.20500 347.000
19.22000 363.000
19.23500 360.000
19.25000 387.000
19.26500 356.000
19.28000 339.000
19.29500 365.000
19.31000 357.000
19.32500 365.000
19.34000 369.000
19.35500 388.000
19.37000 366.000
19.38500 342.000
19.40000 346.000
19.41500 355.000
19.43000 384.000
19.44500 393.000
19.46000 381.000
19.47500 372.000
19.49000 378.000
19.50500 358.000
19.52000 385.000
19.53500 372.000
19.55000 365.000
19.56500 359.000
19.58000 407.000
19.59500 366.000
19.61000 337.000
19.62500 334.000
19.64000 337.000
19.65500 365.000
19.67000 360.000
19.68500 359.000
19.70000 376.000
19.71500 362.000
19.73000 373.000
19.74500 368.000
19.76000 368.000
19.77500 384.000
19.79000 375.000
19.80500 374.000
19.82000 377.000
19.83500 410.000
19.85000 375.000
19.86500 377.000
19.88000 354.000
19.89500 377.000
19.91000 382.000
19.92500 392.000
19.94000 357.000
19.95500 369.000
19.97000 358.000
19.98500 399.000
20.00000 391.000
20.01500 396.000
20.03000 397.000
20.04500 387.000
20.06000 347.000
20.07500 362.000
20.09000 378.000
20.10500 388.000
20.12000 375.000
20.13500 407.000
20.15000 401.000
20.16500 386.000
20.18000 392.000
20.19500 374.000
20.21000 388.000
20.22500 413.000
20.24000 388.000
20.25500 410.000
20.27000 382.000
20.28500 386.000
20.30000 367.000
20.31500 402.000
20.33000 423.000
20.34500 414.000
20.36000 402.000
20.37500 395.000
20.39000 394.000
20.40500 401.000
20.42000 378.000
20.43500 370.000
20.45000 389.000
20.46500 403.000
20.48000 374.000
20.49500 400.000
20.51000 415.000
20.52500 409.000
20.54000 390.000
20.55500 380.000
20.57000 413.000
20.58500 415.000
20.60000 432.000
20.61500 394.000
20.63000 403.000
20.64500 412.000
20.66000 408.000
20.67500 393.000
20.69000 396.000
20.70500 404.000
20.72000 401.000
20.73500 398.000
20.75000 399.000
20.76500 401.000
20.78000 393.000
20.79500 391.000
20.81000 434.000
20.82500 412.000
20.84000 414.000
20.85500 404.000
20.87000 394.000
20.88500 411.000
20.90000 385.000
20.91500 413.000
20.93000 424.000
20.94500 405.000
20.96000 388.000
20.97500 403.000
20.99000 406.000
21.00500 408.000
21.02000 432.000
21.03500 406.000
21.05000 416.000
21.06500 418.000
21.08000 402.000
21.09500 412.000
21.11000 396.000
21.12500 412.000
21.14000 427.000
21.15500 427.000
21.17000 400.000
21.18500 421.000
21.20000 428.000
21.21500 422.000
21.23000 386.000
21.24500 395.000
21.26000 413.000
21.27500 424.000
21.29000 437.000
21.30500 435.000
21.32000 403.000
21.33500 396.000
21.35000 422.000
21.36500 407.000
21.38000 429.000
21.39500 422.000
21.41000 426.000
21.42500 437.000
21.44000 427.000
21.45500 414.000
21.47000 393.000
21.48500 414.000
21.50000 441.000
21.51500 419.000
21.53000 407.000
21.54500 411.000
21.56000 424.000
21.57500 456.000
21.59000 446.000
21.60500 437.000
21.62000 422.000
21.63500 398.000
21.65000 424.000
21.66500 431.000
21.68000 437.000
21.69500 446.000
21.71000 461.000
21.72500 440.000
21.74000 439.000
21.75500 423.000
21.77000 434.000
21.78500 443.000
21.80000 474.000
21.81500 441.000
21.83000 426.000
21.84500 433.000
21.86000 409.000
21.87500 402.000
21.89000 439.000
21.90500 419.000
21.92000 433.000
21.93500 444.000
21.95000 444.000
21.96500 413.000
21.98000 435.000
21.99500 456.000
22.01000 470.000
22.02500 451.000
22.04000 426.000
22.05500 446.000
22.07000 415.000
22.08500 446.000
22.10000 433.000
22.11500 422.000
22.13000 429.000
22.14500 417.000
22.16000 408.000
22.17500 427.000
22.19000 423.000
22.20500 434.000
22.22000 473.000
22.23500 431.000
22.25000 435.000
22.26500 423.000
22.28000 437.000
22.29500 430.000
22.31000 421.000
22.32500 458.000
22.34000 458.000
22.35500 431.000
22.37000 405.000
22.38500 447.000
22.40000 449.000
22.41500 427.000
22.43000 428.000
22.44500 437.000
22.46000 449.000
22.47500 466.000
22.49000 444.000
22.50500 454.000
22.52000 450.000
22.53500 477.000
22.55000 425.000
22.56500 413.000
22.58000 411.000
22.59500 421.000
22.61000 461.000
22.62500 447.000
22.64000 446.000
22.65500 442.000
22.67000 404.000
22.68500 450.000
22.70000 434.000
22.71500 434.000
22.73000 443.000
22.74500 442.000
22.76000 454.000
22.77500 436.000
22.79000 432.000
22.80500 470.000
22.82000 463.000
22.83500 467.000
22.85000 443.000
22.86500 427.000
22.88000 411.000
22.89500 425.000
22.91000 444.000
22.92500 420.000
22.94000 422.000
22.95500 455.000
22.97000 464.000
22.98500 481.000
23.00000 466.000
23.01500 482.000
23.03000 458.000
23.04500 482.000
23.06000 468.000
23.07500 458.000
23.09000 415.000
23.10500 448.000
23.12000 475.000
23.13500 467.000
23.15000 439.000
23.16500 434.000
23.18000 435.000
23.19500 468.000
23.21000 457.000
23.22500 471.000
23.24000 455.000
23.25500 470.000
23.27000 446.000
23.28500 445.000
23.30000 434.000
23.31500 450.000
23.33000 422.000
23.34500 431.000
23.36000 470.000
23.37500 461.000
23.39000 468.000
23.40500 494.000
23.42000 436.000
23.43500 452.000
23.45000 436.000
23.46500 404.000
23.48000 442.000
23.49500 462.000
23.51000 468.000
23.52500 463.000
23.54000 448.000
23.55500 463.000
23.57000 430.000
23.58500 465.000
23.60000 455.000
23.61500 431.000
23.63000 454.000
23.64500 446.000
23.66000 451.000
23.67500 454.000
23.69000 475.000
23.70500 441.000
23.72000 477.000
23.73500 433.000
23.75000 430.000
23.76500 463.000
23.78000 457.000
23.79500 451.000
23.81000 449.000
23.82500 469.000
23.84000 468.000
23.85500 441.000
23.87000 449.000
23.88500 452.000
23.90000 432.000
23.91500 449.000
23.93000 419.000
23.94500 439.000
23.96000 418.000
23.97500 424.000
23.99000 451.000
24.00500 438.000
24.02000 459.000
24.03500 449.000
24.05000 459.000
24.06500 442.000
24.08000 417.000
24.09500 425.000
24.11000 461.000
24.12500 454.000
24.14000 428.000
24.15500 420.000
24.17000 432.000
24.18500 465.000
24.20000 437.000
24.21500 437.000
24.23000 426.000
24.24500 460.000
24.26000 424.000
24.27500 441.000
24.29000 450.000
24.30500 432.000
24.32000 455.000
24.33500 414.000
24.35000 417.000
24.36500 414.000
24.38000 419.000
24.39500 458.000
24.41000 432.000
24.42500 423.000
24.44000 471.000
24.45500 425.000
24.47000 468.000
24.48500 473.000
24.50000 444.000
24.51500 455.000
24.53000 448.000
24.54500 442.000
24.56000 437.000
24.57500 411.000
24.59000 449.000
24.60500 439.000
24.62000 428.000
24.63500 431.000
24.65000 434.000
24.66500 465.000
24.68000 433.000
24.69500 426.000
24.71000 442.000
24.72500 430.000
24.74000 422.000
24.75500 405.000
24.77000 408.000
24.78500 441.000
24.80000 461.000
24.81500 442.000
24.83000 426.000
24.84500 446.000
24.86000 455.000
24.87500 434.000
24.89000 413.000
24.90500 435.000
24.92000 420.000
24.93500 438.000
24.95000 414.000
24.96500 440.000
24.98000 426.000
24.99500 395.000
25.01000 437.000
25.02500 459.000
25.04000 432.000
25.05500 415.000
25.07000 414.000
25.08500 411.000
25.10000 416.000
25.11500 405.000
25.13000 415.000
25.14500 401.000
25.16000 414.000
25.17500 454.000
25.19000 492.000
25.20500 426.000
25.22000 438.000
25.23500 436.000
25.25000 421.000
25.26500 420.000
25.28000 403.000
25.29500 435.000
25.31000 440.000
25.32500 410.000
25.34000 403.000
25.35500 390.000
25.37000 443.000
25.38500 424.000
25.40000 419.000
25.41500 396.000
25.43000 404.000
25.44500 394.000
25.46000 416.000
25.47500 444.000
25.49000 415.000
25.50500 423.000
25.52000 409.000
25.53500 402.000
25.55000 400.000
25.56500 395.000
25.58000 390.000
25.59500 425.000
25.61000 428.000
25.62500 437.000
25.64000 416.000
25.65500 450.000
25.67000 417.000
25.68500 412.000
25.70000 415.000
25.71500 414.000
25.73000 408.000
25.74500 446.000
25.76000 417.000
25.77500 419.000
25.79000 432.000
25.80500 419.000
25.82000 450.000
25.83500 438.000
25.85000 383.000
25.86500 398.000
25.88000 398.000
25.89500 407.000
25.91000 431.000
25.92500 390.000
25.94000 411.000
25.95500 411.000
25.97000 414.000
25.98500 379.000
26.00000 396.000
26.01500 389.000
26.03000 413.000
26.04500 400.000
26.06000 449.000
26.07500 454.000
26.09000 439.000
26.10500 389.000
26.12000 398.000
26.13500 418.000
26.15000 406.000
26.16500 400.000
26.18000 419.000
26.19500 441.000
26.21000 433.000
26.22500 409.000
26.24000 415.000
26.25500 441.000
26.27000 418.000
26.28500 368.000
26.30000 376.000
26.31500 395.000
26.33000 380.000
26.34500 390.000
26.36000 396.000
26.37500 375.000
26.39000 378.000
26.40500 393.000
26.42000 399.000
26.43500 417.000
26.45000 388.000
26.46500 386.000
26.48000 397.000
26.49500 379.000
26.51000 407.000
26.52500 411.000
26.54000 386.000
26.55500 382.000
26.57000 395.000
26.58500 414.000
26.60000 381.000
26.61500 359.000
26.63000 376.000
26.64500 393.000
26.66000 361.000
26.67500 371.000
26.69000 373.000
26.70500 385.000
26.72000 379.000
26.73500 382.000
26.75000 393.000
26.76500 406.000
26.78000 410.000
26.79500 388.000
26.81000 376.000
26.82500 390.000
26.84000 366.000
26.85500 390.000
26.87000 364.000
26.88500 363.000
26.90000 393.000
26.91500 382.000
26.93000 382.000
26.94500 379.000
26.96000 373.000
26.97500 408.000
26.99000 400.000
27.00500 352.000
27.02000 354.000
27.03500 354.000
27.05000 367.000
27.06500 358.000
27.08000 363.000
27.09500 396.000
27.11000 401.000
27.12500 395.000
27.14000 364.000
27.15500 365.000
27.17000 367.000
27.18500 364.000
27.20000 366.000
27.21500 369.000
27.23000 337.000
27.24500 338.000
27.26000 362.000
27.27500 353.000
27.29000 358.000
27.30500 353.000
27.32000 330.000
27.33500 332.000
27.35000 376.000
27.36500 366.000
27.38000 358.000
27.39500 390.000
27.41000 378.000
27.42500 353.000
27.44000 364.000
27.45500 357.000
27.47000 354.000
27.48500 355.000
27.50000 364.000
27.51500 359.000
27.53000 335.000
27.54500 345.000
27.56000 365.000
27.57500 368.000
27.59000 347.000
27.60500 350.000
27.62000 353.000
27.63500 352.000
27.65000 343.000
27.66500 375.000
27.68000 351.000
27.69500 356.000
27.71000 363.000
27.72500 360.000
27.74000 377.000
27.75500 362.000
27.77000 349.000
27.78500 356.000
27.80000 369.000
27.81500 341.000
27.83000 352.000
27.84500 366.000
27.86000 387.000
27.87500 378.000
27.89000 355.000
27.90500 325.000
27.92000 337.000
27.93500 352.000
27.95000 357.000
27.96500 347.000
27.98000 339.000
27.99500 328.000
28.01000 344.000
28.02500 343.000
28.04000 338.000
28.05500 340.000
28.07000 344.000
28.08500 339.000
28.10000 366.000
28.11500 333.000
28.13000 344.000
28.14500 349.000
28.16000 361.000
28.17500 333.000
28.19000 360.000
28.20500 332.000
28.22000 333.000
28.23500 332.000
28.25000 325.000
28.26500 345.000
28.28000 333.000
28.29500 344.000
28.31000 344.000
28.32500 351.000
28.34000 300.000
28.35500 310.000
28.37000 349.000
28.38500 332.000
28.40000 324.000
28.41500 332.000
28.43000 349.000
28.44500 318.000
28.46000 310.000
28.47500 332.000
28.49000 322.000
28.50500 336.000
28.52000 336.000
28.53500 354.000
28.55000 323.000
28.56500 320.000
28.58000 347.000
28.59500 346.000
28.61000 323.000
28.62500 311.000
28.64000 334.000
28.65500 346.000
28.67000 337.000
28.68500 314.000
28.70000 318.000
28.71500 329.000
28.73000 325.000
28.74500 312.000
28.76000 330.000
28.77500 328.000
28.79000 304.000
28.80500 329.000
28.82000 331.000
28.83500 327.000
28.85000 332.000
28.86500 319.000
28.88000 300.000
28.89500 312.000
28.91000 353.000
28.92500 292.000
28.94000 319.000
28.95500 320.000
28.97000 288.000
28.98500 286.000
29.00000 320.000
29.01500 314.000
29.03000 321.000
29.04500 316.000
29.06000 302.000
29.07500 309.000
29.09000 322.000
29.10500 335.000
29.12000 327.000
29.13500 321.000
29.15000 302.000
29.16500 304.000
29.18000 336.000
29.19500 328.000
29.21000 318.000
29.22500 337.000
29.24000 325.000
29.25500 293.000
29.27000 309.000
29.28500 353.000
29.30000 340.000
29.31500 318.000
29.33000 311.000
29.34500 315.000
29.36000 330.000
29.37500 323.000
29.39000 337.000
29.40500 340.000
29.42000 309.000
29.43500 304.000
29.45000 308.000
29.46500 310.000
29.48000 329.000
29.49500 331.000
29.51000 315.000
29.52500 316.000
29.54000 314.000
29.55500 301.000
29.57000 298.000
29.58500 307.000
29.60000 303.000
29.61500 288.000
29.63000 306.000
29.64500 321.000
29.66000 294.000
29.67500 312.000
29.69000 312.000
29.70500 304.000
29.72000 294.000
29.73500 307.000
29.75000 311.000
29.76500 280.000
29.78000 284.000
29.79500 292.000
29.81000 286.000
29.82500 294.000
29.84000 286.000
29.85500 307.000
29.87000 300.000
29.88500 288.000
29.90000 305.000
29.91500 277.000
29.93000 291.000
29.94500 291.000
29.96000 286.000
29.97500 321.000
29.99000 324.000
30.00500 305.000
30.02000 309.000
30.03500 309.000
30.05000 301.000
30.06500 294.000
30.08000 311.000
30.09500 329.000
30.11000 326.000
30.12500 309.000
30.14000 316.000
30.15500 325.000
30.17000 344.000
30.18500 352.000
30.20000 318.000
30.21500 295.000
30.23000 335.000
30.24500 291.000
30.26000 326.000
30.27500 292.000
30.29000 316.000
30.30500 296.000
30.32000 305.000
30.33500 297.000
30.35000 328.000
30.36500 296.000
30.38000 290.000
30.39500 299.000
30.41000 303.000
30.42500 322.000
30.44000 313.000
30.45500 312.000
30.47000 292.000
30.48500 288.000
30.50000 308.000
30.51500 281.000
30.53000 263.000
30.54500 291.000
30.56000 276.000
30.57500 278.000
30.59000 315.000
30.60500 295.000
30.62000 285.000
30.63500 293.000
30.65000 289.000
30.66500 298.000
30.68000 279.000
30.69500 270.000
30.71000 260.000
30.72500 270.000
30.74000 278.000
30.75500 312.000
30.77000 272.000
30.78500 292.000
30.80000 285.000
30.81500 273.000
30.83000 284.000
30.84500 284.000
30.86000 278.000
30.87500 283.000
30.89000 290.000
30.90500 260.000
30.92000 256.000
30.93500 252.000
30.95000 284.000
30.96500 289.000
30.98000 258.000
30.99500 300.000
31.01000 303.000
31.02500 287.000
31.04000 257.000
31.05500 279.000
31.07000 291.000
31.08500 280.000
31.10000 252.000
31.11500 270.000
31.13000 277.000
31.14500 256.000
31.16000 240.000
31.17500 252.000
31.19000 267.000
31.20500 251.000
31.22000 252.000
31.23500 259.000
31.25000 265.000
31.26500 261.000
31.28000 255.000
31.29500 264.000
31.31000 256.000
31.32500 258.000
31.34000 282.000
31.35500 282.000
31.37000 265.000
31.38500 267.000
31.40000 251.000
31.41500 254.000
31.43000 293.000
31.44500 258.000
31.46000 280.000
31.47500 269.000
31.49000 275.000
31.50500 266.000
31.52000 257.000
31.53500 259.000
31.55000 252.000
31.56500 261.000
31.58000 246.000
31.59500 247.000
31.61000 254.000
31.62500 265.000
31.64000 255.000
31.65500 247.000
31.67000 270.000
31.68500 288.000
31.70000 285.000
31.71500 291.000
31.73000 273.000
31.74500 285.000
31.76000 261.000
31.77500 261.000
31.79000 257.000
31.80500 265.000
31.82000 238.000
31.83500 244.000
31.85000 250.000
31.86500 257.000
31.88000 239.000
31.89500 239.000
31.91000 245.000
31.92500 243.000
31.94000 246.000
31.95500 241.000
31.97000 234.000
31.98500 240.000
32.00000 251.000
32.01500 261.000
32.03000 245.000
32.04500 260.000
32.06000 265.000
32.07500 271.000
32.09000 243.000
32.10500 232.000
32.12000 235.000
32.13500 235.000
32.15000 256.000
32.16500 226.000
32.18000 241.000
32.19500 229.000
32.21000 241.000
32.22500 248.000
32.24000 265.000
32.25500 233.000
32.27000 231.000
32.28500 228.000
32.30000 264.000
32.31500 261.000
32.33000 246.000
32.34500 229.000
32.36000 250.000
32.37500 240.000
32.39000 246.000
32.40500 249.000
32.42000 259.000
32.43500 253.000
32.45000 241.000
32.46500 242.000
32.48000 252.000
32.49500 245.000
32.51000 247.000
32.52500 257.000
32.54000 244.000
32.55500 261.000
32.57000 251.000
32.58500 229.000
32.60000 230.000
32.61500 244.000
32.63000 253.000
32.64500 225.000
32.66000 218.000
32.67500 241.000
32.69000 238.000
32.70500 247.000
32.72000 245.000
32.73500 240.000
32.75000 241.000
32.76500 215.000
32.78000 226.000
32.79500 253.000
32.81000 225.000
32.82500 216.000
32.84000 215.000
32.85500 219.000
32.87000 221.000
32.88500 245.000
32.90000 230.000
32.91500 224.000
32.93000 241.000
32.94500 223.000
32.96000 237.000
32.97500 238.000
32.99000 235.000
33.00500 244.000
33.02000 249.000
33.03500 246.000
33.05000 229.000
33.06500 219.000
33.08000 217.000
33.09500 222.000
33.11000 212.000
33.12500 241.000
33.14000 224.000
33.15500 221.000
33.17000 217.000
33.18500 229.000
33.20000 233.000
33.21500 237.000
33.23000 238.000
33.24500 214.000
33.26000 220.000
33.27500 214.000
33.29000 221.000
33.30500 215.000
33.32000 213.000
33.33500 216.000
33.35000 214.000
33.36500 207.000
33.38000 215.000
33.39500 223.000
33.41000 225.000
33.42500 220.000
33.44000 226.000
33.45500 248.000
33.47000 251.000
33.48500 229.000
33.50000 228.000
33.51500 211.000
33.53000 240.000
33.54500 214.000
33.56000 217.000
33.57500 209.000
33.59000 216.000
33.60500 208.000
33.62000 227.000
33.63500 221.000
33.65000 214.000
33.66500 242.000
33.68000 233.000
33.69500 217.000
33.71000 214.000
33.72500 207.000
33.74000 215.000
33.75500 199.000
33.77000 198.000
33.78500 211.000
33.80000 218.000
33.81500 200.000
33.83000 239.000
33.84500 226.000
33.86000 216.000
33.87500 241.000
33.89000 254.000
33.90500 215.000
33.92000 193.000
33.93500 216.000
33.95000 197.000
33.96500 221.000
33.98000 216.000
33.99500 227.000
34.01000 214.000
34.02500 226.000
34.04000 228.000
34.05500 216.000
34.07000 225.000
34.08500 204.000
34.10000 205.000
34.11500 224.000
34.13000 234.000
34.14500 225.000
34.16000 225.000
34.17500 199.000
34.19000 208.000
34.20500 215.000
34.22000 213.000
34.23500 199.000
34.25000 230.000
34.26500 219.000
34.28000 207.000
34.29500 222.000
34.31000 196.000
34.32500 206.000
34.34000 228.000
34.35500 215.000
34.37000 205.000
34.38500 209.000
34.40000 192.000
34.41500 188.000
34.43000 214.000
34.44500 225.000
34.46000 213.000
34.47500 207.000
34.49000 217.000
34.50500 203.000
34.52000 197.000
34.53500 207.000
34.55000 211.000
34.56500 203.000
34.58000 186.000
34.59500 179.000
34.61000 197.000
34.62500 206.000
34.64000 190.000
34.65500 178.000
34.67000 197.000
34.68500 194.000
34.70000 187.000
34.71500 206.000
34.73000 215.000
34.74500 197.000
34.76000 192.000
34.77500 194.000
34.79000 201.000
34.80500 202.000
34.82000 193.000
34.83500 178.000
34.85000 208.000
34.86500 220.000
34.88000 209.000
34.89500 206.000
34.91000 197.000
34.92500 201.000
34.94000 205.000
34.95500 208.000
34.97000 215.000
34.98500 204.000
35.00000 191.000
35.01500 189.000
35.03000 180.000
35.04500 192.000
35.06000 195.000
35.07500 194.000
35.09000 194.000
35.10500 201.000
35.12000 186.000
35.13500 210.000
35.15000 192.000
35.16500 221.000
35.18000 190.000
35.19500 194.000
35.21000 190.000
35.22500 197.000
35.24000 163.000
35.25500 186.000
35.27000 196.000
35.28500 211.000
35.30000 205.000
35.31500 194.000
35.33000 223.000
35.34500 196.000
35.36000 199.000
35.37500 188.000
35.39000 188.000
35.40500 192.000
35.42000 177.000
35.43500 188.000
35.45000 191.000
35.46500 194.000
35.48000 168.000
35.49500 175.000
35.51000 190.000
35.52500 206.000
35.54000 199.000
35.55500 184.000
35.57000 188.000
35.58500 213.000
35.60000 201.000
35.61500 183.000
35.63000 202.000
35.64500 198.000
35.66000 192.000
35.67500 188.000
35.69000 182.000
35.70500 167.000
35.72000 205.000
35.73500 192.000
35.75000 186.000
35.76500 196.000
35.78000 180.000
35.79500 171.000
35.81000 171.000
35.82500 179.000
35.84000 181.000
35.85500 192.000
35.87000 199.000
35.88500 188.000
35.90000 185.000
35.91500 189.000
35.93000 178.000
35.94500 170.000
35.96000 209.000
35.97500 184.000
35.99000 186.000
36.00500 184.000
36.02000 159.000
36.03500 190.000
36.05000 198.000
36.06500 192.000
36.08000 180.000
36.09500 190.000
36.11000 183.000
36.12500 172.000
36.14000 175.000
36.15500 203.000
36.17000 182.000
36.18500 167.000
36.20000 184.000
36.21500 171.000
36.23000 175.000
36.24500 175.000
36.26000 173.000
36.27500 189.000
36.29000 206.000
36.30500 185.000
36.32000 164.000
36.33500 182.000
36.35000 175.000
36.36500 184.000
36.38000 179.000
36.39500 179.000
36.41000 192.000
36.42500 194.000
36.44000 173.000
36.45500 179.000
36.47000 166.000
36.48500 159.000
36.50000 171.000
36.51500 159.000
36.53000 182.000
36.54500 174.000
36.56000 174.000
36.57500 167.000
36.59000 175.000
36.60500 169.000
36.62000 178.000
36.63500 159.000
36.65000 182.000
36.66500 200.000
36.68000 176.000
36.69500 181.000
36.71000 171.000
36.72500 182.000
36.74000 195.000
36.75500 182.000
36.77000 173.000
36.78500 174.000
36.80000 165.000
36.81500 173.000
36.83000 154.000
36.84500 163.000
36.86000 157.000
36.87500 163.000
36.89000 180.000
36.90500 177.000
36.92000 160.000
36.93500 177.000
36.95000 177.000
36.96500 158.000
36.98000 162.000
36.99500 197.000
37.01000 182.000
37.02500 200.000
37.04000 177.000
37.05500 179.000
37.07000 168.000
37.08500 167.000
37.10000 174.000
37.11500 166.000
37.13000 162.000
37.14500 168.000
37.16000 176.000
37.17500 179.000
37.19000 158.000
37.20500 152.000
37.22000 147.000
37.23500 151.000
37.25000 157.000
37.26500 177.000
37.28000 176.000
37.29500 183.000
37.31000 168.000
37.32500 168.000
37.34000 158.000
37.35500 168.000
37.37000 150.000
37.38500 135.000
37.40000 158.000
37.41500 160.000
37.43000 173.000
37.44500 177.000
37.46000 167.000
37.47500 182.000
37.49000 174.000
37.50500 173.000
37.52000 162.000
37.53500 165.000
37.55000 145.000
37.56500 144.000
37.58000 166.000
37.59500 162.000
37.61000 157.000
37.62500 166.000
37.64000 158.000
37.65500 131.000
37.67000 147.000
37.68500 157.000
37.70000 157.000
37.71500 152.000
37.73000 150.000
37.74500 157.000
37.76000 141.000
37.77500 152.000
37.79000 177.000
37.80500 144.000
37.82000 152.000
37.83500 142.000
37.85000 168.000
37.86500 155.000
37.88000 150.000
37.89500 148.000
37.91000 137.000
37.92500 155.000
37.94000 165.000
37.95500 167.000
37.97000 150.000
37.98500 164.000
38.00000 154.000
38.01500 171.000
38.03000 160.000
38.04500 148.000
38.06000 162.000
38.07500 162.000
38.09000 172.000
38.10500 159.000
38.12000 168.000
38.13500 149.000
38.15000 144.000
38.16500 173.000
38.18000 165.000
38.19500 141.000
38.21000 159.000
38.22500 143.000
38.24000 150.000
38.25500 151.000
38.27000 157.000
38.28500 148.000
38.30000 155.000
38.31500 163.000
38.33000 169.000
38.34500 162.000
38.36000 174.000
38.37500 151.000
38.39000 150.000
38.40500 179.000
38.42000 167.000
38.43500 176.000
38.45000 155.000
38.46500 168.000
38.48000 181.000
38.49500 163.000
38.51000 151.000
38.52500 167.000
38.54000 170.000
38.55500 159.000
38.57000 157.000
38.58500 135.000
38.60000 151.000
38.61500 157.000
38.63000 164.000
38.64500 166.000
38.66000 164.000
38.67500 162.000
38.69000 159.000
38.70500 167.000
38.72000 159.000
38.73500 150.000
38.75000 155.000
38.76500 166.000
38.78000 142.000
38.79500 149.000
38.81000 148.000
38.82500 150.000
38.84000 170.000
38.85500 149.000
38.87000 151.000
38.88500 164.000
38.90000 177.000
38.91500 167.000
38.93000 145.000
38.94500 157.000
38.96000 146.000
38.97500 140.000
38.99000 138.000
39.00500 136.000
39.02000 159.000
39.03500 156.000
39.05000 154.000
39.06500 150.000
39.08000 155.000
39.09500 154.000
39.11000 166.000
39.12500 159.000
39.14000 156.000
39.15500 162.000
39.17000 130.000
39.18500 135.000
39.20000 156.000
39.21500 166.000
39.23000 164.000
39.24500 163.000
39.26000 142.000
39.27500 153.000
39.29000 162.000
39.30500 151.000
39.32000 151.000
39.33500 148.000
39.35000 162.000
39.36500 165.000
39.38000 149.000
39.39500 156.000
39.41000 152.000
39.42500 132.000
39.44000 158.000
39.45500 159.000
39.47000 166.000
39.48500 155.000
39.50000 152.000
39.51500 138.000
39.53000 120.000
39.54500 149.000
39.56000 125.000
39.57500 145.000
39.59000 158.000
39.60500 152.000
39.62000 159.000
39.63500 157.000
39.65000 154.000
39.66500 140.000
39.68000 148.000
39.69500 146.000
39.71000 151.000
39.72500 174.000
39.74000 154.000
39.75500 153.000
39.77000 146.000
39.78500 137.000
39.80000 175.000
39.81500 169.000
39.83000 137.000
39.84500 146.000
39.86000 140.000
39.87500 143.000
39.89000 154.000
39.90500 150.000
39.92000 146.000
39.93500 155.000
39.95000 159.000
39.96500 163.000
39.98000 146.000
39.99500 176.000
40.01000 169.000
40.02500 154.000
40.04000 138.000
40.05500 152.000
40.07000 147.000
40.08500 144.000
40.10000 158.000
40.11500 142.000
40.13000 146.000
40.14500 157.000
40.16000 162.000
40.17500 154.000
40.19000 159.000
40.20500 141.000
40.22000 140.000
40.23500 143.000
40.25000 151.000
40.26500 144.000
40.28000 142.000
40.29500 146.000
40.31000 161.000
40.32500 149.000
40.34000 153.000
40.35500 138.000
40.37000 157.000
40.38500 145.000
40.40000 166.000
40.41500 145.000
40.43000 156.000
40.44500 149.000
40.46000 147.000
40.47500 144.000
40.49000 155.000
40.50500 155.000
40.52000 152.000
40.53500 137.000
40.55000 156.000
40.56500 151.000
40.58000 144.000
40.59500 160.000
40.61000 140.000
40.62500 144.000
40.64000 138.000
40.65500 123.000
40.67000 152.000
40.68500 138.000
40.70000 134.000
40.71500 145.000
40.73000 151.000
40.74500 144.000
40.76000 156.000
40.77500 139.000
40.79000 136.000
40.80500 146.000
40.82000 163.000
40.83500 157.000
40.85000 151.000
40.86500 134.000
40.88000 145.000
40.89500 153.000
40.91000 144.000
40.92500 147.000
40.94000 141.000
40.95500 144.000
40.97000 149.000
40.98500 144.000
41.00000 143.000
41.01500 155.000
41.03000 146.000
41.04500 141.000
41.06000 133.000
41.07500 148.000
41.09000 159.000
41.10500 160.000
41.12000 158.000
41.13500 151.000
41.15000 150.000
41.16500 147.000
41.18000 162.000
41.19500 151.000
41.21000 148.000
41.22500 136.000
41.24000 127.000
41.25500 144.000
41.27000 148.000
41.28500 139.000
41.30000 141.000
41.31500 138.000
41.33000 142.000
41.34500 161.000
41.36000 148.000
41.37500 144.000
41.39000 132.000
41.40500 149.000
41.42000 151.000
41.43500 158.000
41.45000 134.000
41.46500 144.000
41.48000 153.000
41.49500 150.000
41.51000 143.000
41.52500 129.000
41.54000 142.000
41.55500 139.000
41.57000 149.000
41.58500 151.000
41.60000 140.000
41.61500 157.000
41.63000 144.000
41.64500 148.000
41.66000 154.000
41.67500 142.000
41.69000 145.000
41.70500 146.000
41.72000 147.000
41.73500 134.000
41.75000 157.000
41.76500 141.000
41.78000 136.000
41.79500 152.000
41.81000 143.000
41.82500 144.000
41.84000 141.000
41.85500 135.000
41.87000 137.000
41.88500 148.000
41.90000 122.000
41.91500 128.000
41.93000 140.000
41.94500 135.000
41.96000 118.000
41.97500 125.000
41.99000 142.000
42.00500 135.000
42.02000 147.000
42.03500 138.000
42.05000 138.000
42.06500 154.000
42.08000 146.000
42.09500 146.000
42.11000 131.000
42.12500 141.000
42.14000 136.000
42.15500 133.000
42.17000 143.000
42.18500 145.000
42.20000 150.000
42.21500 136.000
42.23000 143.000
42.24500 127.000
42.26000 128.000
42.27500 147.000
42.29000 131.000
42.30500 120.000
42.32000 143.000
42.33500 141.000
42.35000 133.000
42.36500 143.000
42.38000 137.000
42.39500 142.000
42.41000 148.000
42.42500 151.000
42.44000 148.000
42.45500 128.000
42.47000 145.000
42.48500 152.000
42.50000 140.000
42.51500 135.000
42.53000 136.000
42.54500 151.000
42.56000 139.000
42.57500 142.000
42.59000 145.000
42.60500 133.000
42.62000 151.000
42.63500 146.000
42.65000 157.000
42.66500 146.000
42.68000 141.000
42.69500 164.000
42.71000 132.000
42.72500 132.000
42.74000 157.000
42.75500 155.000
42.77000 151.000
42.78500 153.000
42.80000 160.000
42.81500 163.000
42.83000 147.000
42.84500 137.000
42.86000 148.000
42.87500 155.000
42.89000 139.000
42.90500 139.000
42.92000 157.000
42.93500 156.000
42.95000 127.000
42.96500 135.000
42.98000 144.000
42.99500 144.000
43.01000 161.000
43.02500 143.000
43.04000 144.000
43.05500 142.000
43.07000 136.000
43.08500 145.000
43.10000 137.000
43.11500 135.000
43.13000 135.000
43.14500 145.000
43.16000 154.000
43.17500 147.000
43.19000 161.000
43.20500 139.000
43.22000 133.000
43.23500 138.000
43.25000 128.000
43.26500 127.000
43.28000 138.000
43.29500 149.000
43.31000 164.000
43.32500 140.000
43.34000 135.000
43.35500 152.000
43.37000 140.000
43.38500 149.000
43.40000 132.000
43.41500 138.000
43.43000 130.000
43.44500 138.000
43.46000 149.000
43.47500 143.000
43.49000 134.000
43.50500 143.000
43.52000 140.000
43.53500 139.000
43.55000 141.000
43.56500 142.000
43.58000 135.000
43.59500 140.000
43.61000 152.000
43.62500 146.000
43.64000 138.000
43.65500 141.000
43.67000 164.000
43.68500 150.000
43.70000 128.000
43.71500 135.000
43.73000 156.000
43.74500 142.000
43.76000 140.000
43.77500 145.000
43.79000 139.000
43.80500 135.000
43.82000 136.000
43.83500 132.000
43.85000 163.000
43.86500 159.000
43.88000 149.000
43.89500 143.000
43.91000 141.000
43.92500 138.000
43.94000 141.000
43.95500 139.000
43.97000 128.000
43.98500 140.000
44.00000 148.000
44.01500 163.000
44.03000 162.000
44.04500 127.000
44.06000 140.000
44.07500 136.000
44.09000 145.000
44.10500 139.000
44.12000 160.000
44.13500 164.000
44.15000 143.000
44.16500 142.000
44.18000 142.000
44.19500 155.000
44.21000 156.000
44.22500 138.000
44.24000 131.000
44.25500 136.000
44.27000 143.000
44.28500 133.000
44.30000 120.000
44.31500 127.000
44.33000 146.000
44.34500 143.000
44.36000 147.000
44.37500 151.000
44.39000 146.000
44.40500 152.000
44.42000 126.000
44.43500 134.000
44.45000 132.000
44.46500 142.000
44.48000 140.000
44.49500 146.000
44.51000 129.000
44.52500 136.000
44.54000 148.000
44.55500 142.000
44.57000 124.000
44.58500 140.000
44.60000 139.000
44.61500 147.000
44.63000 126.000
44.64500 142.000
44.66000 132.000
44.67500 157.000
44.69000 141.000
44.70500 129.000
44.72000 151.000
44.73500 137.000
44.75000 149.000
44.76500 133.000
44.78000 145.000
44.79500 126.000
44.81000 135.000
44.82500 140.000
44.84000 143.000
44.85500 147.000
44.87000 151.000
44.88500 143.000
44.90000 141.000
44.91500 154.000
44.93000 157.000
44.94500 142.000
44.96000 142.000
44.97500 130.000
44.99000 143.000
45.00500 129.000
45.02000 134.000
45.03500 158.000
45.05000 144.000
45.06500 149.000
45.08000 144.000
45.09500 138.000
45.11000 156.000
45.12500 149.000
45.14000 150.000
45.15500 158.000
45.17000 131.000
45.18500 135.000
45.20000 150.000
45.21500 136.000
45.23000 142.000
45.24500 126.000
45.26000 145.000
45.27500 155.000
45.29000 150.000
45.30500 132.000
45.32000 134.000
45.33500 136.000
45.35000 160.000
45.36500 149.000
45.38000 145.000
45.39500 147.000
45.41000 165.000
45.42500 161.000
45.44000 168.000
45.45500 168.000
45.47000 150.000
45.48500 161.000
45.50000 134.000
45.51500 155.000
45.53000 148.000
45.54500 139.000
45.56000 131.000
45.57500 124.000
45.59000 149.000
45.60500 142.000
45.62000 154.000
45.63500 141.000
45.65000 135.000
45.66500 148.000
45.68000 138.000
45.69500 133.000
45.71000 128.000
45.72500 131.000
45.74000 125.000
45.75500 133.000
45.77000 128.000
45.78500 120.000
45.80000 130.000
45.81500 150.000
45.83000 141.000
45.84500 138.000
45.86000 129.000
45.87500 138.000
45.89000 137.000
45.90500 142.000
45.92000 127.000
45.93500 143.000
45.95000 136.000
45.96500 140.000
45.98000 142.000
45.99500 134.000
46.01000 133.000
46.02500 150.000
46.04000 145.000
46.05500 138.000
46.07000 139.000
46.08500 142.000
46.10000 138.000
46.11500 117.000
46.13000 118.000
46.14500 120.000
46.16000 141.000
46.17500 136.000
46.19000 122.000
46.20500 146.000
46.22000 150.000
46.23500 137.000
46.25000 133.000
46.26500 137.000
46.28000 147.000
46.29500 169.000
46.31000 148.000
46.32500 142.000
46.34000 148.000
46.35500 141.000
46.37000 146.000
46.38500 141.000
46.40000 139.000
46.41500 137.000
46.43000 126.000
46.44500 146.000
46.46000 142.000
46.47500 145.000
46.49000 131.000
46.50500 122.000
46.52000 127.000
46.53500 126.000
46.55000 140.000
46.56500 139.000
46.58000 152.000
46.59500 141.000
46.61000 128.000
46.62500 122.000
46.64000 140.000
46.65500 123.000
46.67000 122.000
46.68500 134.000
46.70000 130.000
46.71500 145.000
46.73000 149.000
46.74500 123.000
46.76000 127.000
46.77500 135.000
46.79000 135.000
46.80500 139.000
46.82000 138.000
46.83500 139.000
46.85000 128.000
46.86500 131.000
46.88000 137.000
46.89500 134.000
46.91000 133.000
46.92500 126.000
46.94000 128.000
46.95500 134.000
46.97000 133.000
46.98500 138.000
47.00000 129.000
47.01500 140.000
47.03000 144.000
47.04500 137.000
47.06000 127.000
47.07500 128.000
47.09000 141.000
47.10500 140.000
47.12000 132.000
47.13500 131.000
47.15000 146.000
47.16500 139.000
47.18000 136.000
47.19500 123.000
47.21000 141.000
47.22500 128.000
47.24000 128.000
47.25500 127.000
47.27000 139.000
47.28500 128.000
47.30000 115.000
47.31500 136.000
47.33000 130.000
47.34500 132.000
47.36000 146.000
47.37500 130.000
47.39000 132.000
47.40500 125.000
47.42000 138.000
47.43500 123.000
47.45000 120.000
47.46500 134.000
47.48000 152.000
47.49500 128.000
47.51000 131.000
47.52500 156.000
47.54000 138.000
47.55500 142.000
47.57000 143.000
47.58500 141.000
47.60000 145.000
47.61500 117.000
47.63000 130.000
47.64500 125.000
47.66000 119.000
47.67500 126.000
47.69000 126.000
47.70500 118.000
47.72000 119.000
47.73500 129.000
47.75000 128.000
47.76500 113.000
47.78000 140.000
47.79500 137.000
47.81000 124.000
47.82500 120.000
47.84000 110.000
47.85500 132.000
47.87000 134.000
47.88500 137.000
47.90000 132.000
47.91500 116.000
47.93000 134.000
47.94500 132.000
47.96000 124.000
47.97500 133.000
47.99000 135.000
48.00500 125.000
48.02000 131.000
48.03500 141.000
48.05000 143.000
48.06500 125.000
48.08000 119.000
48.09500 132.000
48.11000 125.000
48.12500 144.000
48.14000 135.000
48.15500 124.000
48.17000 121.000
48.18500 150.000
48.20000 128.000
48.21500 130.000
48.23000 122.000
48.24500 138.000
48.26000 128.000
48.27500 129.000
48.29000 131.000
48.30500 134.000
48.32000 130.000
48.33500 135.000
48.35000 126.000
48.36500 127.000
48.38000 119.000
48.39500 132.000
48.41000 125.000
48.42500 128.000
48.44000 143.000
48.45500 118.000
48.47000 128.000
48.48500 134.000
48.50000 135.000
48.51500 142.000
48.53000 142.000
48.54500 123.000
48.56000 118.000
48.57500 129.000
48.59000 133.000
48.60500 129.000
48.62000 117.000
48.63500 123.000
48.65000 125.000
48.66500 134.000
48.68000 129.000
48.69500 135.000
48.71000 125.000
48.72500 117.000
48.74000 123.000
48.75500 124.000
48.77000 126.000
48.78500 127.000
48.80000 144.000
48.81500 151.000
48.83000 116.000
48.84500 127.000
48.86000 115.000
48.87500 125.000
48.89000 126.000
48.90500 138.000
48.92000 124.000
48.93500 120.000
48.95000 118.000
48.96500 121.000
48.98000 112.000
48.99500 136.000
49.01000 129.000
49.02500 123.000
49.04000 122.000
49.05500 126.000
49.07000 139.000
49.08500 136.000
49.10000 129.000
49.11500 133.000
49.13000 120.000
49.14500 140.000
49.16000 136.000
49.17500 137.000
49.19000 141.000
49.20500 137.000
49.22000 124.000
49.23500 124.000
49.25000 126.000
49.26500 118.000
49.28000 127.000
49.29500 139.000
49.31000 135.000
49.32500 126.000
49.34000 140.000
49.35500 133.000
49.37000 127.000
49.38500 119.000
49.40000 123.000
49.41500 129.000
49.43000 118.000
49.44500 122.000
49.46000 125.000
49.47500 143.000
49.49000 130.000
49.50500 127.000
49.52000 134.000
49.53500 127.000
49.55000 116.000
49.56500 128.000
49.58000 132.000
49.59500 129.000
49.61000 124.000
49.62500 133.000
49.64000 126.000
49.65500 127.000
49.67000 118.000
49.68500 116.000
49.70000 148.000
49.71500 132.000
49.73000 130.000
49.74500 143.000
49.76000 137.000
49.77500 132.000
49.79000 126.000
49.80500 119.000
49.82000 140.000
49.83500 134.000
49.85000 123.000
49.86500 140.000
49.88000 118.000
49.89500 123.000
49.91000 116.000
49.92500 108.000
49.94000 121.000
49.95500 118.000
49.97000 143.000
49.98500 143.000
50.00000 136.000
50.01500 152.000
50.03000 127.000
50.04500 133.000
50.06000 142.000
50.07500 131.000
50.09000 130.000
50.10500 125.000
50.12000 123.000
50.13500 114.000
50.15000 122.000
50.16500 124.000
50.18000 129.000
50.19500 129.000
50.21000 122.000
50.22500 126.000
50.24000 115.000
50.25500 131.000
50.27000 130.000
50.28500 104.000
50.30000 113.000
50.31500 113.000
50.33000 123.000
50.34500 142.000
50.36000 125.000
50.37500 133.000
50.39000 142.000
50.40500 126.000
50.42000 119.000
50.43500 139.000
50.45000 131.000
50.46500 122.000
50.48000 126.000
50.49500 127.000
50.51000 118.000
50.52500 127.000
50.54000 129.000
50.55500 131.000
50.57000 113.000
50.58500 117.000
50.60000 137.000
50.61500 121.000
50.63000 121.000
50.64500 130.000
50.66000 117.000
50.67500 124.000
50.69000 121.000
50.70500 117.000
50.72000 115.000
50.73500 122.000
50.75000 142.000
50.76500 123.000
50.78000 110.000
50.79500 131.000
50.81000 118.000
50.82500 117.000
50.84000 118.000
50.85500 121.000
50.87000 117.000
50.88500 118.000
50.90000 122.000
50.91500 126.000
50.93000 136.000
50.94500 139.000
50.96000 119.000
50.97500 120.000
50.99000 119.000
51.00500 137.000
51.02000 123.000
51.03500 129.000
51.05000 124.000
51.06500 125.000
51.08000 113.000
51.09500 132.000
51.11000 130.000
51.12500 119.000
51.14000 119.000
51.15500 124.000
51.17000 120.000
51.18500 136.000
51.20000 114.000
51.21500 124.000
51.23000 121.000
51.24500 108.000
51.26000 117.000
51.27500 106.000
51.29000 121.000
51.30500 119.000
51.32000 120.000
51.33500 120.000
51.35000 128.000
51.36500 118.000
51.38000 120.000
51.39500 121.000
51.41000 125.000
51.42500 133.000
51.44000 123.000
51.45500 115.000
51.47000 122.000
51.48500 126.000
51.50000 127.000
51.51500 121.000
51.53000 107.000
51.54500 118.000
51.56000 126.000
51.57500 120.000
51.59000 129.000
51.60500 123.000
51.62000 120.000
51.63500 125.000
51.65000 143.000
51.66500 141.000
51.68000 120.000
51.69500 117.000
51.71000 137.000
51.72500 124.000
51.74000 119.000
51.75500 128.000
51.77000 115.000
51.78500 127.000
51.80000 122.000
51.81500 124.000
51.83000 133.000
51.84500 117.000
51.86000 128.000
51.87500 117.000
51.89000 130.000
51.90500 127.000
51.92000 103.000
51.93500 108.000
51.95000 117.000
51.96500 122.000
51.98000 125.000
51.99500 119.000
52.01000 131.000
52.02500 142.000
52.04000 131.000
52.05500 122.000
52.07000 113.000
52.08500 120.000
52.10000 111.000
52.11500 118.000
52.13000 129.000
52.14500 126.000
52.16000 112.000
52.17500 136.000
52.19000 135.000
52.20500 123.000
52.22000 120.000
52.23500 123.000
52.25000 121.000
52.26500 131.000
52.28000 117.000
52.29500 115.000
52.31000 112.000
52.32500 118.000
52.34000 118.000
52.35500 114.000
52.37000 107.000
52.38500 116.000
52.40000 123.000
52.41500 129.000
52.43000 129.000
52.44500 121.000
52.46000 108.000
52.47500 124.000
52.49000 121.000
52.50500 138.000
52.52000 131.000
52.53500 128.000
52.55000 123.000
52.56500 114.000
52.58000 119.000
52.59500 128.000
52.61000 124.000
52.62500 113.000
52.64000 103.000
52.65500 119.000
52.67000 149.000
52.68500 132.000
52.70000 122.000
52.71500 123.000
52.73000 121.000
52.74500 133.000
52.76000 121.000
52.77500 124.000
52.79000 124.000
52.80500 129.000
52.82000 133.000
52.83500 106.000
52.85000 123.000
52.86500 117.000
52.88000 122.000
52.89500 119.000
52.91000 116.000
52.92500 114.000
52.94000 114.000
52.95500 117.000
52.97000 131.000
52.98500 125.000
53.00000 133.000
53.01500 125.000
53.03000 107.000
53.04500 121.000
53.06000 134.000
53.07500 128.000
53.09000 120.000
53.10500 122.000
53.12000 111.000
53.13500 105.000
53.15000 115.000
53.16500 124.000
53.18000 144.000
53.19500 122.000
53.21000 125.000
53.22500 108.000
53.24000 102.000
53.25500 118.000
53.27000 119.000
53.28500 111.000
53.30000 118.000
53.31500 118.000
53.33000 106.000
53.34500 114.000
53.36000 107.000
53.37500 112.000
53.39000 121.000
53.40500 130.000
53.42000 120.000
53.43500 101.000
53.45000 129.000
53.46500 122.000
53.48000 130.000
53.49500 122.000
53.51000 114.000
53.52500 114.000
53.54000 107.000
53.55500 118.000
53.57000 135.000
53.58500 112.000
53.60000 115.000
53.61500 134.000
53.63000 132.000
53.64500 128.000
53.66000 117.000
53.67500 128.000
53.69000 121.000
53.70500 114.000
53.72000 152.000
53.73500 119.000
53.75000 124.000
53.76500 126.000
53.78000 117.000
53.79500 110.000
53.81000 119.000
53.82500 123.000
53.84000 131.000
53.85500 112.000
53.87000 112.000
53.88500 120.000
53.90000 100.000
53.91500 109.000
53.93000 116.000
53.94500 115.000
53.96000 121.000
53.97500 108.000
53.99000 119.000
54.00500 121.000
54.02000 112.000
54.03500 112.000
54.05000 123.000
54.06500 107.000
54.08000 117.000
54.09500 130.000
54.11000 127.000
54.12500 130.000
54.14000 135.000
54.15500 113.000
54.17000 112.000
54.18500 124.000
54.20000 124.000
54.21500 122.000
54.23000 116.000
54.24500 104.000
54.26000 109.000
54.27500 130.000
54.29000 120.000
54.30500 118.000
54.32000 116.000
54.33500 132.000
54.35000 118.000
54.36500 112.000
54.38000 114.000
54.39500 116.000
54.41000 104.000
54.42500 133.000
54.44000 119.000
54.45500 120.000
54.47000 121.000
54.48500 105.000
54.50000 107.000
54.51500 130.000
54.53000 114.000
54.54500 106.000
54.56000 117.000
54.57500 136.000
54.59000 118.000
54.60500 101.000
54.62000 129.000
54.63500 118.000
54.65000 104.000
54.66500 123.000
54.68000 104.000
54.69500 119.000
54.71000 125.000
54.72500 140.000
54.74000 127.000
54.75500 132.000
54.77000 112.000
54.78500 121.000
54.80000 136.000
54.81500 115.000
54.83000 120.000
54.84500 113.000
54.86000 123.000
54.87500 119.000
54.89000 122.000
54.90500 142.000
54.92000 117.000
54.93500 111.000
54.95000 109.000
54.96500 121.000
54.98000 142.000
54.99500 125.000
55.01000 110.000
55.02500 120.000
55.04000 117.000
55.05500 119.000
55.07000 107.000
55.08500 110.000
55.10000 111.000
55.11500 124.000
55.13000 135.000
55.14500 124.000
55.16000 120.000
55.17500 113.000
55.19000 128.000
55.20500 125.000
55.22000 107.000
55.23500 117.000
55.25000 126.000
55.26500 106.000
55.28000 109.000
55.29500 118.000
55.31000 113.000
55.32500 114.000
55.34000 116.000
55.35500 118.000
55.37000 103.000
55.38500 124.000
55.40000 106.000
55.41500 126.000
55.43000 115.000
55.44500 115.000
55.46000 111.000
55.47500 108.000
55.49000 113.000
55.50500 127.000
55.52000 125.000
55.53500 125.000
55.55000 106.000
55.56500 99.000
55.58000 124.000
55.59500 126.000
55.61000 117.000
55.62500 125.000
55.64000 126.000
55.65500 138.000
55.67000 122.000
55.68500 106.000
55.70000 107.000
55.71500 110.000
55.73000 109.000
55.74500 130.000
55.76000 112.000
55.77500 104.000
55.79000 119.000
55.80500 122.000
55.82000 116.000
55.83500 134.000
55.85000 137.000
55.86500 125.000
55.88000 118.000
55.89500 117.000
55.91000 102.000
55.92500 124.000
55.94000 113.000
55.95500 106.000
55.97000 121.000
55.98500 125.000
56.00000 117.000
56.01500 115.000
56.03000 118.000
56.04500 125.000
56.06000 116.000
56.07500 107.000
56.09000 113.000
56.10500 120.000
56.12000 111.000
56.13500 108.000
56.15000 124.000
56.16500 110.000
56.18000 127.000
56.19500 108.000
56.21000 126.000
56.22500 129.000
56.24000 103.000
56.25500 113.000
56.27000 122.000
56.28500 111.000
56.30000 112.000
56.31500 119.000
56.33000 99.000
56.34500 107.000
56.36000 121.000
56.37500 111.000
56.39000 119.000
56.40500 118.000
56.42000 118.000
56.43500 120.000
56.45000 128.000
56.46500 130.000
56.48000 124.000
56.49500 123.000
56.51000 127.000
56.52500 119.000
56.54000 128.000
56.55500 114.000
56.57000 127.000
56.58500 130.000
56.60000 119.000
56.61500 105.000
56.63000 112.000
56.64500 112.000
56.66000 123.000
56.67500 116.000
56.69000 126.000
56.70500 141.000
56.72000 127.000
56.73500 116.000
56.75000 121.000
56.76500 125.000
56.78000 116.000
56.79500 108.000
56.81000 111.000
56.82500 122.000
56.84000 123.000
56.85500 108.000
56.87000 115.000
56.88500 127.000
56.90000 124.000
56.91500 131.000
56.93000 114.000
56.94500 115.000
56.96000 109.000
56.97500 125.000
56.99000 99.000
57.00500 110.000
57.02000 130.000
57.03500 123.000
57.05000 114.000
57.06500 115.000
57.08000 114.000
57.09500 109.000
57.11000 119.000
57.12500 133.000
57.14000 119.000
57.15500 106.000
57.17000 131.000
57.18500 100.000
57.20000 107.000
57.21500 106.000
57.23000 113.000
57.24500 119.000
57.26000 118.000
57.27500 121.000
57.29000 116.000
57.30500 107.000
57.32000 125.000
57.33500 118.000
57.35000 121.000
57.36500 98.000
57.38000 105.000
57.39500 119.000
57.41000 110.000
57.42500 126.000
57.44000 123.000
57.45500 114.000
57.47000 112.000
57.48500 118.000
57.50000 119.000
57.51500 102.000
57.53000 121.000
57.54500 128.000
57.56000 109.000
57.57500 105.000
57.59000 103.000
57.60500 100.000
57.62000 103.000
57.63500 116.000
57.65000 117.000
57.66500 119.000
57.68000 131.000
57.69500 103.000
57.71000 120.000
57.72500 124.000
57.74000 124.000
57.75500 136.000
57.77000 117.000
57.78500 102.000
57.80000 122.000
57.81500 112.000
57.83000 114.000
57.84500 111.000
57.86000 122.000
57.87500 114.000
57.89000 114.000
57.90500 113.000
57.92000 111.000
57.93500 104.000
57.95000 106.000
57.96500 119.000
57.98000 118.000
57.99500 118.000
58.01000 119.000
58.02500 106.000
58.04000 109.000
58.05500 120.000
58.07000 112.000
58.08500 121.000
58.10000 122.000
58.11500 118.000
58.13000 110.000
58.14500 123.000
58.16000 110.000
58.17500 115.000
58.19000 101.000
58.20500 106.000
58.22000 103.000
58.23500 118.000
58.25000 109.000
58.26500 113.000
58.28000 113.000
58.29500 109.000
58.31000 105.000
58.32500 112.000
58.34000 115.000
58.35500 120.000
58.37000 104.000
58.38500 110.000
58.40000 110.000
58.41500 112.000
58.43000 127.000
58.44500 128.000
58.46000 114.000
58.47500 114.000
58.49000 111.000
58.50500 116.000
58.52000 107.000
58.53500 111.000
58.55000 115.000
58.56500 106.000
58.58000 111.000
58.59500 113.000
58.61000 110.000
58.62500 125.000
58.64000 124.000
58.65500 119.000
58.67000 122.000
58.68500 109.000
58.70000 100.000
58.71500 107.000
58.73000 126.000
58.74500 133.000
58.76000 118.000
58.77500 114.000
58.79000 120.000
58.80500 126.000
58.82000 131.000
58.83500 119.000
58.85000 107.000
58.86500 104.000
58.88000 108.000
58.89500 119.000
58.91000 127.000
58.92500 110.000
58.94000 126.000
58.95500 125.000
58.97000 107.000
58.98500 101.000
59.00000 101.000
59.01500 119.000
59.03000 112.000
59.04500 115.000
59.06000 139.000
59.07500 104.000
59.09000 102.000
59.10500 92.000
59.12000 116.000
59.13500 116.000
59.15000 117.000
59.16500 115.000
59.18000 115.000
59.19500 109.000
59.21000 125.000
59.22500 119.000
59.24000 116.000
59.25500 102.000
59.27000 99.000
59.28500 112.000
59.30000 99.000
59.31500 110.000
59.33000 95.000
59.34500 117.000
59.36000 110.000
59.37500 116.000
59.39000 96.000
59.40500 125.000
59.42000 108.000
59.43500 103.000
59.45000 110.000
59.46500 123.000
59.48000 108.000
59.49500 110.000
59.51000 129.000
59.52500 115.000
59.54000 122.000
59.55500 134.000
59.57000 120.000
59.58500 129.000
59.60000 116.000
59.61500 108.000
59.63000 117.000
59.64500 128.000
59.66000 124.000
59.67500 135.000
59.69000 122.000
59.70500 112.000
59.72000 113.000
59.73500 122.000
59.75000 97.000
59.76500 104.000
59.78000 108.000
59.79500 115.000
59.81000 122.000
59.82500 121.000
59.84000 105.000
59.85500 114.000
59.87000 109.000
59.88500 112.000
59.90000 122.000
59.91500 108.000
59.93000 113.000
59.94500 113.000
59.96000 119.000
59.97500 111.000
59.99000 111.000
60.00500 110.000
60.02000 123.000
60.03500 112.000
60.05000 127.000
60.06500 124.000
60.08000 104.000
60.09500 116.000
60.11000 110.000
60.12500 106.000
60.14000 105.000
60.15500 103.000
60.17000 125.000
60.18500 102.000
60.20000 104.000
60.21500 92.000
60.23000 107.000
60.24500 123.000
60.26000 122.000
60.27500 110.000
60.29000 116.000
60.30500 117.000
60.32000 103.000
60.33500 116.000
60.35000 119.000
60.36500 118.000
60.38000 113.000
60.39500 108.000
60.41000 111.000
60.42500 121.000
60.44000 123.000
60.45500 114.000
60.47000 106.000
60.48500 114.000
60.50000 115.000
60.51500 120.000
60.53000 123.000
60.54500 111.000
60.56000 113.000
60.57500 131.000
60.59000 111.000
60.60500 117.000
60.62000 113.000
60.63500 101.000
60.65000 125.000
60.66500 125.000
60.68000 121.000
60.69500 127.000
60.71000 117.000
60.72500 109.000
60.74000 106.000
60.75500 113.000
60.77000 114.000
60.78500 111.000
60.80000 110.000
60.81500 121.000
60.83000 117.000
60.84500 115.000
60.86000 128.000
60.87500 117.000
60.89000 108.000
60.90500 102.000
60.92000 117.000
60.93500 126.000
60.95000 121.000
60.96500 107.000
60.98000 116.000
60.99500 116.000
61.01000 109.000
61.02500 94.000
61.04000 111.000
61.05500 116.000
61.07000 119.000
61.08500 126.000
61.10000 120.000
61.11500 120.000
61.13000 110.000
61.14500 122.000
61.16000 123.000
61.17500 119.000
61.19000 110.000
61.20500 111.000
61.22000 106.000
61.23500 119.000
61.25000 132.000
61.26500 126.000
61.28000 118.000
61.29500 114.000
61.31000 124.000
61.32500 116.000
61.34000 111.000
61.35500 106.000
61.37000 113.000
61.38500 118.000
61.40000 118.000
61.41500 125.000
61.43000 134.000
61.44500 113.000
61.46000 119.000
61.47500 103.000
61.49000 111.000
61.50500 104.000
61.52000 118.000
61.53500 113.000
61.55000 120.000
61.56500 108.000
61.58000 115.000
61.59500 122.000
61.61000 107.000
61.62500 108.000
61.64000 115.000
61.65500 119.000
61.67000 108.000
61.68500 108.000
61.70000 102.000
61.71500 95.000
61.73000 106.000
61.74500 110.000
61.76000 99.000
61.77500 98.000
61.79000 126.000
61.80500 112.000
61.82000 110.000
61.83500 106.000
61.85000 113.000
61.86500 113.000
61.88000 101.000
61.89500 116.000
61.91000 124.000
61.92500 115.000
61.94000 122.000
61.95500 117.000
61.97000 111.000
61.98500 117.000
