2.00000 3.000
2.01500 7.000
2.03000 8.000
2.04500 9.000
2.06000 8.000
2.07500 6.000
2.09000 5.000
2.10500 2.000
2.12000 3.000
2.13500 4.000
2.15000 10.000
2.16500 7.000
2.18000 2.000
2.19500 6.000
2.21000 6.000
2.22500 8.000
2.24000 7.000
2.25500 9.000
2.27000 7.000
2.28500 4.000
2.30000 6.000
2.31500 5.000
2.33000 4.000
2.34500 8.000
2.36000 9.000
2.37500 11.000
2.39000 8.000
2.40500 4.000
2.42000 4.000
2.43500 4.000
2.45000 5.000
2.46500 6.000
2.48000 5.000
2.49500 4.000
2.51000 3.000
2.52500 5.000
2.54000 8.000
2.55500 5.000
2.57000 9.000
2.58500 6.000
2.60000 7.000
2.61500 6.000
2.63000 9.000
2.64500 6.000
2.66000 11.000
2.67500 9.000
2.69000 5.000
2.70500 5.000
2.72000 9.000
2.73500 4.000
2.75000 5.000
2.76500 8.000
2.78000 8.000
2.79500 6.000
2.81000 2.000
2.82500 7.000
2.84000 3.000
2.85500 6.000
2.87000 8.000
2.88500 7.000
2.90000 7.000
2.91500 7.000
2.93000 4.000
2.94500 6.000
2.96000 6.000
2.97500 4.000
2.99000 5.000
3.00500 4.000
3.02000 5.000
3.03500 7.000
3.05000 3.000
3.06500 4.000
3.08000 3.000
3.09500 7.000
3.11000 6.000
3.12500 6.000
3.14000 5.000
3.15500 7.000
3.17000 5.000
3.18500 7.000
3.20000 11.000
3.21500 11.000
3.23000 9.000
3.24500 19.000
3.26000 23.000
3.27500 31.000
3.29000 31.000
3.30500 35.000
3.32000 37.000
3.33500 42.000
3.35000 58.000
3.36500 62.000
3.38000 72.000
3.39500 114.000
3.41000 144.000
3.42500 186.000
3.44000 232.000
3.45500 249.000
3.47000 281.000
3.48500 322.000
3.50000 297.000
3.51500 339.000
3.53000 329.000
3.54500 340.000
3.56000 353.000
3.57500 342.000
3.59000 332.000
3.60500 338.000
3.62000 358.000
3.63500 367.000
3.65000 353.000
3.66500 342.000
3.68000 342.000
3.69500 339.000
3.71000 321.000
3.72500 361.000
3.74000 329.000
3.75500 330.000
3.77000 348.000
3.78500 359.000
3.80000 351.000
3.81500 307.000
3.83000 307.000
3.84500 352.000
3.86000 367.000
3.87500 360.000
3.89000 352.000
3.90500 354.000
3.92000 346.000
3.93500 328.000
3.95000 317.000
3.96500 350.000
3.98000 359.000
3.99500 355.000
4.01000 336.000
4.02500 336.000
4.04000 300.000
4.05500 322.000
4.07000 331.000
4.08500 342.000
4.10000 330.000
4.11500 364.000
4.13000 317.000
4.14500 326.000
4.16000 322.000
4.17500 331.000
4.19000 349.000
4.20500 328.000
4.22000 343.000
4.23500 359.000
4.25000 335.000
4.26500 347.000
4.28000 350.000
4.29500 339.000
4.31000 339.000
4.32500 348.000
4.34000 330.000
4.35500 335.000
4.37000 357.000
4.38500 342.000
4.40000 338.000
4.41500 358.000
4.43000 360.000
4.44500 337.000
4.46000 320.000
4.47500 333.000
4.49000 335.000
4.50500 354.000
4.52000 335.000
4.53500 332.000
4.55000 291.000
4.56500 311.000
4.58000 328.000
4.59500 337.000
4.61000 342.000
4.62500 325.000
4.64000 312.000
4.65500 309.000
4.67000 311.000
4.68500 315.000
4.70000 336.000
4.71500 328.000
4.73000 328.000
4.74500 349.000
4.76000 317.000
4.77500 333.000
4.79000 340.000
4.80500 361.000
4.82000 351.000
4.83500 333.000
4.85000 328.000
4.86500 329.000
4.88000 332.000
4.89500 349.000
4.91000 332.000
4.92500 332.000
4.94000 313.000
4.95500 324.000
4.97000 328.000
4.98500 355.000
5.00000 361.000
5.01500 347.000
5.03000 353.000
5.04500 350.000
5.06000 349.000
5.07500 343.000
5.09000 336.000
5.10500 346.000
5.12000 338.000
5.13500 332.000
5.15000 364.000
5.16500 368.000
5.18000 368.000
5.19500 363.000
5.21000 355.000
5.22500 377.000
5.24000 391.000
5.25500 368.000
5.27000 341.000
5.28500 355.000
5.30000 361.000
5.31500 387.000
5.33000 362.000
5.34500 332.000
5.36000 363.000
5.37500 355.000
5.39000 351.000
5.40500 358.000
5.42000 390.000
5.43500 380.000
5.45000 347.000
5.46500 369.000
5.48000 365.000
5.49500 369.000
5.51000 361.000
5.52500 370.000
5.54000 349.000
5.55500 353.000
5.57000 368.000
5.58500 340.000
5.60000 381.000
5.61500 391.000
5.63000 385.000
5.64500 363.000
5.66000 367.000
5.67500 423.000
5.69000 402.000
5.70500 392.000
5.72000 401.000
5.73500 419.000
5.75000 390.000
5.76500 399.000
5.78000 398.000
5.79500 400.000
5.81000 418.000
5.82500 435.000
5.84000 429.000
5.85500 429.000
5.87000 437.000
5.88500 454.000
5.90000 457.000
5.91500 481.000
5.93000 444.000
5.94500 491.000
5.96000 504.000
5.97500 556.000
5.99000 585.000
6.00500 571.000
6.02000 638.000
6.03500 656.000
6.05000 685.000
6.06500 741.000
6.08000 811.000
6.09500 879.000
6.11000 998.000
6.12500 1085.000
6.14000 1221.000
6.15500 1430.000
6.17000 1520.000
6.18500 1378.000
6.20000 1053.000
6.21500 754.000
6.23000 551.000
6.24500 492.000
6.26000 446.000
6.27500 421.000
6.29000 406.000
6.30500 436.000
6.32000 413.000
6.33500 427.000
6.35000 431.000
6.36500 397.000
6.38000 379.000
6.39500 394.000
6.41000 407.000
6.42500 382.000
6.44000 386.000
6.45500 398.000
6.47000 380.000
6.48500 382.000
6.50000 369.000
6.51500 382.000
6.53000 415.000
6.54500 378.000
6.56000 384.000
6.57500 405.000
6.59000 403.000
6.60500 379.000
6.62000 380.000
6.63500 387.000
6.65000 372.000
6.66500 377.000
6.68000 404.000
6.69500 370.000
6.71000 377.000
6.72500 366.000
6.74000 362.000
6.75500 366.000
6.77000 388.000
6.78500 387.000
6.80000 362.000
6.81500 421.000
6.83000 402.000
6.84500 420.000
6.86000 400.000
6.87500 375.000
6.89000 383.000
6.90500 394.000
6.92000 427.000
6.93500 409.000
6.95000 411.000
6.96500 388.000
6.98000 376.000
6.99500 372.000
7.01000 406.000
7.02500 396.000
7.04000 394.000
7.05500 395.000
7.07000 408.000
7.08500 393.000
7.10000 400.000
7.11500 387.000
7.13000 371.000
7.14500 384.000
7.16000 370.000
7.17500 404.000
7.19000 403.000
7.20500 395.000
7.22000 390.000
7.23500 413.000
7.25000 413.000
7.26500 393.000
7.28000 384.000
7.29500 370.000
7.31000 385.000
7.32500 401.000
7.34000 425.000
7.35500 409.000
7.37000 406.000
7.38500 410.000
7.40000 384.000
7.41500 416.000
7.43000 371.000
7.44500 396.000
7.46000 412.000
7.47500 427.000
7.49000 418.000
7.50500 396.000
7.52000 401.000
7.53500 401.000
7.55000 378.000
7.56500 372.000
7.58000 400.000
7.59500 397.000
7.61000 403.000
7.62500 419.000
7.64000 384.000
7.65500 419.000
7.67000 398.000
7.68500 375.000
7.70000 390.000
7.71500 392.000
7.73000 432.000
7.74500 454.000
7.76000 413.000
7.77500 417.000
7.79000 423.000
7.80500 412.000
7.82000 422.000
7.83500 413.000
7.85000 406.000
7.86500 390.000
7.88000 399.000
7.89500 362.000
7.91000 381.000
7.92500 410.000
7.94000 408.000
7.95500 420.000
7.97000 387.000
7.98500 406.000
8.00000 398.000
8.01500 409.000
8.03000 391.000
8.04500 413.000
8.06000 437.000
8.07500 421.000
8.09000 429.000
8.10500 429.000
8.12000 445.000
8.13500 419.000
8.15000 390.000
8.16500 419.000
8.18000 420.000
8.19500 383.000
8.21000 382.000
8.22500 392.000
8.24000 422.000
8.25500 403.000
8.27000 397.000
8.28500 407.000
8.30000 408.000
8.31500 405.000
8.33000 427.000
8.34500 452.000
8.36000 442.000
8.37500 387.000
8.39000 408.000
8.40500 433.000
8.42000 419.000
8.43500 422.000
8.45000 458.000
8.46500 437.000
8.48000 413.000
8.49500 413.000
8.51000 419.000
8.52500 409.000
8.54000 428.000
8.55500 421.000
8.57000 423.000
8.58500 454.000
8.60000 436.000
8.61500 422.000
8.63000 410.000
8.64500 442.000
8.66000 421.000
8.67500 425.000
8.69000 401.000
8.70500 416.000
8.72000 447.000
8.73500 441.000
8.75000 431.000
8.76500 421.000
8.78000 452.000
8.79500 452.000
8.81000 458.000
8.82500 452.000
8.84000 467.000
8.85500 452.000
8.87000 415.000
8.88500 401.000
8.90000 405.000
8.91500 412.000
8.93000 397.000
8.94500 434.000
8.96000 440.000
8.97500 411.000
8.99000 436.000
9.00500 423.000
9.02000 439.000
9.03500 447.000
9.05000 413.000
9.06500 436.000
9.08000 422.000
9.09500 437.000
9.11000 467.000
9.12500 421.000
9.14000 429.000
9.15500 429.000
9.17000 443.000
9.18500 444.000
9.20000 422.000
9.21500 447.000
9.23000 447.000
9.24500 429.000
9.26000 412.000
9.27500 401.000
9.29000 418.000
9.30500 447.000
9.32000 454.000
9.33500 448.000
9.35000 435.000
9.36500 440.000
9.38000 409.000
9.39500 465.000
9.41000 426.000
9.42500 421.000
9.44000 398.000
9.45500 415.000
9.47000 404.000
9.48500 433.000
9.50000 430.000
9.51500 419.000
9.53000 456.000
9.54500 445.000
9.56000 435.000
9.57500 425.000
9.59000 398.000
9.60500 372.000
9.62000 441.000
9.63500 431.000
9.65000 447.000
9.66500 428.000
9.68000 442.000
9.69500 427.000
9.71000 462.000
9.72500 445.000
9.74000 446.000
9.75500 462.000
9.77000 459.000
9.78500 455.000
9.80000 466.000
9.81500 461.000
9.83000 479.000
9.84500 456.000
9.86000 446.000
9.87500 442.000
9.89000 445.000
9.90500 435.000
9.92000 432.000
9.93500 421.000
9.95000 391.000
9.96500 430.000
9.98000 448.000
9.99500 440.000
10.01000 417.000
10.02500 429.000
10.04000 418.000
10.05500 428.000
10.07000 447.000
10.08500 431.000
10.10000 420.000
10.11500 451.000
10.13000 462.000
10.14500 414.000
10.16000 437.000
10.17500 445.000
10.19000 451.000
10.20500 446.000
10.22000 432.000
10.23500 450.000
10.25000 439.000
10.26500 431.000
10.28000 431.000
10.29500 464.000
10.31000 458.000
10.32500 446.000
10.34000 458.000
10.35500 432.000
10.37000 446.000
10.38500 443.000
10.40000 481.000
10.41500 476.000
10.43000 442.000
10.44500 444.000
10.46000 448.000
10.47500 417.000
10.49000 461.000
10.50500 424.000
10.52000 449.000
10.53500 425.000
10.55000 446.000
10.56500 416.000
10.58000 452.000
10.59500 488.000
10.61000 449.000
10.62500 431.000
10.64000 399.000
10.65500 468.000
10.67000 480.000
10.68500 485.000
10.70000 475.000
10.71500 478.000
10.73000 504.000
10.74500 485.000
10.76000 469.000
10.77500 452.000
10.79000 475.000
10.80500 439.000
10.82000 442.000
10.83500 460.000
10.85000 488.000
10.86500 478.000
10.88000 477.000
10.89500 451.000
10.91000 476.000
10.92500 460.000
10.94000 497.000
10.95500 492.000
10.97000 469.000
10.98500 498.000
11.00000 468.000
11.01500 485.000
11.03000 464.000
11.04500 485.000
11.06000 488.000
11.07500 472.000
11.09000 465.000
11.10500 437.000
11.12000 480.000
11.13500 497.000
11.15000 469.000
11.16500 464.000
11.18000 487.000
11.19500 478.000
11.21000 446.000
11.22500 451.000
11.24000 491.000
11.25500 496.000
11.27000 485.000
11.28500 495.000
11.30000 517.000
11.31500 501.000
11.33000 471.000
11.34500 511.000
11.36000 502.000
11.37500 502.000
11.39000 483.000
11.40500 496.000
11.42000 471.000
11.43500 483.000
11.45000 473.000
11.46500 486.000
11.48000 477.000
11.49500 448.000
11.51000 480.000
11.52500 471.000
11.54000 472.000
11.55500 489.000
11.57000 485.000
11.58500 508.000
11.60000 475.000
11.61500 470.000
11.63000 475.000
11.64500 479.000
11.66000 517.000
11.67500 503.000
11.69000 494.000
11.70500 508.000
11.72000 485.000
11.73500 496.000
11.75000 495.000
11.76500 502.000
11.78000 509.000
11.79500 513.000
11.81000 520.000
11.82500 502.000
11.84000 490.000
11.85500 541.000
11.87000 531.000
11.88500 552.000
11.90000 560.000
11.91500 522.000
11.93000 522.000
11.94500 555.000
11.96000 549.000
11.97500 584.000
11.99000 583.000
12.00500 602.000
12.02000 667.000
12.03500 690.000
12.05000 714.000
12.06500 767.000
12.08000 792.000
12.09500 893.000
12.11000 960.000
12.12500 1115.000
12.14000 1287.000
12.15500 1422.000
12.17000 1575.000
12.18500 1752.000
12.20000 2068.000
12.21500 2436.000
12.23000 2898.000
12.24500 3029.000
12.26000 3165.000
12.27500 3129.000
12.29000 3073.000
12.30500 3170.000
12.32000 3451.000
12.33500 3770.000
12.35000 3668.000
12.36500 3202.000
12.38000 2445.000
12.39500 1799.000
12.41000 1356.000
12.42500 1141.000
12.44000 1013.000
12.45500 936.000
12.47000 861.000
12.48500 881.000
12.50000 880.000
12.51500 839.000
12.53000 827.000
12.54500 840.000
12.56000 791.000
12.57500 757.000
12.59000 742.000
12.60500 781.000
12.62000 766.000
12.63500 766.000
12.65000 770.000
12.66500 766.000
12.68000 763.000
12.69500 744.000
12.71000 721.000
12.72500 740.000
12.74000 713.000
12.75500 700.000
12.77000 686.000
12.78500 676.000
12.80000 682.000
12.81500 697.000
12.83000 673.000
12.84500 717.000
12.86000 677.000
12.87500 681.000
12.89000 689.000
12.90500 667.000
12.92000 669.000
12.93500 680.000
12.95000 678.000
12.96500 682.000
12.98000 670.000
12.99500 701.000
13.01000 696.000
13.02500 662.000
13.04000 680.000
13.05500 707.000
13.07000 689.000
13.08500 692.000
13.10000 681.000
13.11500 682.000
13.13000 718.000
13.14500 723.000
13.16000 724.000
13.17500 730.000
13.19000 690.000
13.20500 735.000
13.22000 740.000
13.23500 748.000
13.25000 705.000
13.26500 760.000
13.28000 763.000
13.29500 786.000
13.31000 797.000
13.32500 892.000
13.34000 915.000
13.35500 936.000
13.37000 988.000
13.38500 1079.000
13.40000 1119.000
13.41500 1095.000
13.43000 1077.000
13.44500 1048.000
13.46000 959.000
13.47500 879.000
13.49000 824.000
13.50500 750.000
13.52000 722.000
13.53500 732.000
13.55000 673.000
13.56500 700.000
13.58000 691.000
13.59500 689.000
13.61000 684.000
13.62500 720.000
13.64000 695.000
13.65500 673.000
13.67000 706.000
13.68500 731.000
13.70000 686.000
13.71500 665.000
13.73000 634.000
13.74500 640.000
13.76000 680.000
13.77500 644.000
13.79000 645.000
13.80500 630.000
13.82000 625.000
13.83500 646.000
13.85000 627.000
13.86500 587.000
13.88000 618.000
13.89500 595.000
13.91000 591.000
13.92500 611.000
13.94000 586.000
13.95500 575.000
13.97000 604.000
13.98500 605.000
14.00000 593.000
14.01500 580.000
14.03000 587.000
14.04500 602.000
14.06000 625.000
14.07500 597.000
14.09000 564.000
14.10500 573.000
14.12000 559.000
14.13500 564.000
14.15000 591.000
14.16500 578.000
14.18000 580.000
14.19500 581.000
14.21000 585.000
14.22500 576.000
14.24000 578.000
14.25500 573.000
14.27000 567.000
14.28500 574.000
14.30000 554.000
14.31500 569.000
14.33000 590.000
14.34500 580.000
14.36000 559.000
14.37500 602.000
14.39000 581.000
14.40500 549.000
14.42000 533.000
14.43500 557.000
14.45000 602.000
14.46500 601.000
14.48000 554.000
14.49500 577.000
14.51000 595.000
14.52500 547.000
14.54000 542.000
14.55500 551.000
14.57000 585.000
14.58500 603.000
14.60000 553.000
14.61500 589.000
14.63000 560.000
14.64500 568.000
14.66000 535.000
14.67500 555.000
14.69000 561.000
14.70500 574.000
14.72000 551.000
14.73500 546.000
14.75000 573.000
14.76500 551.000
14.78000 550.000
14.79500 551.000
14.81000 553.000
14.82500 547.000
14.84000 550.000
14.85500 577.000
14.87000 547.000
14.88500 539.000
14.90000 556.000
14.91500 550.000
14.93000 550.000
14.94500 547.000
14.96000 607.000
14.97500 573.000
14.99000 533.000
15.00500 527.000
15.02000 539.000
15.03500 561.000
15.05000 538.000
15.06500 553.000
15.08000 564.000
15.09500 577.000
15.11000 577.000
15.12500 600.000
15.14000 547.000
15.15500 541.000
15.17000 540.000
15.18500 578.000
15.20000 558.000
15.21500 549.000
15.23000 572.000
15.24500 583.000
15.26000 557.000
15.27500 557.000
15.29000 549.000
15.30500 550.000
15.32000 560.000
15.33500 584.000
15.35000 563.000
15.36500 524.000
15.38000 539.000
15.39500 580.000
15.41000 536.000
15.42500 550.000
15.44000 551.000
15.45500 548.000
15.47000 524.000
15.48500 548.000
15.50000 561.000
15.51500 568.000
15.53000 570.000
15.54500 557.000
15.56000 532.000
15.57500 528.000
15.59000 543.000
15.60500 561.000
15.62000 577.000
15.63500 589.000
15.65000 556.000
15.66500 508.000
15.68000 532.000
15.69500 550.000
15.71000 572.000
15.72500 587.000
15.74000 579.000
15.75500 548.000
15.77000 561.000
15.78500 565.000
15.80000 519.000
15.81500 543.000
15.83000 509.000
15.84500 563.000
15.86000 544.000
15.87500 586.000
15.89000 558.000
15.90500 543.000
15.92000 552.000
15.93500 569.000
15.95000 582.000
15.96500 564.000
15.98000 545.000
15.99500 521.000
16.01000 556.000
16.02500 558.000
16.04000 555.000
16.05500 533.000
16.07000 583.000
16.08500 576.000
16.10000 568.000
16.11500 552.000
16.13000 561.000
16.14500 562.000
16.16000 583.000
16.17500 569.000
16.19000 542.000
16.20500 551.000
16.22000 584.000
16.23500 599.000
16.25000 580.000
16.26500 577.000
16.28000 599.000
16.29500 597.000
16.31000 608.000
16.32500 615.000
16.34000 626.000
16.35500 622.000
16.37000 619.000
16.38500 634.000
16.40000 651.000
16.41500 601.000
16.43000 612.000
16.44500 619.000
16.46000 616.000
16.47500 620.000
16.49000 636.000
16.50500 626.000
16.52000 642.000
16.53500 631.000
16.55000 628.000
16.56500 592.000
16.58000 615.000
16.59500 572.000
16.61000 600.000
16.62500 613.000
16.64000 600.000
16.65500 603.000
16.67000 541.000
16.68500 541.000
16.70000 586.000
16.71500 563.000
16.73000 569.000
16.74500 596.000
16.76000 594.000
16.77500 584.000
16.79000 537.000
16.80500 551.000
16.82000 603.000
16.83500 597.000
16.85000 647.000
16.86500 600.000
16.88000 583.000
16.89500 657.000
16.91000 602.000
16.92500 605.000
16.94000 634.000
16.95500 581.000
16.97000 554.000
16.98500 564.000
17.00000 588.000
17.01500 580.000
17.03000 568.000
17.04500 564.000
17.06000 593.000
17.07500 577.000
17.09000 581.000
17.10500 593.000
17.12000 589.000
17.13500 587.000
17.15000 562.000
17.16500 565.000
17.18000 556.000
17.19500 560.000
17.21000 564.000
17.22500 588.000
17.24000 544.000
17.25500 559.000
17.27000 553.000
17.28500 567.000
17.30000 582.000
17.31500 600.000
17.33000 578.000
17.34500 579.000
17.36000 611.000
17.37500 567.000
17.39000 570.000
17.40500 544.000
17.42000 547.000
17.43500 602.000
17.45000 602.000
17.46500 602.000
17.48000 599.000
17.49500 602.000
17.51000 629.000
17.52500 589.000
17.54000 540.000
17.55500 609.000
17.57000 598.000
17.58500 617.000
17.60000 594.000
17.61500 618.000
17.63000 571.000
17.64500 594.000
17.66000 604.000
17.67500 582.000
17.69000 614.000
17.70500 565.000
17.72000 639.000
17.73500 600.000
17.75000 608.000
17.76500 578.000
17.78000 584.000
17.79500 609.000
17.81000 568.000
17.82500 595.000
17.84000 615.000
17.85500 592.000
17.87000 571.000
17.88500 612.000
17.90000 608.000
17.91500 606.000
17.93000 613.000
17.94500 576.000
17.96000 631.000
17.97500 643.000
17.99000 653.000
18.00500 639.000
18.02000 673.000
18.03500 655.000
18.05000 645.000
18.06500 676.000
18.08000 687.000
18.09500 681.000
18.11000 609.000
18.12500 631.000
18.14000 615.000
18.15500 605.000
18.17000 615.000
18.18500 610.000
18.20000 588.000
18.21500 605.000
18.23000 634.000
18.24500 577.000
18.26000 575.000
18.27500 602.000
18.29000 623.000
18.30500 613.000
18.32000 608.000
18.33500 631.000
18.35000 640.000
18.36500 632.000
18.38000 621.000
18.39500 632.000
18.41000 581.000
18.42500 617.000
18.44000 619.000
18.45500 575.000
18.47000 654.000
18.48500 656.000
18.50000 617.000
18.51500 650.000
18.53000 687.000
18.54500 704.000
18.56000 694.000
18.57500 668.000
18.59000 653.000
18.60500 622.000
18.62000 624.000
18.63500 624.000
18.65000 651.000
18.66500 622.000
18.68000 609.000
18.69500 614.000
18.71000 613.000
18.72500 612.000
18.74000 604.000
18.75500 590.000
18.77000 636.000
18.78500 614.000
18.80000 627.000
18.81500 605.000
18.83000 599.000
18.84500 605.000
18.86000 614.000
18.87500 605.000
18.89000 617.000
18.90500 634.000
18.92000 615.000
18.93500 649.000
18.95000 624.000
18.96500 606.000
18.98000 633.000
18.99500 572.000
19.01000 599.000
19.02500 616.000
19.04000 576.000
19.05500 592.000
19.07000 603.000
19.08500 586.000
19.10000 599.000
19.11500 586.000
19.13000 602.000
19.14500 583.000
19.16000 605.000
19.17500 596.000
19.19000 602.000
19.20500 600.000
19.22000 621.000
19.23500 564.000
19.25000 579.000
19.26500 621.000
19.28000 625.000
19.29500 656.000
19.31000 656.000
19.32500 685.000
19.34000 675.000
19.35500 714.000
19.37000 702.000
19.38500 724.000
19.40000 760.000
19.41500 784.000
19.43000 789.000
19.44500 814.000
19.46000 774.000
19.47500 810.000
19.49000 799.000
19.50500 780.000
19.52000 783.000
19.53500 771.000
19.55000 758.000
19.56500 726.000
19.58000 758.000
19.59500 746.000
19.61000 834.000
19.62500 806.000
19.64000 822.000
19.65500 797.000
19.67000 750.000
19.68500 686.000
19.70000 665.000
19.71500 674.000
19.73000 657.000
19.74500 634.000
19.76000 665.000
19.77500 619.000
19.79000 624.000
19.80500 624.000
19.82000 586.000
19.83500 595.000
19.85000 596.000
19.86500 592.000
19.88000 585.000
19.89500 594.000
19.91000 613.000
19.92500 599.000
19.94000 594.000
19.95500 597.000
19.97000 582.000
19.98500 574.000
20.00000 571.000
20.01500 636.000
20.03000 591.000
20.04500 591.000
20.06000 600.000
20.07500 565.000
20.09000 608.000
20.10500 616.000
20.12000 622.000
20.13500 570.000
20.15000 612.000
20.16500 606.000
20.18000 604.000
20.19500 650.000
20.21000 583.000
20.22500 642.000
20.24000 610.000
20.25500 569.000
20.27000 580.000
20.28500 626.000
20.30000 591.000
20.31500 592.000
20.33000 584.000
20.34500 587.000
20.36000 587.000
20.37500 603.000
20.39000 620.000
20.40500 606.000
20.42000 595.000
20.43500 620.000
20.45000 588.000
20.46500 621.000
20.48000 600.000
20.49500 600.000
20.51000 607.000
20.52500 614.000
20.54000 614.000
20.55500 621.000
20.57000 604.000
20.58500 629.000
20.60000 603.000
20.61500 614.000
20.63000 620.000
20.64500 615.000
20.66000 606.000
20.67500 581.000
20.69000 587.000
20.70500 555.000
20.72000 576.000
20.73500 596.000
20.75000 583.000
20.76500 602.000
20.78000 625.000
20.79500 605.000
20.81000 590.000
20.82500 602.000
20.84000 599.000
20.85500 591.000
20.87000 595.000
20.88500 606.000
20.90000 615.000
20.91500 596.000
20.93000 588.000
20.94500 587.000
20.96000 593.000
20.97500 617.000
20.99000 596.000
21.00500 563.000
21.02000 554.000
21.03500 579.000
21.05000 592.000
21.06500 583.000
21.08000 553.000
21.09500 574.000
21.11000 563.000
21.12500 575.000
21.14000 538.000
21.15500 565.000
21.17000 576.000
21.18500 581.000
21.20000 569.000
21.21500 542.000
21.23000 577.000
21.24500 593.000
21.26000 596.000
21.27500 610.000
21.29000 618.000
21.30500 591.000
21.32000 595.000
21.33500 570.000
21.35000 603.000
21.36500 606.000
21.38000 606.000
21.39500 593.000
21.41000 581.000
21.42500 610.000
21.44000 645.000
21.45500 633.000
21.47000 604.000
21.48500 633.000
21.50000 641.000
21.51500 666.000
21.53000 618.000
21.54500 673.000
21.56000 684.000
21.57500 708.000
21.59000 730.000
21.60500 727.000
21.62000 716.000
21.63500 690.000
21.65000 665.000
21.66500 636.000
21.68000 703.000
21.69500 660.000
21.71000 654.000
21.72500 631.000
21.74000 627.000
21.75500 611.000
21.77000 631.000
21.78500 687.000
21.80000 689.000
21.81500 654.000
21.83000 645.000
21.84500 637.000
21.86000 628.000
21.87500 627.000
21.89000 656.000
21.90500 623.000
21.92000 605.000
21.93500 643.000
21.95000 629.000
21.96500 611.000
21.98000 655.000
21.99500 646.000
22.01000 672.000
22.02500 707.000
22.04000 660.000
22.05500 683.000
22.07000 678.000
22.08500 695.000
22.10000 643.000
22.11500 679.000
22.13000 723.000
22.14500 696.000
22.16000 712.000
22.17500 725.000
22.19000 646.000
22.20500 714.000
22.22000 747.000
22.23500 726.000
22.25000 687.000
22.26500 670.000
22.28000 647.000
22.29500 672.000
22.31000 661.000
22.32500 659.000
22.34000 689.000
22.35500 665.000
22.37000 630.000
22.38500 598.000
22.40000 586.000
22.41500 598.000
22.43000 627.000
22.44500 621.000
22.46000 636.000
22.47500 621.000
22.49000 628.000
22.50500 615.000
22.52000 635.000
22.53500 660.000
22.55000 626.000
22.56500 580.000
22.58000 597.000
22.59500 633.000
22.61000 634.000
22.62500 618.000
22.64000 625.000
22.65500 618.000
22.67000 609.000
22.68500 613.000
22.70000 661.000
22.71500 596.000
22.73000 619.000
22.74500 599.000
22.76000 617.000
22.77500 627.000
22.79000 623.000
22.80500 628.000
22.82000 611.000
22.83500 618.000
22.85000 601.000
22.86500 595.000
22.88000 613.000
22.89500 624.000
22.91000 617.000
22.92500 639.000
22.94000 611.000
22.95500 675.000
22.97000 641.000
22.98500 660.000
23.00000 628.000
23.01500 638.000
23.03000 655.000
23.04500 652.000
23.06000 639.000
23.07500 680.000
23.09000 659.000
23.10500 599.000
23.12000 643.000
23.13500 683.000
23.15000 616.000
23.16500 642.000
23.18000 664.000
23.19500 614.000
23.21000 632.000
23.22500 632.000
23.24000 645.000
23.25500 655.000
23.27000 649.000
23.28500 669.000
23.30000 700.000
23.31500 666.000
23.33000 635.000
23.34500 617.000
23.36000 631.000
23.37500 642.000
23.39000 638.000
23.40500 679.000
23.42000 680.000
23.43500 682.000
23.45000 650.000
23.46500 605.000
23.48000 642.000
23.49500 660.000
23.51000 649.000
23.52500 688.000
23.54000 723.000
23.55500 656.000
23.57000 620.000
23.58500 692.000
23.60000 663.000
23.61500 699.000
23.63000 687.000
23.64500 676.000
23.66000 692.000
23.67500 705.000
23.69000 683.000
23.70500 663.000
23.72000 700.000
23.73500 666.000
23.75000 712.000
23.76500 707.000
23.78000 690.000
23.79500 619.000
23.81000 635.000
23.82500 749.000
23.84000 700.000
23.85500 669.000
23.87000 631.000
23.88500 703.000
23.90000 719.000
23.91500 686.000
23.93000 678.000
23.94500 667.000
23.96000 626.000
23.97500 651.000
23.99000 633.000
24.00500 660.000
24.02000 649.000
24.03500 652.000
24.05000 628.000
24.06500 629.000
24.08000 647.000
24.09500 643.000
24.11000 613.000
24.12500 596.000
24.14000 610.000
24.15500 606.000
24.17000 623.000
24.18500 616.000
24.20000 619.000
24.21500 631.000
24.23000 663.000
24.24500 610.000
24.26000 647.000
24.27500 646.000
24.29000 664.000
24.30500 669.000
24.32000 632.000
24.33500 633.000
24.35000 656.000
24.36500 676.000
24.38000 678.000
24.39500 638.000
24.41000 629.000
24.42500 648.000
24.44000 655.000
24.45500 634.000
24.47000 667.000
24.48500 630.000
24.50000 686.000
24.51500 674.000
24.53000 628.000
24.54500 625.000
24.56000 659.000
24.57500 661.000
24.59000 648.000
24.60500 672.000
24.62000 657.000
24.63500 689.000
24.65000 695.000
24.66500 697.000
24.68000 706.000
24.69500 709.000
24.71000 695.000
24.72500 706.000
24.74000 692.000
24.75500 736.000
24.77000 761.000
24.78500 801.000
24.80000 817.000
24.81500 832.000
24.83000 852.000
24.84500 821.000
24.86000 764.000
24.87500 729.000
24.89000 725.000
24.90500 685.000
24.92000 694.000
24.93500 683.000
24.95000 640.000
24.96500 688.000
24.98000 682.000
24.99500 690.000
25.01000 700.000
25.02500 691.000
25.04000 673.000
25.05500 719.000
25.07000 714.000
25.08500 739.000
25.10000 742.000
25.11500 757.000
25.13000 732.000
25.14500 706.000
25.16000 723.000
25.17500 737.000
25.19000 754.000
25.20500 760.000
25.22000 759.000
25.23500 780.000
25.25000 802.000
25.26500 806.000
25.28000 791.000
25.29500 781.000
25.31000 749.000
25.32500 777.000
25.34000 791.000
25.35500 818.000
25.37000 774.000
25.38500 806.000
25.40000 801.000
25.41500 780.000
25.43000 750.000
25.44500 747.000
25.46000 787.000
25.47500 820.000
25.49000 788.000
25.50500 760.000
25.52000 801.000
25.53500 799.000
25.55000 785.000
25.56500 809.000
25.58000 840.000
25.59500 843.000
25.61000 822.000
25.62500 883.000
25.64000 892.000
25.65500 934.000
25.67000 930.000
25.68500 989.000
25.70000 1022.000
25.71500 1038.000
25.73000 1079.000
25.74500 1152.000
25.76000 1216.000
25.77500 1239.000
25.79000 1252.000
25.80500 1261.000
25.82000 1290.000
25.83500 1280.000
25.85000 1221.000
25.86500 1103.000
25.88000 1099.000
25.89500 1047.000
25.91000 1062.000
25.92500 1071.000
25.94000 997.000
25.95500 991.000
25.97000 950.000
25.98500 991.000
26.00000 923.000
26.01500 943.000
26.03000 980.000
26.04500 967.000
26.06000 980.000
26.07500 991.000
26.09000 949.000
26.10500 939.000
26.12000 981.000
26.13500 992.000
26.15000 1042.000
26.16500 1036.000
26.18000 1055.000
26.19500 1157.000
26.21000 1171.000
26.22500 1259.000
26.24000 1230.000
26.25500 1345.000
26.27000 1319.000
26.28500 1402.000
26.30000 1442.000
26.31500 1429.000
26.33000 1451.000
26.34500 1413.000
26.36000 1437.000
26.37500 1401.000
26.39000 1439.000
26.40500 1380.000
26.42000 1314.000
26.43500 1326.000
26.45000 1294.000
26.46500 1323.000
26.48000 1302.000
26.49500 1237.000
26.51000 1248.000
26.52500 1266.000
26.54000 1225.000
26.55500 1226.000
26.57000 1220.000
26.58500 1274.000
26.60000 1246.000
26.61500 1213.000
26.63000 1288.000
26.64500 1284.000
26.66000 1310.000
26.67500 1313.000
26.69000 1311.000
26.70500 1308.000
26.72000 1369.000
26.73500 1405.000
26.75000 1447.000
26.76500 1464.000
26.78000 1526.000
26.79500 1635.000
26.81000 1579.000
26.82500 1630.000
26.84000 1692.000
26.85500 1679.000
26.87000 1711.000
26.88500 1671.000
26.90000 1666.000
26.91500 1609.000
26.93000 1612.000
26.94500 1579.000
26.96000 1607.000
26.97500 1660.000
26.99000 1701.000
27.00500 1689.000
27.02000 1736.000
27.03500 1812.000
27.05000 1777.000
27.06500 1831.000
27.08000 1843.000
27.09500 1953.000
27.11000 2033.000
27.12500 2077.000
27.14000 2136.000
27.15500 2151.000
27.17000 2131.000
27.18500 2105.000
27.20000 2062.000
27.21500 2067.000
27.23000 2040.000
27.24500 2004.000
27.26000 1886.000
27.27500 1896.000
27.29000 1906.000
27.30500 1868.000
27.32000 1886.000
27.33500 1858.000
27.35000 1845.000
27.36500 1821.000
27.38000 1852.000
27.39500 1857.000
27.41000 1913.000
27.42500 1865.000
27.44000 1940.000
27.45500 1961.000
27.47000 1876.000
27.48500 1908.000
27.50000 1894.000
27.51500 1950.000
27.53000 1939.000
27.54500 2015.000
27.56000 1992.000
27.57500 1968.000
27.59000 1948.000
27.60500 1987.000
27.62000 2015.000
27.63500 2043.000
27.65000 2099.000
27.66500 2197.000
27.68000 2139.000
27.69500 2139.000
27.71000 2159.000
27.72500 2181.000
27.74000 2210.000
27.75500 2346.000
27.77000 2275.000
27.78500 2347.000
27.80000 2429.000
27.81500 2448.000
27.83000 2431.000
27.84500 2371.000
27.86000 2292.000
27.87500 2166.000
27.89000 2080.000
27.90500 1963.000
27.92000 1887.000
27.93500 1776.000
27.95000 1667.000
27.96500 1606.000
27.98000 1596.000
27.99500 1512.000
28.01000 1550.000
28.02500 1492.000
28.04000 1400.000
28.05500 1403.000
28.07000 1318.000
28.08500 1284.000
28.10000 1278.000
28.11500 1206.000
28.13000 1156.000
28.14500 1166.000
28.16000 1159.000
28.17500 1126.000
28.19000 1088.000
28.20500 1080.000
28.22000 1094.000
28.23500 1058.000
28.25000 967.000
28.26500 1013.000
28.28000 1009.000
28.29500 973.000
28.31000 931.000
28.32500 924.000
28.34000 949.000
28.35500 938.000
28.37000 918.000
28.38500 915.000
28.40000 924.000
28.41500 900.000
28.43000 825.000
28.44500 831.000
28.46000 830.000
28.47500 859.000
28.49000 822.000
28.50500 821.000
28.52000 856.000
28.53500 803.000
28.55000 824.000
28.56500 777.000
28.58000 782.000
28.59500 784.000
28.61000 798.000
28.62500 802.000
28.64000 757.000
28.65500 766.000
28.67000 745.000
28.68500 732.000
28.70000 730.000
28.71500 697.000
28.73000 683.000
28.74500 693.000
28.76000 731.000
28.77500 723.000
28.79000 669.000
28.80500 723.000
28.82000 762.000
28.83500 696.000
28.85000 698.000
28.86500 691.000
28.88000 701.000
28.89500 726.000
28.91000 718.000
28.92500 706.000
28.94000 695.000
28.95500 678.000
28.97000 665.000
28.98500 687.000
29.00000 698.000
29.01500 677.000
29.03000 641.000
29.04500 690.000
29.06000 687.000
29.07500 675.000
29.09000 683.000
29.10500 703.000
29.12000 640.000
29.13500 657.000
29.15000 633.000
29.16500 665.000
29.18000 668.000
29.19500 643.000
29.21000 659.000
29.22500 636.000
29.24000 636.000
29.25500 610.000
29.27000 636.000
29.28500 634.000
29.30000 619.000
29.31500 624.000
29.33000 617.000
29.34500 639.000
29.36000 610.000
29.37500 579.000
29.39000 550.000
29.40500 579.000
29.42000 583.000
29.43500 589.000
29.45000 587.000
29.46500 584.000
29.48000 596.000
29.49500 597.000
29.51000 582.000
29.52500 541.000
29.54000 596.000
29.55500 592.000
29.57000 586.000
29.58500 597.000
29.60000 579.000
29.61500 571.000
29.63000 548.000
29.64500 565.000
29.66000 580.000
29.67500 579.000
29.69000 576.000
29.70500 538.000
29.72000 592.000
29.73500 612.000
29.75000 520.000
29.76500 549.000
29.78000 556.000
29.79500 579.000
29.81000 578.000
29.82500 548.000
29.84000 573.000
29.85500 597.000
29.87000 556.000
29.88500 536.000
29.90000 577.000
29.91500 603.000
29.93000 616.000
29.94500 553.000
29.96000 579.000
29.97500 611.000
29.99000 637.000
30.00500 625.000
30.02000 617.000
30.03500 627.000
30.05000 652.000
30.06500 639.000
30.08000 645.000
30.09500 637.000
30.11000 652.000
30.12500 663.000
30.14000 643.000
30.15500 641.000
30.17000 620.000
30.18500 563.000
30.20000 608.000
30.21500 551.000
30.23000 570.000
30.24500 565.000
30.26000 572.000
30.27500 589.000
30.29000 555.000
30.30500 587.000
30.32000 555.000
30.33500 557.000
30.35000 556.000
30.36500 561.000
30.38000 549.000
30.39500 567.000
30.41000 564.000
30.42500 533.000
30.44000 553.000
30.45500 566.000
30.47000 507.000
30.48500 512.000
30.50000 537.000
30.51500 561.000
30.53000 514.000
30.54500 558.000
30.56000 579.000
30.57500 546.000
30.59000 546.000
30.60500 536.000
30.62000 575.000
30.63500 581.000
30.65000 595.000
30.66500 577.000
30.68000 594.000
30.69500 590.000
30.71000 573.000
30.72500 581.000
30.74000 578.000
30.75500 590.000
30.77000 612.000
30.78500 635.000
30.80000 637.000
30.81500 622.000
30.83000 614.000
30.84500 613.000
30.86000 599.000
30.87500 602.000
30.89000 632.000
30.90500 572.000
30.92000 573.000
30.93500 603.000
30.95000 589.000
30.96500 567.000
30.98000 542.000
30.99500 573.000
31.01000 596.000
31.02500 549.000
31.04000 569.000
31.05500 594.000
31.07000 631.000
31.08500 639.000
31.10000 677.000
31.11500 709.000
31.13000 757.000
31.14500 751.000
31.16000 744.000
31.17500 746.000
31.19000 702.000
31.20500 693.000
31.22000 670.000
31.23500 655.000
31.25000 587.000
31.26500 534.000
31.28000 526.000
31.29500 528.000
31.31000 543.000
31.32500 520.000
31.34000 546.000
31.35500 500.000
31.37000 506.000
31.38500 544.000
31.40000 508.000
31.41500 488.000
31.43000 482.000
31.44500 522.000
31.46000 531.000
31.47500 502.000
31.49000 520.000
31.50500 507.000
31.52000 509.000
31.53500 515.000
31.55000 507.000
31.56500 487.000
31.58000 496.000
31.59500 521.000
31.61000 529.000
31.62500 526.000
31.64000 540.000
31.65500 543.000
31.67000 542.000
31.68500 536.000
31.70000 560.000
31.71500 474.000
31.73000 509.000
31.74500 495.000
31.76000 485.000
31.77500 506.000
31.79000 500.000
31.80500 486.000
31.82000 457.000
31.83500 496.000
31.85000 483.000
31.86500 480.000
31.88000 461.000
31.89500 432.000
31.91000 422.000
31.92500 446.000
31.94000 458.000
31.95500 480.000
31.97000 469.000
31.98500 438.000
32.00000 466.000
32.01500 487.000
32.03000 483.000
32.04500 452.000
32.06000 457.000
32.07500 444.000
32.09000 463.000
32.10500 475.000
32.12000 454.000
32.13500 449.000
32.15000 472.000
32.16500 484.000
32.18000 470.000
32.19500 459.000
32.21000 440.000
32.22500 445.000
32.24000 432.000
32.25500 444.000
32.27000 420.000
32.28500 430.000
32.30000 424.000
32.31500 426.000
32.33000 395.000
32.34500 450.000
32.36000 414.000
32.37500 427.000
32.39000 431.000
32.40500 399.000
32.42000 425.000
32.43500 470.000
32.45000 424.000
32.46500 387.000
32.48000 418.000
32.49500 449.000
32.51000 430.000
32.52500 418.000
32.54000 416.000
32.55500 415.000
32.57000 407.000
32.58500 422.000
32.60000 443.000
32.61500 414.000
32.63000 426.000
32.64500 443.000
32.66000 436.000
32.67500 418.000
32.69000 394.000
32.70500 401.000
32.72000 422.000
32.73500 403.000
32.75000 398.000
32.76500 405.000
32.78000 399.000
32.79500 407.000
32.81000 412.000
32.82500 462.000
32.84000 431.000
32.85500 427.000
32.87000 396.000
32.88500 410.000
32.90000 404.000
32.91500 390.000
32.93000 441.000
32.94500 393.000
32.96000 445.000
32.97500 389.000
32.99000 400.000
33.00500 392.000
33.02000 386.000
33.03500 402.000
33.05000 412.000
33.06500 426.000
33.08000 406.000
33.09500 424.000
33.11000 391.000
33.12500 405.000
33.14000 435.000
33.15500 415.000
33.17000 410.000
33.18500 400.000
33.20000 455.000
33.21500 450.000
33.23000 399.000
33.24500 421.000
33.26000 427.000
33.27500 428.000
33.29000 405.000
33.30500 410.000
33.32000 406.000
33.33500 432.000
33.35000 444.000
33.36500 398.000
33.38000 387.000
33.39500 415.000
33.41000 409.000
33.42500 380.000
33.44000 375.000
33.45500 387.000
33.47000 394.000
33.48500 401.000
33.50000 367.000
33.51500 399.000
33.53000 401.000
33.54500 405.000
33.56000 400.000
33.57500 372.000
33.59000 383.000
33.60500 396.000
33.62000 399.000
33.63500 420.000
33.65000 419.000
33.66500 415.000
33.68000 403.000
33.69500 440.000
33.71000 418.000
33.72500 398.000
33.74000 410.000
33.75500 420.000
33.77000 405.000
33.78500 423.000
33.80000 404.000
33.81500 417.000
33.83000 393.000
33.84500 421.000
33.86000 411.000
33.87500 446.000
33.89000 418.000
33.90500 408.000
33.92000 414.000
33.93500 432.000
33.95000 430.000
33.96500 416.000
33.98000 413.000
33.99500 417.000
34.01000 422.000
34.02500 410.000
34.04000 399.000
34.05500 417.000
34.07000 384.000
34.08500 368.000
34.10000 386.000
34.11500 376.000
34.13000 374.000
34.14500 393.000
34.16000 385.000
34.17500 392.000
34.19000 387.000
34.20500 377.000
34.22000 362.000
34.23500 374.000
34.25000 391.000
34.26500 374.000
34.28000 391.000
34.29500 381.000
34.31000 373.000
34.32500 364.000
34.34000 380.000
34.35500 373.000
34.37000 354.000
34.38500 395.000
34.40000 405.000
34.41500 387.000
34.43000 380.000
34.44500 352.000
34.46000 373.000
34.47500 400.000
34.49000 390.000
34.50500 362.000
34.52000 379.000
34.53500 390.000
34.55000 370.000
34.56500 374.000
34.58000 391.000
34.59500 405.000
34.61000 377.000
34.62500 408.000
34.64000 428.000
34.65500 374.000
34.67000 400.000
34.68500 391.000
34.70000 368.000
34.71500 360.000
34.73000 349.000
34.74500 344.000
34.76000 373.000
34.77500 372.000
34.79000 379.000
34.80500 352.000
34.82000 353.000
34.83500 366.000
34.85000 365.000
34.86500 355.000
34.88000 367.000
34.89500 348.000
34.91000 358.000
34.92500 377.000
34.94000 353.000
34.95500 362.000
34.97000 347.000
34.98500 349.000
35.00000 352.000
35.01500 350.000
35.03000 364.000
35.04500 368.000
35.06000 373.000
35.07500 344.000
35.09000 339.000
35.10500 348.000
35.12000 355.000
35.13500 356.000
35.15000 333.000
35.16500 359.000
35.18000 351.000
35.19500 350.000
35.21000 347.000
35.22500 327.000
35.24000 355.000
35.25500 336.000
35.27000 324.000
35.28500 322.000
35.30000 333.000
35.31500 333.000
35.33000 346.000
35.34500 337.000
35.36000 347.000
35.37500 344.000
35.39000 355.000
35.40500 328.000
35.42000 331.000
35.43500 333.000
35.45000 320.000
35.46500 326.000
35.48000 369.000
35.49500 362.000
35.51000 339.000
35.52500 345.000
35.54000 323.000
35.55500 339.000
35.57000 361.000
35.58500 334.000
35.60000 326.000
35.61500 317.000
35.63000 348.000
35.64500 357.000
35.66000 349.000
35.67500 352.000
35.69000 325.000
35.70500 328.000
35.72000 335.000
35.73500 349.000
35.75000 343.000
35.76500 344.000
35.78000 347.000
35.79500 347.000
35.81000 310.000
35.82500 328.000
35.84000 325.000
35.85500 333.000
35.87000 308.000
35.88500 301.000
35.90000 319.000
35.91500 307.000
35.93000 326.000
35.94500 323.000
35.96000 303.000
35.97500 310.000
35.99000 307.000
36.00500 330.000
36.02000 334.000
36.03500 335.000
36.05000 318.000
36.06500 301.000
36.08000 305.000
36.09500 306.000
36.11000 308.000
36.12500 300.000
36.14000 326.000
36.15500 308.000
36.17000 322.000
36.18500 316.000
36.20000 317.000
36.21500 306.000
36.23000 311.000
36.24500 305.000
36.26000 287.000
36.27500 314.000
36.29000 330.000
36.30500 315.000
36.32000 314.000
36.33500 287.000
36.35000 281.000
36.36500 303.000
36.38000 291.000
36.39500 303.000
36.41000 301.000
36.42500 294.000
36.44000 325.000
36.45500 316.000
36.47000 304.000
36.48500 316.000
36.50000 286.000
36.51500 329.000
36.53000 337.000
36.54500 325.000
36.56000 283.000
36.57500 294.000
36.59000 292.000
36.60500 261.000
36.62000 292.000
36.63500 303.000
36.65000 300.000
36.66500 307.000
36.68000 294.000
36.69500 314.000
36.71000 274.000
36.72500 296.000
36.74000 318.000
36.75500 311.000
36.77000 297.000
36.78500 287.000
36.80000 294.000
36.81500 293.000
36.83000 300.000
36.84500 301.000
36.86000 285.000
36.87500 279.000
36.89000 283.000
36.90500 294.000
36.92000 312.000
36.93500 298.000
36.95000 301.000
36.96500 319.000
36.98000 290.000
36.99500 321.000
37.01000 338.000
37.02500 313.000
37.04000 299.000
37.05500 288.000
37.07000 296.000
37.08500 322.000
37.10000 298.000
37.11500 296.000
37.13000 306.000
37.14500 311.000
37.16000 294.000
37.17500 277.000
37.19000 285.000
37.20500 274.000
37.22000 275.000
37.23500 270.000
37.25000 321.000
37.26500 291.000
37.28000 273.000
37.29500 304.000
37.31000 290.000
37.32500 301.000
37.34000 304.000
37.35500 301.000
37.37000 278.000
37.38500 325.000
37.40000 306.000
37.41500 295.000
37.43000 306.000
37.44500 293.000
37.46000 266.000
37.47500 300.000
37.49000 303.000
37.50500 295.000
37.52000 291.000
37.53500 328.000
37.55000 312.000
37.56500 315.000
37.58000 330.000
37.59500 335.000
37.61000 357.000
37.62500 333.000
37.64000 336.000
37.65500 351.000
37.67000 331.000
37.68500 305.000
37.70000 274.000
37.71500 321.000
37.73000 282.000
37.74500 302.000
37.76000 276.000
37.77500 270.000
37.79000 271.000
37.80500 295.000
37.82000 279.000
37.83500 270.000
37.85000 281.000
37.86500 285.000
37.88000 277.000
37.89500 284.000
37.91000 295.000
37.92500 266.000
37.94000 300.000
37.95500 306.000
37.97000 286.000
37.98500 277.000
38.00000 293.000
38.01500 287.000
38.03000 309.000
38.04500 322.000
38.06000 290.000
38.07500 281.000
38.09000 275.000
38.10500 306.000
38.12000 308.000
38.13500 324.000
38.15000 322.000
38.16500 298.000
38.18000 284.000
38.19500 286.000
38.21000 331.000
38.22500 300.000
38.24000 283.000
38.25500 318.000
38.27000 276.000
38.28500 280.000
38.30000 309.000
38.31500 277.000
38.33000 254.000
38.34500 318.000
38.36000 315.000
38.37500 268.000
38.39000 283.000
38.40500 283.000
38.42000 286.000
38.43500 299.000
38.45000 278.000
38.46500 267.000
38.48000 288.000
38.49500 294.000
38.51000 271.000
38.52500 286.000
38.54000 281.000
38.55500 275.000
38.57000 256.000
38.58500 290.000
38.60000 280.000
38.61500 283.000
38.63000 265.000
38.64500 287.000
38.66000 303.000
38.67500 271.000
38.69000 282.000
38.70500 308.000
38.72000 295.000
38.73500 279.000
38.75000 280.000
38.76500 277.000
38.78000 308.000
38.79500 286.000
38.81000 287.000
38.82500 310.000
38.84000 291.000
38.85500 273.000
38.87000 258.000
38.88500 281.000
38.90000 270.000
38.91500 276.000
38.93000 277.000
38.94500 279.000
38.96000 288.000
38.97500 269.000
38.99000 284.000
39.00500 284.000
39.02000 297.000
39.03500 302.000
39.05000 275.000
39.06500 291.000
39.08000 301.000
39.09500 308.000
39.11000 305.000
39.12500 283.000
39.14000 285.000
39.15500 298.000
39.17000 276.000
39.18500 308.000
39.20000 315.000
39.21500 273.000
39.23000 297.000
39.24500 300.000
39.26000 282.000
39.27500 278.000
39.29000 287.000
39.30500 287.000
39.32000 294.000
39.33500 291.000
39.35000 277.000
39.36500 305.000
39.38000 278.000
39.39500 257.000
39.41000 273.000
39.42500 282.000
39.44000 262.000
39.45500 274.000
39.47000 291.000
39.48500 292.000
39.50000 296.000
39.51500 283.000
39.53000 302.000
39.54500 292.000
39.56000 281.000
39.57500 284.000
39.59000 308.000
39.60500 311.000
39.62000 266.000
39.63500 275.000
39.65000 268.000
39.66500 276.000
39.68000 315.000
39.69500 297.000
39.71000 289.000
39.72500 285.000
39.74000 291.000
39.75500 328.000
39.77000 295.000
39.78500 287.000
39.80000 295.000
39.81500 280.000
39.83000 265.000
39.84500 297.000
39.86000 310.000
39.87500 310.000
39.89000 322.000
39.90500 316.000
39.92000 292.000
39.93500 288.000
39.95000 281.000
39.96500 305.000
39.98000 296.000
39.99500 282.000
40.01000 307.000
40.02500 299.000
40.04000 267.000
40.05500 294.000
40.07000 291.000
40.08500 307.000
40.10000 289.000
40.11500 279.000
40.13000 283.000
40.14500 275.000
40.16000 269.000
40.17500 290.000
40.19000 258.000
40.20500 273.000
40.22000 285.000
40.23500 276.000
40.25000 281.000
40.26500 291.000
40.28000 279.000
40.29500 305.000
40.31000 305.000
40.32500 288.000
40.34000 278.000
40.35500 318.000
40.37000 279.000
40.38500 308.000
40.40000 325.000
40.41500 314.000
40.43000 300.000
40.44500 311.000
40.46000 314.000
40.47500 319.000
40.49000 312.000
40.50500 325.000
40.52000 305.000
40.53500 297.000
40.55000 340.000
40.56500 279.000
40.58000 285.000
40.59500 295.000
40.61000 280.000
40.62500 296.000
40.64000 333.000
40.65500 312.000
40.67000 274.000
40.68500 278.000
40.70000 304.000
40.71500 274.000
40.73000 284.000
40.74500 280.000
40.76000 312.000
40.77500 293.000
40.79000 279.000
40.80500 283.000
40.82000 325.000
40.83500 329.000
40.85000 292.000
40.86500 282.000
40.88000 296.000
40.89500 328.000
40.91000 315.000
40.92500 277.000
40.94000 307.000
40.95500 342.000
40.97000 310.000
40.98500 305.000
41.00000 309.000
41.01500 350.000
41.03000 325.000
41.04500 300.000
41.06000 306.000
41.07500 320.000
41.09000 303.000
41.10500 305.000
41.12000 283.000
41.13500 322.000
41.15000 330.000
41.16500 329.000
41.18000 331.000
41.19500 328.000
41.21000 307.000
41.22500 313.000
41.24000 329.000
41.25500 325.000
41.27000 327.000
41.28500 306.000
41.30000 320.000
41.31500 309.000
41.33000 333.000
41.34500 314.000
41.36000 297.000
41.37500 298.000
41.39000 288.000
41.40500 272.000
41.42000 293.000
41.43500 316.000
41.45000 289.000
41.46500 292.000
41.48000 269.000
41.49500 252.000
41.51000 265.000
41.52500 271.000
41.54000 280.000
41.55500 273.000
41.57000 254.000
41.58500 282.000
41.60000 279.000
41.61500 272.000
41.63000 280.000
41.64500 274.000
41.66000 299.000
41.67500 276.000
41.69000 262.000
41.70500 245.000
41.72000 283.000
41.73500 308.000
41.75000 278.000
41.76500 282.000
41.78000 290.000
41.79500 289.000
41.81000 256.000
41.82500 258.000
41.84000 291.000
41.85500 301.000
41.87000 296.000
41.88500 282.000
41.90000 302.000
41.91500 297.000
41.93000 287.000
41.94500 276.000
41.96000 284.000
41.97500 292.000
41.99000 292.000
42.00500 300.000
42.02000 309.000
42.03500 298.000
42.05000 303.000
42.06500 316.000
42.08000 315.000
42.09500 280.000
42.11000 283.000
42.12500 289.000
42.14000 316.000
42.15500 307.000
42.17000 283.000
42.18500 314.000
42.20000 311.000
42.21500 293.000
42.23000 290.000
42.24500 306.000
42.26000 305.000
42.27500 291.000
42.29000 284.000
42.30500 279.000
42.32000 275.000
42.33500 287.000
42.35000 302.000
42.36500 281.000
42.38000 274.000
42.39500 293.000
42.41000 273.000
42.42500 283.000
42.44000 288.000
42.45500 297.000
42.47000 276.000
42.48500 264.000
42.50000 296.000
42.51500 273.000
42.53000 289.000
42.54500 270.000
42.56000 274.000
42.57500 277.000
42.59000 291.000
42.60500 280.000
42.62000 285.000
42.63500 272.000
42.65000 294.000
42.66500 291.000
42.68000 269.000
42.69500 271.000
42.71000 274.000
42.72500 299.000
42.74000 296.000
42.75500 265.000
42.77000 283.000
42.78500 274.000
42.80000 292.000
42.81500 302.000
42.83000 287.000
42.84500 292.000
42.86000 290.000
42.87500 281.000
42.89000 265.000
42.90500 290.000
42.92000 302.000
42.93500 279.000
42.95000 268.000
42.96500 246.000
42.98000 254.000
42.99500 296.000
43.01000 293.000
43.02500 301.000
43.04000 298.000
43.05500 296.000
43.07000 305.000
43.08500 315.000
43.10000 287.000
43.11500 294.000
43.13000 260.000
43.14500 283.000
43.16000 284.000
43.17500 268.000
43.19000 296.000
43.20500 294.000
43.22000 284.000
43.23500 295.000
43.25000 295.000
43.26500 293.000
43.28000 285.000
43.29500 286.000
43.31000 280.000
43.32500 283.000
43.34000 293.000
43.35500 300.000
43.37000 307.000
43.38500 301.000
43.40000 274.000
43.41500 303.000
43.43000 321.000
43.44500 294.000
43.46000 292.000
43.47500 282.000
43.49000 272.000
43.50500 269.000
43.52000 287.000
43.53500 286.000
43.55000 287.000
43.56500 266.000
43.58000 277.000
43.59500 278.000
43.61000 308.000
43.62500 300.000
43.64000 310.000
43.65500 315.000
43.67000 280.000
43.68500 275.000
43.70000 289.000
43.71500 277.000
43.73000 274.000
43.74500 278.000
43.76000 290.000
43.77500 312.000
43.79000 324.000
43.80500 287.000
43.82000 293.000
43.83500 300.000
43.85000 298.000
43.86500 264.000
43.88000 284.000
43.89500 309.000
43.91000 301.000
43.92500 288.000
43.94000 289.000
43.95500 280.000
43.97000 282.000
43.98500 279.000
44.00000 261.000
44.01500 286.000
44.03000 292.000
44.04500 293.000
44.06000 296.000
44.07500 303.000
44.09000 313.000
44.10500 307.000
44.12000 323.000
44.13500 304.000
44.15000 304.000
44.16500 312.000
44.18000 311.000
44.19500 318.000
44.21000 304.000
44.22500 310.000
44.24000 292.000
44.25500 278.000
44.27000 290.000
44.28500 307.000
44.30000 310.000
44.31500 285.000
44.33000 301.000
44.34500 323.000
44.36000 281.000
44.37500 282.000
44.39000 328.000
44.40500 325.000
44.42000 301.000
44.43500 314.000
44.45000 308.000
44.46500 322.000
44.48000 327.000
44.49500 299.000
44.51000 323.000
44.52500 300.000
44.54000 305.000
44.55500 308.000
44.57000 320.000
44.58500 332.000
44.60000 322.000
44.61500 290.000
44.63000 308.000
44.64500 309.000
44.66000 307.000
44.67500 294.000
44.69000 294.000
44.70500 288.000
44.72000 282.000
44.73500 277.000
44.75000 283.000
44.76500 303.000
44.78000 305.000
44.79500 308.000
44.81000 313.000
44.82500 311.000
44.84000 283.000
44.85500 275.000
44.87000 302.000
44.88500 294.000
44.90000 293.000
44.91500 293.000
44.93000 285.000
44.94500 295.000
44.96000 305.000
44.97500 322.000
44.99000 321.000
45.00500 302.000
45.02000 284.000
45.03500 273.000
45.05000 279.000
45.06500 295.000
45.08000 272.000
45.09500 289.000
45.11000 286.000
45.12500 284.000
45.14000 289.000
45.15500 279.000
45.17000 269.000
45.18500 263.000
45.20000 283.000
45.21500 308.000
45.23000 296.000
45.24500 296.000
45.26000 273.000
45.27500 274.000
45.29000 307.000
45.30500 283.000
45.32000 285.000
45.33500 263.000
45.35000 275.000
45.36500 282.000
45.38000 281.000
45.39500 306.000
45.41000 293.000
45.42500 283.000
45.44000 253.000
45.45500 272.000
45.47000 299.000
45.48500 278.000
45.50000 282.000
45.51500 263.000
45.53000 296.000
45.54500 311.000
45.56000 299.000
45.57500 259.000
45.59000 280.000
45.60500 256.000
45.62000 287.000
45.63500 284.000
45.65000 275.000
45.66500 267.000
45.68000 268.000
45.69500 305.000
45.71000 282.000
45.72500 264.000
45.74000 272.000
45.75500 254.000
45.77000 280.000
45.78500 273.000
45.80000 267.000
45.81500 283.000
45.83000 272.000
45.84500 285.000
45.86000 286.000
45.87500 280.000
45.89000 283.000
45.90500 265.000
45.92000 273.000
45.93500 272.000
45.95000 276.000
45.96500 278.000
45.98000 288.000
45.99500 266.000
46.01000 277.000
46.02500 301.000
46.04000 287.000
46.05500 288.000
46.07000 276.000
46.08500 305.000
46.10000 305.000
46.11500 311.000
46.13000 287.000
46.14500 301.000
46.16000 305.000
46.17500 296.000
46.19000 288.000
46.20500 284.000
46.22000 317.000
46.23500 331.000
46.25000 309.000
46.26500 296.000
46.28000 279.000
46.29500 286.000
46.31000 291.000
46.32500 263.000
46.34000 268.000
46.35500 283.000
46.37000 301.000
46.38500 290.000
46.40000 277.000
46.41500 295.000
46.43000 295.000
46.44500 296.000
46.46000 275.000
46.47500 260.000
46.49000 286.000
46.50500 271.000
46.52000 255.000
46.53500 286.000
46.55000 308.000
46.56500 264.000
46.58000 281.000
46.59500 278.000
46.61000 282.000
46.62500 279.000
46.64000 272.000
46.65500 291.000
46.67000 271.000
46.68500 247.000
46.70000 257.000
46.71500 285.000
46.73000 323.000
46.74500 309.000
46.76000 323.000
46.77500 281.000
46.79000 285.000
46.80500 289.000
46.82000 322.000
46.83500 285.000
46.85000 286.000
46.86500 293.000
46.88000 295.000
46.89500 282.000
46.91000 303.000
46.92500 289.000
46.94000 289.000
46.95500 271.000
46.97000 292.000
46.98500 310.000
47.00000 316.000
47.01500 290.000
47.03000 308.000
47.04500 306.000
47.06000 270.000
47.07500 260.000
47.09000 271.000
47.10500 264.000
47.12000 282.000
47.13500 280.000
47.15000 269.000
47.16500 255.000
47.18000 257.000
47.19500 261.000
47.21000 254.000
47.22500 263.000
47.24000 265.000
47.25500 253.000
47.27000 256.000
47.28500 263.000
47.30000 261.000
47.31500 286.000
47.33000 282.000
47.34500 270.000
47.36000 255.000
47.37500 253.000
47.39000 253.000
47.40500 261.000
47.42000 280.000
47.43500 265.000
47.45000 263.000
47.46500 242.000
47.48000 270.000
47.49500 268.000
47.51000 261.000
47.52500 290.000
47.54000 284.000
47.55500 279.000
47.57000 272.000
47.58500 276.000
47.60000 270.000
47.61500 249.000
47.63000 250.000
47.64500 272.000
47.66000 264.000
47.67500 278.000
47.69000 276.000
47.70500 272.000
47.72000 265.000
47.73500 240.000
47.75000 254.000
47.76500 253.000
47.78000 259.000
47.79500 252.000
47.81000 257.000
47.82500 257.000
47.84000 248.000
47.85500 267.000
47.87000 257.000
47.88500 251.000
47.90000 260.000
47.91500 253.000
47.93000 247.000
47.94500 237.000
47.96000 233.000
47.97500 242.000
47.99000 248.000
48.00500 242.000
48.02000 246.000
48.03500 257.000
48.05000 227.000
48.06500 241.000
48.08000 248.000
48.09500 246.000
48.11000 252.000
48.12500 258.000
48.14000 250.000
48.15500 277.000
48.17000 264.000
48.18500 246.000
48.20000 238.000
48.21500 238.000
48.23000 268.000
48.24500 250.000
48.26000 233.000
48.27500 216.000
48.29000 227.000
48.30500 254.000
48.32000 242.000
48.33500 245.000
48.35000 248.000
48.36500 229.000
48.38000 232.000
48.39500 252.000
48.41000 249.000
48.42500 255.000
48.44000 255.000
48.45500 244.000
48.47000 238.000
48.48500 228.000
48.50000 235.000
48.51500 239.000
48.53000 235.000
48.54500 245.000
48.56000 250.000
48.57500 243.000
48.59000 240.000
48.60500 227.000
48.62000 240.000
48.63500 241.000
48.65000 240.000
48.66500 233.000
48.68000 242.000
48.69500 243.000
48.71000 256.000
48.72500 237.000
48.74000 240.000
48.75500 258.000
48.77000 240.000
48.78500 236.000
48.80000 236.000
48.81500 253.000
48.83000 241.000
48.84500 219.000
48.86000 245.000
48.87500 265.000
48.89000 272.000
48.90500 258.000
48.92000 250.000
48.93500 248.000
48.95000 252.000
48.96500 244.000
48.98000 237.000
48.99500 269.000
49.01000 267.000
49.02500 243.000
49.04000 232.000
49.05500 244.000
49.07000 253.000
49.08500 274.000
49.10000 256.000
49.11500 242.000
49.13000 233.000
49.14500 243.000
49.16000 230.000
49.17500 248.000
49.19000 263.000
49.20500 270.000
49.22000 268.000
49.23500 247.000
49.25000 263.000
49.26500 262.000
49.28000 251.000
49.29500 239.000
49.31000 247.000
49.32500 257.000
49.34000 266.000
49.35500 240.000
49.37000 256.000
49.38500 246.000
49.40000 266.000
49.41500 251.000
49.43000 241.000
49.44500 278.000
49.46000 284.000
49.47500 266.000
49.49000 259.000
49.50500 279.000
49.52000 273.000
49.53500 249.000
49.55000 243.000
49.56500 252.000
49.58000 252.000
49.59500 270.000
49.61000 248.000
49.62500 245.000
49.64000 243.000
49.65500 253.000
49.67000 240.000
49.68500 254.000
49.70000 240.000
49.71500 240.000
49.73000 242.000
49.74500 228.000
49.76000 223.000
49.77500 251.000
49.79000 249.000
49.80500 229.000
49.82000 223.000
49.83500 225.000
49.85000 219.000
49.86500 231.000
49.88000 224.000
49.89500 242.000
49.91000 251.000
49.92500 242.000
49.94000 245.000
49.95500 236.000
49.97000 240.000
49.98500 252.000
50.00000 218.000
50.01500 238.000
50.03000 272.000
50.04500 251.000
50.06000 263.000
50.07500 248.000
50.09000 235.000
50.10500 241.000
50.12000 255.000
50.13500 248.000
50.15000 232.000
50.16500 237.000
50.18000 273.000
50.19500 256.000
50.21000 235.000
50.22500 241.000
50.24000 249.000
50.25500 236.000
50.27000 242.000
50.28500 253.000
50.30000 253.000
50.31500 235.000
50.33000 226.000
50.34500 243.000
50.36000 247.000
50.37500 254.000
50.39000 257.000
50.40500 244.000
50.42000 261.000
50.43500 258.000
50.45000 249.000
50.46500 229.000
50.48000 218.000
50.49500 228.000
50.51000 257.000
50.52500 244.000
50.54000 235.000
50.55500 240.000
50.57000 265.000
50.58500 246.000
50.60000 256.000
50.61500 245.000
50.63000 256.000
50.64500 234.000
50.66000 246.000
50.67500 215.000
50.69000 254.000
50.70500 241.000
50.72000 233.000
50.73500 246.000
50.75000 247.000
50.76500 252.000
50.78000 216.000
50.79500 249.000
50.81000 250.000
50.82500 251.000
50.84000 242.000
50.85500 234.000
50.87000 238.000
50.88500 231.000
50.90000 245.000
50.91500 230.000
50.93000 227.000
50.94500 228.000
50.96000 229.000
50.97500 251.000
50.99000 242.000
51.00500 230.000
51.02000 249.000
51.03500 249.000
51.05000 233.000
51.06500 234.000
51.08000 234.000
51.09500 241.000
51.11000 241.000
51.12500 242.000
51.14000 215.000
51.15500 235.000
51.17000 240.000
51.18500 234.000
51.20000 244.000
51.21500 240.000
51.23000 220.000
51.24500 260.000
51.26000 227.000
51.27500 247.000
51.29000 246.000
51.30500 246.000
51.32000 240.000
51.33500 227.000
51.35000 258.000
51.36500 244.000
51.38000 227.000
51.39500 222.000
51.41000 235.000
51.42500 257.000
51.44000 252.000
51.45500 231.000
51.47000 234.000
51.48500 238.000
51.50000 242.000
51.51500 249.000
51.53000 242.000
51.54500 228.000
51.56000 254.000
51.57500 242.000
51.59000 244.000
51.60500 244.000
51.62000 257.000
51.63500 231.000
51.65000 245.000
51.66500 233.000
51.68000 239.000
51.69500 249.000
51.71000 256.000
51.72500 251.000
51.74000 246.000
51.75500 225.000
51.77000 251.000
51.78500 246.000
51.80000 247.000
51.81500 265.000
51.83000 239.000
51.84500 231.000
51.86000 257.000
51.87500 269.000
51.89000 281.000
51.90500 259.000
51.92000 243.000
51.93500 254.000
51.95000 252.000
51.96500 253.000
51.98000 222.000
51.99500 262.000
52.01000 266.000
52.02500 260.000
52.04000 231.000
52.05500 260.000
52.07000 266.000
52.08500 273.000
52.10000 277.000
52.11500 249.000
52.13000 247.000
52.14500 244.000
52.16000 264.000
52.17500 274.000
52.19000 278.000
52.20500 257.000
52.22000 257.000
52.23500 243.000
52.25000 253.000
52.26500 255.000
52.28000 246.000
52.29500 266.000
52.31000 244.000
52.32500 268.000
52.34000 250.000
52.35500 230.000
52.37000 212.000
52.38500 253.000
52.40000 255.000
52.41500 239.000
52.43000 219.000
52.44500 226.000
52.46000 251.000
52.47500 251.000
52.49000 242.000
52.50500 254.000
52.52000 269.000
52.53500 232.000
52.55000 233.000
52.56500 221.000
52.58000 211.000
52.59500 238.000
52.61000 277.000
52.62500 243.000
52.64000 227.000
52.65500 240.000
52.67000 244.000
52.68500 257.000
52.70000 250.000
52.71500 228.000
52.73000 214.000
52.74500 223.000
52.76000 219.000
52.77500 240.000
52.79000 224.000
52.80500 236.000
52.82000 246.000
52.83500 246.000
52.85000 231.000
52.86500 222.000
52.88000 234.000
52.89500 236.000
52.91000 232.000
52.92500 238.000
52.94000 245.000
52.95500 237.000
52.97000 263.000
52.98500 259.000
53.00000 233.000
53.01500 249.000
53.03000 235.000
53.04500 226.000
53.06000 241.000
53.07500 240.000
53.09000 262.000
53.10500 259.000
53.12000 255.000
53.13500 225.000
53.15000 263.000
53.16500 250.000
53.18000 260.000
53.19500 267.000
53.21000 246.000
53.22500 255.000
53.24000 240.000
53.25500 261.000
53.27000 272.000
53.28500 252.000
53.30000 254.000
53.31500 268.000
53.33000 255.000
53.34500 224.000
53.36000 231.000
53.37500 254.000
53.39000 281.000
53.40500 240.000
53.42000 236.000
53.43500 259.000
53.45000 253.000
53.46500 244.000
53.48000 241.000
53.49500 257.000
53.51000 250.000
53.52500 241.000
53.54000 233.000
53.55500 230.000
53.57000 259.000
53.58500 268.000
53.60000 248.000
53.61500 244.000
53.63000 246.000
53.64500 234.000
53.66000 242.000
53.67500 239.000
53.69000 233.000
53.70500 255.000
53.72000 235.000
53.73500 260.000
53.75000 248.000
53.76500 266.000
53.78000 253.000
53.79500 258.000
53.81000 249.000
53.82500 240.000
53.84000 244.000
53.85500 242.000
53.87000 222.000
53.88500 229.000
53.90000 227.000
53.91500 234.000
53.93000 240.000
53.94500 250.000
53.96000 205.000
53.97500 226.000
53.99000 242.000
54.00500 237.000
54.02000 248.000
54.03500 237.000
54.05000 230.000
54.06500 246.000
54.08000 242.000
54.09500 214.000
54.11000 240.000
54.12500 245.000
54.14000 234.000
54.15500 222.000
54.17000 221.000
54.18500 218.000
54.20000 248.000
54.21500 251.000
54.23000 237.000
54.24500 202.000
54.26000 224.000
54.27500 237.000
54.29000 238.000
54.30500 225.000
54.32000 217.000
54.33500 247.000
54.35000 256.000
54.36500 236.000
54.38000 244.000
54.39500 236.000
54.41000 220.000
54.42500 233.000
54.44000 225.000
54.45500 226.000
54.47000 248.000
54.48500 243.000
54.50000 207.000
54.51500 251.000
54.53000 241.000
54.54500 261.000
54.56000 264.000
54.57500 245.000
54.59000 232.000
54.60500 218.000
54.62000 240.000
54.63500 239.000
54.65000 261.000
54.66500 269.000
54.68000 244.000
54.69500 233.000
54.71000 239.000
54.72500 248.000
54.74000 254.000
54.75500 255.000
54.77000 279.000
54.78500 269.000
54.80000 260.000
54.81500 257.000
54.83000 239.000
54.84500 252.000
54.86000 275.000
54.87500 263.000
54.89000 255.000
54.90500 281.000
54.92000 280.000
54.93500 262.000
54.95000 265.000
54.96500 268.000
54.98000 277.000
54.99500 244.000
55.01000 255.000
55.02500 266.000
55.04000 264.000
55.05500 250.000
55.07000 264.000
55.08500 263.000
55.10000 249.000
55.11500 242.000
55.13000 243.000
55.14500 258.000
55.16000 271.000
55.17500 249.000
55.19000 263.000
55.20500 260.000
55.22000 257.000
55.23500 243.000
55.25000 256.000
55.26500 269.000
55.28000 278.000
55.29500 264.000
55.31000 258.000
55.32500 279.000
55.34000 256.000
55.35500 242.000
55.37000 238.000
55.38500 241.000
55.40000 261.000
55.41500 238.000
55.43000 274.000
55.44500 240.000
55.46000 253.000
55.47500 224.000
55.49000 235.000
55.50500 256.000
55.52000 236.000
55.53500 233.000
55.55000 243.000
55.56500 241.000
55.58000 248.000
55.59500 249.000
55.61000 227.000
55.62500 223.000
55.64000 229.000
55.65500 230.000
55.67000 231.000
55.68500 216.000
55.70000 239.000
55.71500 238.000
55.73000 222.000
55.74500 225.000
55.76000 231.000
55.77500 241.000
55.79000 251.000
55.80500 240.000
55.82000 248.000
55.83500 244.000
55.85000 213.000
55.86500 224.000
55.88000 246.000
55.89500 247.000
55.91000 234.000
55.92500 240.000
55.94000 241.000
55.95500 229.000
55.97000 224.000
55.98500 235.000
56.00000 250.000
56.01500 261.000
56.03000 232.000
56.04500 249.000
56.06000 240.000
56.07500 238.000
56.09000 240.000
56.10500 250.000
56.12000 237.000
56.13500 254.000
56.15000 256.000
56.16500 236.000
56.18000 274.000
56.19500 289.000
56.21000 254.000
56.22500 238.000
56.24000 229.000
56.25500 244.000
56.27000 242.000
56.28500 258.000
56.30000 241.000
56.31500 242.000
56.33000 244.000
56.34500 250.000
56.36000 249.000
56.37500 254.000
56.39000 240.000
56.40500 250.000
56.42000 225.000
56.43500 222.000
56.45000 233.000
56.46500 229.000
56.48000 239.000
56.49500 220.000
56.51000 244.000
56.52500 247.000
56.54000 247.000
56.55500 245.000
56.57000 256.000
56.58500 249.000
56.60000 244.000
56.61500 259.000
56.63000 248.000
56.64500 233.000
56.66000 259.000
56.67500 242.000
56.69000 283.000
56.70500 256.000
56.72000 253.000
56.73500 248.000
56.75000 266.000
56.76500 263.000
56.78000 257.000
56.79500 247.000
56.81000 250.000
56.82500 250.000
56.84000 235.000
56.85500 240.000
56.87000 241.000
56.88500 243.000
56.90000 259.000
56.91500 256.000
56.93000 261.000
56.94500 243.000
56.96000 256.000
56.97500 256.000
56.99000 262.000
57.00500 251.000
57.02000 226.000
57.03500 224.000
57.05000 241.000
57.06500 249.000
57.08000 282.000
57.09500 250.000
57.11000 256.000
57.12500 251.000
57.14000 227.000
57.15500 244.000
57.17000 254.000
57.18500 239.000
57.20000 231.000
57.21500 237.000
57.23000 260.000
57.24500 246.000
57.26000 243.000
57.27500 245.000
57.29000 230.000
57.30500 253.000
57.32000 272.000
57.33500 260.000
57.35000 242.000
57.36500 251.000
57.38000 251.000
57.39500 241.000
57.41000 239.000
57.42500 235.000
57.44000 244.000
57.45500 241.000
57.47000 220.000
57.48500 241.000
57.50000 260.000
57.51500 235.000
57.53000 235.000
57.54500 244.000
57.56000 252.000
57.57500 241.000
57.59000 237.000
57.60500 226.000
57.62000 232.000
57.63500 234.000
57.65000 231.000
57.66500 230.000
57.68000 227.000
57.69500 229.000
57.71000 225.000
57.72500 234.000
57.74000 232.000
57.75500 222.000
57.77000 236.000
57.78500 240.000
57.80000 212.000
57.81500 214.000
57.83000 237.000
57.84500 229.000
57.86000 205.000
57.87500 214.000
57.89000 221.000
57.90500 223.000
57.92000 212.000
57.93500 216.000
57.95000 221.000
57.96500 213.000
57.98000 225.000
57.99500 206.000
58.01000 223.000
58.02500 244.000
58.04000 222.000
58.05500 214.000
58.07000 216.000
58.08500 202.000
58.10000 221.000
58.11500 223.000
58.13000 230.000
58.14500 222.000
58.16000 217.000
58.17500 220.000
58.19000 222.000
58.20500 204.000
58.22000 230.000
58.23500 221.000
58.25000 220.000
58.26500 225.000
58.28000 211.000
58.29500 222.000
58.31000 233.000
58.32500 207.000
58.34000 227.000
58.35500 208.000
58.37000 194.000
58.38500 204.000
58.40000 200.000
58.41500 223.000
58.43000 211.000
58.44500 199.000
58.46000 195.000
58.47500 193.000
58.49000 216.000
58.50500 190.000
58.52000 201.000
58.53500 210.000
58.55000 204.000
58.56500 221.000
58.58000 208.000
58.59500 212.000
58.61000 184.000
58.62500 203.000
58.64000 201.000
58.65500 206.000
58.67000 225.000
58.68500 209.000
58.70000 218.000
58.71500 204.000
58.73000 206.000
58.74500 210.000
58.76000 215.000
58.77500 211.000
58.79000 192.000
58.80500 206.000
58.82000 219.000
58.83500 202.000
58.85000 196.000
58.86500 202.000
58.88000 211.000
58.89500 210.000
58.91000 216.000
58.92500 220.000
58.94000 204.000
58.95500 222.000
58.97000 224.000
58.98500 223.000
59.00000 192.000
59.01500 219.000
59.03000 221.000
59.04500 219.000
59.06000 217.000
59.07500 212.000
59.09000 200.000
59.10500 214.000
59.12000 198.000
59.13500 197.000
59.15000 219.000
59.16500 204.000
59.18000 190.000
59.19500 201.000
59.21000 214.000
59.22500 224.000
59.24000 217.000
59.25500 182.000
59.27000 198.000
59.28500 193.000
59.30000 202.000
59.31500 233.000
59.33000 204.000
59.34500 200.000
59.36000 194.000
59.37500 198.000
59.39000 218.000
59.40500 193.000
59.42000 190.000
59.43500 178.000
59.45000 191.000
59.46500 204.000
59.48000 210.000
59.49500 209.000
59.51000 200.000
59.52500 224.000
59.54000 186.000
59.55500 191.000
59.57000 205.000
59.58500 209.000
59.60000 206.000
59.61500 200.000
59.63000 205.000
59.64500 199.000
59.66000 186.000
59.67500 189.000
59.69000 189.000
59.70500 195.000
59.72000 208.000
59.73500 207.000
59.75000 205.000
59.76500 208.000
59.78000 214.000
59.79500 216.000
59.81000 201.000
59.82500 191.000
59.84000 199.000
59.85500 204.000
59.87000 186.000
59.88500 198.000
59.90000 207.000
59.91500 197.000
59.93000 198.000
59.94500 199.000
59.96000 208.000
59.97500 220.000
59.99000 207.000
60.00500 205.000
60.02000 207.000
60.03500 187.000
60.05000 190.000
60.06500 185.000
60.08000 192.000
60.09500 202.000
60.11000 188.000
60.12500 175.000
60.14000 188.000
60.15500 197.000
60.17000 191.000
60.18500 204.000
60.20000 202.000
60.21500 192.000
60.23000 191.000
60.24500 205.000
60.26000 207.000
60.27500 198.000
60.29000 205.000
60.30500 207.000
60.32000 211.000
60.33500 186.000
60.35000 192.000
60.36500 212.000
60.38000 198.000
60.39500 208.000
60.41000 218.000
60.42500 216.000
60.44000 206.000
60.45500 204.000
60.47000 210.000
60.48500 192.000
60.50000 209.000
60.51500 186.000
60.53000 196.000
60.54500 197.000
60.56000 190.000
60.57500 206.000
60.59000 200.000
60.60500 202.000
60.62000 196.000
60.63500 193.000
60.65000 195.000
60.66500 191.000
60.68000 191.000
60.69500 222.000
60.71000 203.000
60.72500 196.000
60.74000 187.000
60.75500 194.000
60.77000 211.000
60.78500 203.000
60.80000 199.000
60.81500 186.000
60.83000 192.000
60.84500 181.000
60.86000 195.000
60.87500 189.000
60.89000 195.000
60.90500 172.000
60.92000 186.000
60.93500 190.000
60.95000 186.000
60.96500 182.000
60.98000 187.000
60.99500 206.000
61.01000 189.000
61.02500 175.000
61.04000 180.000
61.05500 182.000
61.07000 211.000
61.08500 200.000
61.10000 209.000
61.11500 197.000
61.13000 188.000
61.14500 177.000
61.16000 193.000
61.17500 176.000
61.19000 182.000
61.20500 189.000
61.22000 186.000
61.23500 198.000
61.25000 204.000
61.26500 188.000
61.28000 173.000
61.29500 188.000
61.31000 184.000
61.32500 189.000
61.34000 175.000
61.35500 210.000
61.37000 196.000
61.38500 191.000
61.40000 187.000
61.41500 198.000
61.43000 196.000
61.44500 178.000
61.46000 171.000
61.47500 183.000
61.49000 199.000
61.50500 201.000
61.52000 183.000
61.53500 185.000
61.55000 192.000
61.56500 179.000
61.58000 192.000
61.59500 197.000
61.61000 185.000
61.62500 183.000
61.64000 191.000
61.65500 193.000
61.67000 182.000
61.68500 210.000
61.70000 191.000
61.71500 207.000
61.73000 187.000
61.74500 183.000
61.76000 196.000
61.77500 198.000
61.79000 194.000
61.80500 181.000
61.82000 174.000
61.83500 174.000
61.85000 186.000
61.86500 162.000
61.88000 171.000
61.89500 173.000
61.91000 182.000
61.92500 190.000
61.94000 185.000
61.95500 194.000
61.97000 181.000
61.98500 188.000
