2.00000 4.000
2.01500 6.000
2.03000 3.000
2.04500 5.000
2.06000 4.000
2.07500 5.000
2.09000 4.000
2.10500 3.000
2.12000 5.000
2.13500 6.000
2.15000 8.000
2.16500 6.000
2.18000 4.000
2.19500 5.000
2.21000 6.000
2.22500 4.000
2.24000 7.000
2.25500 7.000
2.27000 5.000
2.28500 7.000
2.30000 4.000
2.31500 2.000
2.33000 6.000
2.34500 9.000
2.36000 4.000
2.37500 5.000
2.39000 5.000
2.40500 4.000
2.42000 3.000
2.43500 5.000
2.45000 3.000
2.46500 6.000
2.48000 5.000
2.49500 3.000
2.51000 3.000
2.52500 2.000
2.54000 4.000
2.55500 4.000
2.57000 3.000
2.58500 3.000
2.60000 0.000
2.61500 3.000
2.63000 4.000
2.64500 3.000
2.66000 3.000
2.67500 4.000
2.69000 4.000
2.70500 4.000
2.72000 4.000
2.73500 5.000
2.75000 3.000
2.76500 3.000
2.78000 4.000
2.79500 4.000
2.81000 4.000
2.82500 4.000
2.84000 3.000
2.85500 3.000
2.87000 3.000
2.88500 7.000
2.90000 3.000
2.91500 4.000
2.93000 5.000
2.94500 5.000
2.96000 6.000
2.97500 5.000
2.99000 2.000
3.00500 2.000
3.02000 3.000
3.03500 2.000
3.05000 5.000
3.06500 3.000
3.08000 4.000
3.09500 8.000
3.11000 13.000
3.12500 16.000
3.14000 22.000
3.15500 23.000
3.17000 26.000
3.18500 35.000
3.20000 49.000
3.21500 49.000
3.23000 42.000
3.24500 48.000
3.26000 79.000
3.27500 118.000
3.29000 129.000
3.30500 162.000
3.32000 194.000
3.33500 241.000
3.35000 257.000
3.36500 270.000
3.38000 302.000
3.39500 289.000
3.41000 289.000
3.42500 295.000
3.44000 295.000
3.45500 297.000
3.47000 291.000
3.48500 276.000
3.50000 280.000
3.51500 275.000
3.53000 287.000
3.54500 284.000
3.56000 277.000
3.57500 293.000
3.59000 282.000
3.60500 282.000
3.62000 282.000
3.63500 294.000
3.65000 279.000
3.66500 268.000
3.68000 283.000
3.69500 286.000
3.71000 292.000
3.72500 306.000
3.74000 304.000
3.75500 276.000
3.77000 271.000
3.78500 284.000
3.80000 306.000
3.81500 288.000
3.83000 273.000
3.84500 265.000
3.86000 285.000
3.87500 283.000
3.89000 286.000
3.90500 263.000
3.92000 279.000
3.93500 285.000
3.95000 282.000
3.96500 294.000
3.98000 298.000
3.99500 318.000
4.01000 290.000
4.02500 278.000
4.04000 273.000
4.05500 304.000
4.07000 304.000
4.08500 296.000
4.10000 283.000
4.11500 309.000
4.13000 279.000
4.14500 292.000
4.16000 282.000
4.17500 290.000
4.19000 300.000
4.20500 285.000
4.22000 305.000
4.23500 279.000
4.25000 305.000
4.26500 285.000
4.28000 278.000
4.29500 271.000
4.31000 303.000
4.32500 294.000
4.34000 302.000
4.35500 288.000
4.37000 301.000
4.38500 303.000
4.40000 293.000
4.41500 312.000
4.43000 291.000
4.44500 276.000
4.46000 282.000
4.47500 309.000
4.49000 335.000
4.50500 306.000
4.52000 299.000
4.53500 293.000
4.55000 274.000
4.56500 304.000
4.58000 297.000
4.59500 294.000
4.61000 277.000
4.62500 267.000
4.64000 289.000
4.65500 285.000
4.67000 296.000
4.68500 300.000
4.70000 287.000
4.71500 293.000
4.73000 294.000
4.74500 294.000
4.76000 308.000
4.77500 284.000
4.79000 306.000
4.80500 325.000
4.82000 312.000
4.83500 319.000
4.85000 320.000
4.86500 302.000
4.88000 300.000
4.89500 285.000
4.91000 292.000
4.92500 317.000
4.94000 318.000
4.95500 303.000
4.97000 296.000
4.98500 330.000
5.00000 316.000
5.01500 310.000
5.03000 286.000
5.04500 299.000
5.06000 302.000
5.07500 311.000
5.09000 298.000
5.10500 291.000
5.12000 287.000
5.13500 308.000
5.15000 328.000
5.16500 314.000
5.18000 336.000
5.19500 314.000
5.21000 294.000
5.22500 305.000
5.24000 329.000
5.25500 322.000
5.27000 323.000
5.28500 332.000
5.30000 303.000
5.31500 304.000
5.33000 291.000
5.34500 309.000
5.36000 317.000
5.37500 323.000
5.39000 311.000
5.40500 299.000
5.42000 297.000
5.43500 296.000
5.45000 339.000
5.46500 325.000
5.48000 327.000
5.49500 324.000
5.51000 318.000
5.52500 338.000
5.54000 323.000
5.55500 296.000
5.57000 311.000
5.58500 331.000
5.60000 328.000
5.61500 315.000
5.63000 311.000
5.64500 324.000
5.66000 308.000
5.67500 316.000
5.69000 311.000
5.70500 340.000
5.72000 320.000
5.73500 306.000
5.75000 305.000
5.76500 323.000
5.78000 336.000
5.79500 312.000
5.81000 335.000
5.82500 345.000
5.84000 332.000
5.85500 321.000
5.87000 346.000
5.88500 328.000
5.90000 323.000
5.91500 295.000
5.93000 308.000
5.94500 318.000
5.96000 285.000
5.97500 306.000
5.99000 336.000
6.00500 295.000
6.02000 297.000
6.03500 308.000
6.05000 331.000
6.06500 300.000
6.08000 315.000
6.09500 333.000
6.11000 312.000
6.12500 313.000
6.14000 304.000
6.15500 305.000
6.17000 338.000
6.18500 332.000
6.20000 315.000
6.21500 322.000
6.23000 322.000
6.24500 284.000
6.26000 318.000
6.27500 327.000
6.29000 352.000
6.30500 347.000
6.32000 334.000
6.33500 317.000
6.35000 373.000
6.36500 314.000
6.38000 308.000
6.39500 317.000
6.41000 344.000
6.42500 340.000
6.44000 333.000
6.45500 325.000
6.47000 329.000
6.48500 317.000
6.50000 340.000
6.51500 326.000
6.53000 328.000
6.54500 327.000
6.56000 355.000
6.57500 313.000
6.59000 353.000
6.60500 310.000
6.62000 328.000
6.63500 316.000
6.65000 318.000
6.66500 330.000
6.68000 331.000
6.69500 317.000
6.71000 332.000
6.72500 336.000
6.74000 303.000
6.75500 297.000
6.77000 311.000
6.78500 331.000
6.80000 348.000
6.81500 371.000
6.83000 323.000
6.84500 348.000
6.86000 354.000
6.87500 343.000
6.89000 346.000
6.90500 354.000
6.92000 342.000
6.93500 364.000
6.95000 321.000
6.96500 307.000
6.98000 330.000
6.99500 343.000
7.01000 336.000
7.02500 336.000
7.04000 346.000
7.05500 349.000
7.07000 340.000
7.08500 345.000
7.10000 334.000
7.11500 316.000
7.13000 330.000
7.14500 311.000
7.16000 334.000
7.17500 337.000
7.19000 336.000
7.20500 342.000
7.22000 352.000
7.23500 364.000
7.25000 350.000
7.26500 350.000
7.28000 356.000
7.29500 351.000
7.31000 340.000
7.32500 351.000
7.34000 351.000
7.35500 348.000
7.37000 339.000
7.38500 343.000
7.40000 339.000
7.41500 340.000
7.43000 359.000
7.44500 346.000
7.46000 344.000
7.47500 363.000
7.49000 352.000
7.50500 357.000
7.52000 322.000
7.53500 360.000
7.55000 348.000
7.56500 339.000
7.58000 340.000
7.59500 364.000
7.61000 348.000
7.62500 303.000
7.64000 327.000
7.65500 375.000
7.67000 360.000
7.68500 344.000
7.70000 333.000
7.71500 361.000
7.73000 341.000
7.74500 342.000
7.76000 337.000
7.77500 347.000
7.79000 343.000
7.80500 335.000
7.82000 360.000
7.83500 357.000
7.85000 377.000
7.86500 368.000
7.88000 331.000
7.89500 336.000
7.91000 338.000
7.92500 363.000
7.94000 359.000
7.95500 362.000
7.97000 359.000
7.98500 375.000
8.00000 383.000
8.01500 374.000
8.03000 352.000
8.04500 366.000
8.06000 378.000
8.07500 366.000
8.09000 345.000
8.10500 367.000
8.12000 363.000
8.13500 348.000
8.15000 380.000
8.16500 363.000
8.18000 363.000
8.19500 367.000
8.21000 364.000
8.22500 369.000
8.24000 336.000
8.25500 365.000
8.27000 336.000
8.28500 340.000
8.30000 358.000
8.31500 374.000
8.33000 361.000
8.34500 369.000
8.36000 367.000
8.37500 361.000
8.39000 368.000
8.40500 343.000
8.42000 355.000
8.43500 370.000
8.45000 371.000
8.46500 359.000
8.48000 359.000
8.49500 367.000
8.51000 332.000
8.52500 334.000
8.54000 339.000
8.55500 325.000
8.57000 341.000
8.58500 380.000
8.60000 392.000
8.61500 373.000
8.63000 360.000
8.64500 355.000
8.66000 374.000
8.67500 358.000
8.69000 349.000
8.70500 367.000
8.72000 373.000
8.73500 351.000
8.75000 351.000
8.76500 358.000
8.78000 353.000
8.79500 381.000
8.81000 396.000
8.82500 368.000
8.84000 378.000
8.85500 349.000
8.87000 362.000
8.88500 365.000
8.90000 385.000
8.91500 360.000
8.93000 345.000
8.94500 364.000
8.96000 383.000
8.97500 377.000
8.99000 387.000
9.00500 384.000
9.02000 375.000
9.03500 374.000
9.05000 362.000
9.06500 380.000
9.08000 377.000
9.09500 347.000
9.11000 362.000
9.12500 369.000
9.14000 376.000
9.15500 367.000
9.17000 355.000
9.18500 381.000
9.20000 374.000
9.21500 355.000
9.23000 347.000
9.24500 359.000
9.26000 361.000
9.27500 373.000
9.29000 343.000
9.30500 364.000
9.32000 386.000
9.33500 370.000
9.35000 336.000
9.36500 329.000
9.38000 347.000
9.39500 356.000
9.41000 367.000
9.42500 361.000
9.44000 392.000
9.45500 357.000
9.47000 392.000
9.48500 356.000
9.50000 368.000
9.51500 365.000
9.53000 359.000
9.54500 375.000
9.56000 356.000
9.57500 375.000
9.59000 393.000
9.60500 364.000
9.62000 365.000
9.63500 383.000
9.65000 383.000
9.66500 381.000
9.68000 392.000
9.69500 398.000
9.71000 394.000
9.72500 377.000
9.74000 375.000
9.75500 382.000
9.77000 373.000
9.78500 374.000
9.80000 369.000
9.81500 370.000
9.83000 374.000
9.84500 367.000
9.86000 386.000
9.87500 387.000
9.89000 369.000
9.90500 408.000
9.92000 388.000
9.93500 406.000
9.95000 387.000
9.96500 402.000
9.98000 366.000
9.99500 375.000
10.01000 387.000
10.02500 401.000
10.04000 396.000
10.05500 376.000
10.07000 400.000
10.08500 420.000
10.10000 379.000
10.11500 369.000
10.13000 391.000
10.14500 386.000
10.16000 381.000
10.17500 397.000
10.19000 389.000
10.20500 349.000
10.22000 369.000
10.23500 379.000
10.25000 370.000
10.26500 371.000
10.28000 378.000
10.29500 405.000
10.31000 402.000
10.32500 385.000
10.34000 412.000
10.35500 375.000
10.37000 389.000
10.38500 397.000
10.40000 374.000
10.41500 382.000
10.43000 420.000
10.44500 389.000
10.46000 406.000
10.47500 370.000
10.49000 386.000
10.50500 394.000
10.52000 381.000
10.53500 380.000
10.55000 369.000
10.56500 399.000
10.58000 394.000
10.59500 393.000
10.61000 418.000
10.62500 399.000
10.64000 383.000
10.65500 403.000
10.67000 386.000
10.68500 388.000
10.70000 392.000
10.71500 400.000
10.73000 383.000
10.74500 352.000
10.76000 373.000
10.77500 381.000
10.79000 401.000
10.80500 419.000
10.82000 408.000
10.83500 390.000
10.85000 376.000
10.86500 373.000
10.88000 350.000
10.89500 396.000
10.91000 373.000
10.92500 414.000
10.94000 422.000
10.95500 413.000
10.97000 382.000
10.98500 389.000
11.00000 410.000
11.01500 409.000
11.03000 385.000
11.04500 390.000
11.06000 389.000
11.07500 417.000
11.09000 416.000
11.10500 425.000
11.12000 414.000
11.13500 438.000
11.15000 441.000
11.16500 430.000
11.18000 402.000
11.19500 394.000
11.21000 418.000
11.22500 406.000
11.24000 417.000
11.25500 394.000
11.27000 396.000
11.28500 440.000
11.30000 422.000
11.31500 413.000
11.33000 411.000
11.34500 380.000
11.36000 420.000
11.37500 398.000
11.39000 404.000
11.40500 407.000
11.42000 429.000
11.43500 401.000
11.45000 425.000
11.46500 431.000
11.48000 417.000
11.49500 446.000
11.51000 432.000
11.52500 425.000
11.54000 449.000
11.55500 419.000
11.57000 418.000
11.58500 418.000
11.60000 456.000
11.61500 435.000
11.63000 398.000
11.64500 406.000
11.66000 421.000
11.67500 425.000
11.69000 417.000
11.70500 415.000
11.72000 419.000
11.73500 393.000
11.75000 443.000
11.76500 411.000
11.78000 429.000
11.79500 440.000
11.81000 431.000
11.82500 437.000
11.84000 450.000
11.85500 410.000
11.87000 424.000
11.88500 444.000
11.90000 463.000
11.91500 462.000
11.93000 456.000
11.94500 451.000
11.96000 459.000
11.97500 497.000
11.99000 472.000
12.00500 496.000
12.02000 510.000
12.03500 556.000
12.05000 520.000
12.06500 568.000
12.08000 569.000
12.09500 573.000
12.11000 603.000
12.12500 675.000
12.14000 686.000
12.15500 731.000
12.17000 747.000
12.18500 798.000
12.20000 861.000
12.21500 980.000
12.23000 1139.000
12.24500 1314.000
12.26000 1518.000
12.27500 1757.000
12.29000 1760.000
12.30500 1622.000
12.32000 1175.000
12.33500 810.000
12.35000 704.000
12.36500 649.000
12.38000 644.000
12.39500 674.000
12.41000 666.000
12.42500 718.000
12.44000 771.000
12.45500 822.000
12.47000 858.000
12.48500 946.000
12.50000 977.000
12.51500 970.000
12.53000 1053.000
12.54500 1105.000
12.56000 1069.000
12.57500 1011.000
12.59000 957.000
12.60500 834.000
12.62000 763.000
12.63500 688.000
12.65000 685.000
12.66500 615.000
12.68000 584.000
12.69500 523.000
12.71000 520.000
12.72500 515.000
12.74000 515.000
12.75500 490.000
12.77000 454.000
12.78500 461.000
12.80000 484.000
12.81500 496.000
12.83000 491.000
12.84500 470.000
12.86000 467.000
12.87500 460.000
12.89000 480.000
12.90500 480.000
12.92000 473.000
12.93500 465.000
12.95000 505.000
12.96500 494.000
12.98000 496.000
12.99500 460.000
13.01000 485.000
13.02500 491.000
13.04000 500.000
13.05500 495.000
13.07000 495.000
13.08500 479.000
13.10000 475.000
13.11500 446.000
13.13000 486.000
13.14500 524.000
13.16000 524.000
13.17500 526.000
13.19000 498.000
13.20500 485.000
13.22000 529.000
13.23500 492.000
13.25000 496.000
13.26500 513.000
13.28000 522.000
13.29500 508.000
13.31000 536.000
13.32500 539.000
13.34000 567.000
13.35500 586.000
13.37000 603.000
13.38500 672.000
13.40000 663.000
13.41500 670.000
13.43000 731.000
13.44500 769.000
13.46000 819.000
13.47500 773.000
13.49000 683.000
13.50500 640.000
13.52000 620.000
13.53500 639.000
13.55000 623.000
13.56500 673.000
13.58000 678.000
13.59500 731.000
13.61000 796.000
13.62500 846.000
13.64000 865.000
13.65500 977.000
13.67000 1076.000
13.68500 1130.000
13.70000 1214.000
13.71500 1301.000
13.73000 1352.000
13.74500 1367.000
13.76000 1401.000
13.77500 1344.000
13.79000 1220.000
13.80500 1102.000
13.82000 1027.000
13.83500 900.000
13.85000 778.000
13.86500 671.000
13.88000 637.000
13.89500 550.000
13.91000 558.000
13.92500 543.000
13.94000 481.000
13.95500 496.000
13.97000 492.000
13.98500 517.000
14.00000 506.000
14.01500 491.000
14.03000 477.000
14.04500 476.000
14.06000 472.000
14.07500 467.000
14.09000 481.000
14.10500 487.000
14.12000 457.000
14.13500 489.000
14.15000 518.000
14.16500 517.000
14.18000 477.000
14.19500 498.000
14.21000 485.000
14.22500 458.000
14.24000 477.000
14.25500 469.000
14.27000 442.000
14.28500 463.000
14.30000 434.000
14.31500 447.000
14.33000 462.000
14.34500 469.000
14.36000 473.000
14.37500 465.000
14.39000 482.000
14.40500 481.000
14.42000 483.000
14.43500 479.000
14.45000 468.000
14.46500 443.000
14.48000 471.000
14.49500 494.000
14.51000 485.000
14.52500 460.000
14.54000 456.000
14.55500 478.000
14.57000 452.000
14.58500 477.000
14.60000 482.000
14.61500 489.000
14.63000 465.000
14.64500 484.000
14.66000 469.000
14.67500 451.000
14.69000 429.000
14.70500 450.000
14.72000 450.000
14.73500 431.000
14.75000 451.000
14.76500 475.000
14.78000 475.000
14.79500 475.000
14.81000 433.000
14.82500 433.000
14.84000 434.000
14.85500 466.000
14.87000 452.000
14.88500 499.000
14.90000 514.000
14.91500 471.000
14.93000 472.000
14.94500 458.000
14.96000 439.000
14.97500 467.000
14.99000 501.000
15.00500 485.000
15.02000 465.000
15.03500 474.000
15.05000 475.000
15.06500 473.000
15.08000 471.000
15.09500 496.000
15.11000 512.000
15.12500 505.000
15.14000 467.000
15.15500 480.000
15.17000 464.000
15.18500 480.000
15.20000 484.000
15.21500 479.000
15.23000 446.000
15.24500 482.000
15.26000 477.000
15.27500 479.000
15.29000 486.000
15.30500 466.000
15.32000 489.000
15.33500 497.000
15.35000 461.000
15.36500 467.000
15.38000 464.000
15.39500 477.000
15.41000 470.000
15.42500 505.000
15.44000 491.000
15.45500 475.000
15.47000 497.000
15.48500 473.000
15.50000 486.000
15.51500 514.000
15.53000 476.000
15.54500 503.000
15.56000 508.000
15.57500 460.000
15.59000 489.000
15.60500 508.000
15.62000 479.000
15.63500 496.000
15.65000 477.000
15.66500 479.000
15.68000 479.000
15.69500 493.000
15.71000 528.000
15.72500 518.000
15.74000 479.000
15.75500 493.000
15.77000 501.000
15.78500 482.000
15.80000 473.000
15.81500 472.000
15.83000 474.000
15.84500 475.000
15.86000 475.000
15.87500 470.000
15.89000 476.000
15.90500 478.000
15.92000 466.000
15.93500 492.000
15.95000 483.000
15.96500 490.000
15.98000 466.000
15.99500 479.000
16.01000 498.000
16.02500 503.000
16.04000 480.000
16.05500 449.000
16.07000 498.000
16.08500 508.000
16.10000 506.000
16.11500 512.000
16.13000 497.000
16.14500 499.000
16.16000 498.000
16.17500 491.000
16.19000 487.000
16.20500 484.000
16.22000 506.000
16.23500 511.000
16.25000 489.000
16.26500 496.000
16.28000 505.000
16.29500 516.000
16.31000 507.000
16.32500 507.000
16.34000 498.000
16.35500 522.000
16.37000 518.000
16.38500 538.000
16.40000 541.000
16.41500 556.000
16.43000 604.000
16.44500 592.000
16.46000 551.000
16.47500 578.000
16.49000 570.000
16.50500 581.000
16.52000 538.000
16.53500 522.000
16.55000 508.000
16.56500 550.000
16.58000 536.000
16.59500 542.000
16.61000 554.000
16.62500 565.000
16.64000 577.000
16.65500 597.000
16.67000 615.000
16.68500 601.000
16.70000 622.000
16.71500 639.000
16.73000 602.000
16.74500 617.000
16.76000 665.000
16.77500 592.000
16.79000 587.000
16.80500 583.000
16.82000 601.000
16.83500 562.000
16.85000 575.000
16.86500 589.000
16.88000 528.000
16.89500 517.000
16.91000 558.000
16.92500 579.000
16.94000 561.000
16.95500 605.000
16.97000 571.000
16.98500 525.000
17.00000 498.000
17.01500 487.000
17.03000 519.000
17.04500 497.000
17.06000 515.000
17.07500 497.000
17.09000 550.000
17.10500 540.000
17.12000 532.000
17.13500 551.000
17.15000 520.000
17.16500 542.000
17.18000 533.000
17.19500 541.000
17.21000 540.000
17.22500 530.000
17.24000 528.000
17.25500 511.000
17.27000 496.000
17.28500 487.000
17.30000 520.000
17.31500 519.000
17.33000 514.000
17.34500 532.000
17.36000 520.000
17.37500 528.000
17.39000 514.000
17.40500 519.000
17.42000 518.000
17.43500 527.000
17.45000 547.000
17.46500 539.000
17.48000 523.000
17.49500 541.000
17.51000 540.000
17.52500 560.000
17.54000 563.000
17.55500 552.000
17.57000 546.000
17.58500 551.000
17.60000 561.000
17.61500 542.000
17.63000 528.000
17.64500 543.000
17.66000 546.000
17.67500 549.000
17.69000 549.000
17.70500 550.000
17.72000 557.000
17.73500 571.000
17.75000 532.000
17.76500 558.000
17.78000 520.000
17.79500 538.000
17.81000 536.000
17.82500 498.000
17.84000 531.000
17.85500 546.000
17.87000 579.000
17.88500 564.000
17.90000 547.000
17.91500 543.000
17.93000 574.000
17.94500 544.000
17.96000 550.000
17.97500 566.000
17.99000 582.000
18.00500 572.000
18.02000 589.000
18.03500 602.000
18.05000 601.000
18.06500 607.000
18.08000 644.000
18.09500 670.000
18.11000 632.000
18.12500 570.000
18.14000 546.000
18.15500 567.000
18.17000 563.000
18.18500 533.000
18.20000 556.000
18.21500 587.000
18.23000 577.000
18.24500 573.000
18.26000 594.000
18.27500 596.000
18.29000 609.000
18.30500 594.000
18.32000 590.000
18.33500 596.000
18.35000 617.000
18.36500 613.000
18.38000 586.000
18.39500 579.000
18.41000 635.000
18.42500 602.000
18.44000 612.000
18.45500 586.000
18.47000 632.000
18.48500 647.000
18.50000 634.000
18.51500 625.000
18.53000 564.000
18.54500 566.000
18.56000 576.000
18.57500 573.000
18.59000 579.000
18.60500 531.000
18.62000 555.000
18.63500 558.000
18.65000 555.000
18.66500 574.000
18.68000 538.000
18.69500 556.000
18.71000 586.000
18.72500 566.000
18.74000 565.000
18.75500 585.000
18.77000 553.000
18.78500 542.000
18.80000 532.000
18.81500 588.000
18.83000 565.000
18.84500 554.000
18.86000 542.000
18.87500 538.000
18.89000 582.000
18.90500 613.000
18.92000 615.000
18.93500 600.000
18.95000 557.000
18.96500 612.000
18.98000 624.000
18.99500 585.000
19.01000 568.000
19.02500 584.000
19.04000 612.000
19.05500 592.000
19.07000 614.000
19.08500 630.000
19.10000 607.000
19.11500 587.000
19.13000 609.000
19.14500 654.000
19.16000 603.000
19.17500 602.000
19.19000 601.000
19.20500 602.000
19.22000 647.000
19.23500 636.000
19.25000 619.000
19.26500 635.000
19.28000 632.000
19.29500 618.000
19.31000 630.000
19.32500 629.000
19.34000 655.000
19.35500 661.000
19.37000 652.000
19.38500 680.000
19.40000 652.000
19.41500 683.000
19.43000 653.000
19.44500 708.000
19.46000 770.000
19.47500 755.000
19.49000 747.000
19.50500 726.000
19.52000 695.000
19.53500 682.000
19.55000 674.000
19.56500 677.000
19.58000 674.000
19.59500 721.000
19.61000 777.000
19.62500 785.000
19.64000 798.000
19.65500 866.000
19.67000 884.000
19.68500 806.000
19.70000 769.000
19.71500 792.000
19.73000 744.000
19.74500 682.000
19.76000 672.000
19.77500 670.000
19.79000 617.000
19.80500 635.000
19.82000 661.000
19.83500 637.000
19.85000 621.000
19.86500 622.000
19.88000 631.000
19.89500 600.000
19.91000 598.000
19.92500 605.000
19.94000 609.000
19.95500 591.000
19.97000 604.000
19.98500 623.000
20.00000 612.000
20.01500 614.000
20.03000 595.000
20.04500 609.000
20.06000 610.000
20.07500 586.000
20.09000 587.000
20.10500 575.000
20.12000 591.000
20.13500 611.000
20.15000 588.000
20.16500 603.000
20.18000 607.000
20.19500 616.000
20.21000 624.000
20.22500 605.000
20.24000 600.000
20.25500 593.000
20.27000 576.000
20.28500 571.000
20.30000 578.000
20.31500 610.000
20.33000 587.000
20.34500 592.000
20.36000 610.000
20.37500 596.000
20.39000 565.000
20.40500 592.000
20.42000 632.000
20.43500 642.000
20.45000 604.000
20.46500 597.000
20.48000 598.000
20.49500 633.000
20.51000 643.000
20.52500 593.000
20.54000 571.000
20.55500 592.000
20.57000 618.000
20.58500 612.000
20.60000 628.000
20.61500 641.000
20.63000 656.000
20.64500 645.000
20.66000 611.000
20.67500 572.000
20.69000 605.000
20.70500 594.000
20.72000 600.000
20.73500 560.000
20.75000 561.000
20.76500 628.000
20.78000 644.000
20.79500 644.000
20.81000 596.000
20.82500 623.000
20.84000 578.000
20.85500 613.000
20.87000 604.000
20.88500 640.000
20.90000 641.000
20.91500 644.000
20.93000 639.000
20.94500 596.000
20.96000 597.000
20.97500 618.000
20.99000 632.000
21.00500 617.000
21.02000 620.000
21.03500 625.000
21.05000 635.000
21.06500 618.000
21.08000 600.000
21.09500 612.000
21.11000 648.000
21.12500 611.000
21.14000 634.000
21.15500 660.000
21.17000 628.000
21.18500 666.000
21.20000 609.000
21.21500 636.000
21.23000 638.000
21.24500 606.000
21.26000 628.000
21.27500 620.000
21.29000 616.000
21.30500 618.000
21.32000 625.000
21.33500 604.000
21.35000 624.000
21.36500 598.000
21.38000 644.000
21.39500 638.000
21.41000 654.000
21.42500 640.000
21.44000 652.000
21.45500 683.000
21.47000 640.000
21.48500 672.000
21.50000 654.000
21.51500 674.000
21.53000 659.000
21.54500 656.000
21.56000 713.000
21.57500 727.000
21.59000 725.000
21.60500 727.000
21.62000 698.000
21.63500 776.000
21.65000 786.000
21.66500 789.000
21.68000 775.000
21.69500 850.000
21.71000 786.000
21.72500 833.000
21.74000 847.000
21.75500 816.000
21.77000 824.000
21.78500 801.000
21.80000 828.000
21.81500 888.000
21.83000 888.000
21.84500 947.000
21.86000 983.000
21.87500 1018.000
21.89000 1049.000
21.90500 1041.000
21.92000 1056.000
21.93500 1065.000
21.95000 1062.000
21.96500 1044.000
21.98000 992.000
21.99500 1033.000
22.01000 1001.000
22.02500 930.000
22.04000 932.000
22.05500 897.000
22.07000 891.000
22.08500 884.000
22.10000 934.000
22.11500 904.000
22.13000 837.000
22.14500 802.000
22.16000 824.000
22.17500 820.000
22.19000 794.000
22.20500 803.000
22.22000 777.000
22.23500 759.000
22.25000 719.000
22.26500 703.000
22.28000 696.000
22.29500 677.000
22.31000 694.000
22.32500 711.000
22.34000 717.000
22.35500 637.000
22.37000 689.000
22.38500 687.000
22.40000 729.000
22.41500 630.000
22.43000 629.000
22.44500 660.000
22.46000 666.000
22.47500 681.000
22.49000 694.000
22.50500 686.000
22.52000 683.000
22.53500 631.000
22.55000 604.000
22.56500 624.000
22.58000 615.000
22.59500 688.000
22.61000 650.000
22.62500 638.000
22.64000 638.000
22.65500 647.000
22.67000 666.000
22.68500 683.000
22.70000 640.000
22.71500 674.000
22.73000 663.000
22.74500 670.000
22.76000 695.000
22.77500 671.000
22.79000 654.000
22.80500 711.000
22.82000 690.000
22.83500 705.000
22.85000 644.000
22.86500 667.000
22.88000 685.000
22.89500 638.000
22.91000 670.000
22.92500 686.000
22.94000 631.000
22.95500 653.000
22.97000 682.000
22.98500 669.000
23.00000 665.000
23.01500 697.000
23.03000 641.000
23.04500 683.000
23.06000 724.000
23.07500 703.000
23.09000 693.000
23.10500 663.000
23.12000 686.000
23.13500 693.000
23.15000 659.000
23.16500 653.000
23.18000 694.000
23.19500 658.000
23.21000 702.000
23.22500 737.000
23.24000 671.000
23.25500 648.000
23.27000 647.000
23.28500 680.000
23.30000 679.000
23.31500 689.000
23.33000 679.000
23.34500 701.000
23.36000 685.000
23.37500 690.000
23.39000 701.000
23.40500 672.000
23.42000 670.000
23.43500 695.000
23.45000 665.000
23.46500 647.000
23.48000 683.000
23.49500 717.000
23.51000 651.000
23.52500 689.000
23.54000 689.000
23.55500 658.000
23.57000 690.000
23.58500 672.000
23.60000 686.000
23.61500 696.000
23.63000 688.000
23.64500 699.000
23.66000 716.000
23.67500 726.000
23.69000 683.000
23.70500 694.000
23.72000 694.000
23.73500 702.000
23.75000 714.000
23.76500 725.000
23.78000 689.000
23.79500 748.000
23.81000 744.000
23.82500 707.000
23.84000 742.000
23.85500 741.000
23.87000 729.000
23.88500 694.000
23.90000 702.000
23.91500 750.000
23.93000 723.000
23.94500 716.000
23.96000 745.000
23.97500 723.000
23.99000 767.000
24.00500 705.000
24.02000 726.000
24.03500 720.000
24.05000 693.000
24.06500 716.000
24.08000 743.000
24.09500 713.000
24.11000 689.000
24.12500 698.000
24.14000 688.000
24.15500 717.000
24.17000 708.000
24.18500 691.000
24.20000 706.000
24.21500 716.000
24.23000 743.000
24.24500 729.000
24.26000 710.000
24.27500 712.000
24.29000 724.000
24.30500 740.000
24.32000 761.000
24.33500 736.000
24.35000 738.000
24.36500 750.000
24.38000 756.000
24.39500 742.000
24.41000 710.000
24.42500 708.000
24.44000 706.000
24.45500 717.000
24.47000 711.000
24.48500 710.000
24.50000 759.000
24.51500 767.000
24.53000 712.000
24.54500 714.000
24.56000 782.000
24.57500 783.000
24.59000 791.000
24.60500 759.000
24.62000 772.000
24.63500 803.000
24.65000 827.000
24.66500 865.000
24.68000 892.000
24.69500 881.000
24.71000 878.000
24.72500 902.000
24.74000 924.000
24.75500 927.000
24.77000 897.000
24.78500 886.000
24.80000 909.000
24.81500 936.000
24.83000 926.000
24.84500 900.000
24.86000 909.000
24.87500 959.000
24.89000 957.000
24.90500 953.000
24.92000 983.000
24.93500 1031.000
24.95000 1034.000
24.96500 1056.000
24.98000 1089.000
24.99500 1083.000
25.01000 1202.000
25.02500 1241.000
25.04000 1265.000
25.05500 1374.000
25.07000 1458.000
25.08500 1510.000
25.10000 1576.000
25.11500 1615.000
25.13000 1736.000
25.14500 1823.000
25.16000 1901.000
25.17500 1908.000
25.19000 1942.000
25.20500 1944.000
25.22000 1968.000
25.23500 1916.000
25.25000 1809.000
25.26500 1744.000
25.28000 1642.000
25.29500 1591.000
25.31000 1520.000
25.32500 1452.000
25.34000 1319.000
25.35500 1274.000
25.37000 1183.000
25.38500 1191.000
25.40000 1191.000
25.41500 1078.000
25.43000 1069.000
25.44500 1057.000
25.46000 1000.000
25.47500 992.000
25.49000 977.000
25.50500 936.000
25.52000 949.000
25.53500 923.000
25.55000 920.000
25.56500 910.000
25.58000 905.000
25.59500 884.000
25.61000 929.000
25.62500 920.000
25.64000 956.000
25.65500 966.000
25.67000 1027.000
25.68500 1078.000
25.70000 1067.000
25.71500 1176.000
25.73000 1221.000
25.74500 1318.000
25.76000 1314.000
25.77500 1278.000
25.79000 1175.000
25.80500 1103.000
25.82000 1038.000
25.83500 965.000
25.85000 921.000
25.86500 910.000
25.88000 955.000
25.89500 887.000
25.91000 880.000
25.92500 890.000
25.94000 906.000
25.95500 906.000
25.97000 893.000
25.98500 935.000
26.00000 901.000
26.01500 876.000
26.03000 858.000
26.04500 881.000
26.06000 880.000
26.07500 878.000
26.09000 862.000
26.10500 877.000
26.12000 902.000
26.13500 923.000
26.15000 972.000
26.16500 989.000
26.18000 1033.000
26.19500 998.000
26.21000 1015.000
26.22500 1137.000
26.24000 1160.000
26.25500 1280.000
26.27000 1313.000
26.28500 1304.000
26.30000 1250.000
26.31500 1143.000
26.33000 1031.000
26.34500 1030.000
26.36000 967.000
26.37500 909.000
26.39000 972.000
26.40500 932.000
26.42000 953.000
26.43500 935.000
26.45000 974.000
26.46500 974.000
26.48000 946.000
26.49500 978.000
26.51000 983.000
26.52500 946.000
26.54000 945.000
26.55500 953.000
26.57000 943.000
26.58500 959.000
26.60000 997.000
26.61500 942.000
26.63000 946.000
26.64500 954.000
26.66000 928.000
26.67500 929.000
26.69000 1013.000
26.70500 978.000
26.72000 940.000
26.73500 970.000
26.75000 1016.000
26.76500 990.000
26.78000 962.000
26.79500 1002.000
26.81000 1025.000
26.82500 1087.000
26.84000 1066.000
26.85500 1070.000
26.87000 1105.000
26.88500 1098.000
26.90000 1084.000
26.91500 1159.000
26.93000 1171.000
26.94500 1158.000
26.96000 1205.000
26.97500 1239.000
26.99000 1287.000
27.00500 1304.000
27.02000 1372.000
27.03500 1406.000
27.05000 1380.000
27.06500 1462.000
27.08000 1517.000
27.09500 1586.000
27.11000 1590.000
27.12500 1557.000
27.14000 1581.000
27.15500 1564.000
27.17000 1541.000
27.18500 1455.000
27.20000 1500.000
27.21500 1502.000
27.23000 1452.000
27.24500 1318.000
27.26000 1305.000
27.27500 1282.000
27.29000 1275.000
27.30500 1250.000
27.32000 1219.000
27.33500 1152.000
27.35000 1151.000
27.36500 1137.000
27.38000 1133.000
27.39500 1074.000
27.41000 1080.000
27.42500 1092.000
27.44000 1104.000
27.45500 1089.000
27.47000 1014.000
27.48500 1074.000
27.50000 1087.000
27.51500 1068.000
27.53000 1037.000
27.54500 1100.000
27.56000 1037.000
27.57500 1076.000
27.59000 1080.000
27.60500 1096.000
27.62000 1134.000
27.63500 1165.000
27.65000 1187.000
27.66500 1243.000
27.68000 1259.000
27.69500 1349.000
27.71000 1359.000
27.72500 1395.000
27.74000 1491.000
27.75500 1563.000
27.77000 1717.000
27.78500 1807.000
27.80000 1754.000
27.81500 1698.000
27.83000 1550.000
27.84500 1317.000
27.86000 1163.000
27.87500 1102.000
27.89000 1034.000
27.90500 984.000
27.92000 911.000
27.93500 939.000
27.95000 872.000
27.96500 871.000
27.98000 890.000
27.99500 850.000
28.01000 823.000
28.02500 838.000
28.04000 839.000
28.05500 825.000
28.07000 814.000
28.08500 809.000
28.10000 791.000
28.11500 771.000
28.13000 767.000
28.14500 749.000
28.16000 767.000
28.17500 780.000
28.19000 781.000
28.20500 773.000
28.22000 744.000
28.23500 762.000
28.25000 784.000
28.26500 805.000
28.28000 755.000
28.29500 737.000
28.31000 747.000
28.32500 765.000
28.34000 773.000
28.35500 801.000
28.37000 745.000
28.38500 754.000
28.40000 751.000
28.41500 765.000
28.43000 767.000
28.44500 789.000
28.46000 737.000
28.47500 750.000
28.49000 772.000
28.50500 768.000
28.52000 724.000
28.53500 742.000
28.55000 672.000
28.56500 722.000
28.58000 719.000
28.59500 707.000
28.61000 682.000
28.62500 677.000
28.64000 718.000
28.65500 769.000
28.67000 731.000
28.68500 709.000
28.70000 691.000
28.71500 757.000
28.73000 767.000
28.74500 773.000
28.76000 718.000
28.77500 764.000
28.79000 725.000
28.80500 726.000
28.82000 753.000
28.83500 721.000
28.85000 733.000
28.86500 665.000
28.88000 701.000
28.89500 680.000
28.91000 689.000
28.92500 652.000
28.94000 671.000
28.95500 705.000
28.97000 675.000
28.98500 638.000
29.00000 634.000
29.01500 692.000
29.03000 694.000
29.04500 647.000
29.06000 656.000
29.07500 683.000
29.09000 634.000
29.10500 620.000
29.12000 628.000
29.13500 642.000
29.15000 655.000
29.16500 672.000
29.18000 633.000
29.19500 625.000
29.21000 609.000
29.22500 648.000
29.24000 646.000
29.25500 664.000
29.27000 686.000
29.28500 697.000
29.30000 691.000
29.31500 689.000
29.33000 668.000
29.34500 706.000
29.36000 728.000
29.37500 700.000
29.39000 725.000
29.40500 731.000
29.42000 730.000
29.43500 705.000
29.45000 632.000
29.46500 629.000
29.48000 602.000
29.49500 607.000
29.51000 620.000
29.52500 641.000
29.54000 613.000
29.55500 611.000
29.57000 620.000
29.58500 629.000
29.60000 590.000
29.61500 586.000
29.63000 560.000
29.64500 592.000
29.66000 637.000
29.67500 601.000
29.69000 593.000
29.70500 626.000
29.72000 605.000
29.73500 602.000
29.75000 598.000
29.76500 627.000
29.78000 618.000
29.79500 620.000
29.81000 648.000
29.82500 627.000
29.84000 611.000
29.85500 606.000
29.87000 592.000
29.88500 610.000
29.90000 615.000
29.91500 599.000
29.93000 645.000
29.94500 636.000
29.96000 595.000
29.97500 638.000
29.99000 621.000
30.00500 631.000
30.02000 622.000
30.03500 637.000
30.05000 671.000
30.06500 699.000
30.08000 671.000
30.09500 712.000
30.11000 698.000
30.12500 737.000
30.14000 733.000
30.15500 789.000
30.17000 778.000
30.18500 750.000
30.20000 714.000
30.21500 675.000
30.23000 649.000
30.24500 648.000
30.26000 667.000
30.27500 693.000
30.29000 688.000
30.30500 703.000
30.32000 707.000
30.33500 701.000
30.35000 735.000
30.36500 746.000
30.38000 722.000
30.39500 719.000
30.41000 729.000
30.42500 693.000
30.44000 684.000
30.45500 675.000
30.47000 676.000
30.48500 657.000
30.50000 676.000
30.51500 658.000
30.53000 625.000
30.54500 634.000
30.56000 638.000
30.57500 582.000
30.59000 596.000
30.60500 586.000
30.62000 589.000
30.63500 606.000
30.65000 628.000
30.66500 624.000
30.68000 621.000
30.69500 609.000
30.71000 633.000
30.72500 614.000
30.74000 640.000
30.75500 654.000
30.77000 654.000
30.78500 662.000
30.80000 714.000
30.81500 723.000
30.83000 677.000
30.84500 666.000
30.86000 654.000
30.87500 642.000
30.89000 609.000
30.90500 630.000
30.92000 626.000
30.93500 596.000
30.95000 602.000
30.96500 638.000
30.98000 600.000
30.99500 608.000
31.01000 588.000
31.02500 583.000
31.04000 578.000
31.05500 596.000
31.07000 540.000
31.08500 540.000
31.10000 578.000
31.11500 555.000
31.13000 544.000
31.14500 555.000
31.16000 578.000
31.17500 537.000
31.19000 568.000
31.20500 591.000
31.22000 619.000
31.23500 630.000
31.25000 603.000
31.26500 588.000
31.28000 601.000
31.29500 565.000
31.31000 510.000
31.32500 531.000
31.34000 538.000
31.35500 548.000
31.37000 534.000
31.38500 535.000
31.40000 492.000
31.41500 511.000
31.43000 531.000
31.44500 511.000
31.46000 516.000
31.47500 489.000
31.49000 478.000
31.50500 523.000
31.52000 533.000
31.53500 524.000
31.55000 544.000
31.56500 553.000
31.58000 546.000
31.59500 539.000
31.61000 533.000
31.62500 528.000
31.64000 499.000
31.65500 549.000
31.67000 548.000
31.68500 549.000
31.70000 571.000
31.71500 556.000
31.73000 540.000
31.74500 557.000
31.76000 548.000
31.77500 535.000
31.79000 560.000
31.80500 512.000
31.82000 528.000
31.83500 504.000
31.85000 499.000
31.86500 499.000
31.88000 498.000
31.89500 487.000
31.91000 498.000
31.92500 482.000
31.94000 514.000
31.95500 515.000
31.97000 474.000
31.98500 478.000
32.00000 504.000
32.01500 487.000
32.03000 505.000
32.04500 503.000
32.06000 485.000
32.07500 481.000
32.09000 534.000
32.10500 498.000
32.12000 499.000
32.13500 528.000
32.15000 517.000
32.16500 520.000
32.18000 460.000
32.19500 456.000
32.21000 489.000
32.22500 484.000
32.24000 492.000
32.25500 501.000
32.27000 514.000
32.28500 495.000
32.30000 470.000
32.31500 518.000
32.33000 517.000
32.34500 499.000
32.36000 493.000
32.37500 483.000
32.39000 485.000
32.40500 444.000
32.42000 483.000
32.43500 471.000
32.45000 468.000
32.46500 480.000
32.48000 504.000
32.49500 530.000
32.51000 506.000
32.52500 483.000
32.54000 473.000
32.55500 508.000
32.57000 504.000
32.58500 496.000
32.60000 462.000
32.61500 479.000
32.63000 485.000
32.64500 472.000
32.66000 473.000
32.67500 457.000
32.69000 438.000
32.70500 456.000
32.72000 467.000
32.73500 493.000
32.75000 465.000
32.76500 452.000
32.78000 464.000
32.79500 418.000
32.81000 431.000
32.82500 471.000
32.84000 444.000
32.85500 468.000
32.87000 423.000
32.88500 428.000
32.90000 437.000
32.91500 428.000
32.93000 451.000
32.94500 479.000
32.96000 445.000
32.97500 456.000
32.99000 439.000
33.00500 438.000
33.02000 437.000
33.03500 424.000
33.05000 434.000
33.06500 440.000
33.08000 449.000
33.09500 451.000
33.11000 437.000
33.12500 473.000
33.14000 456.000
33.15500 469.000
33.17000 489.000
33.18500 448.000
33.20000 491.000
33.21500 458.000
33.23000 457.000
33.24500 465.000
33.26000 482.000
33.27500 446.000
33.29000 433.000
33.30500 468.000
33.32000 461.000
33.33500 464.000
33.35000 457.000
33.36500 430.000
33.38000 430.000
33.39500 430.000
33.41000 435.000
33.42500 445.000
33.44000 430.000
33.45500 416.000
33.47000 434.000
33.48500 424.000
33.50000 422.000
33.51500 399.000
33.53000 405.000
33.54500 444.000
33.56000 428.000
33.57500 439.000
33.59000 411.000
33.60500 404.000
33.62000 414.000
33.63500 420.000
33.65000 380.000
33.66500 418.000
33.68000 456.000
33.69500 432.000
33.71000 426.000
33.72500 472.000
33.74000 465.000
33.75500 444.000
33.77000 410.000
33.78500 424.000
33.80000 429.000
33.81500 391.000
33.83000 390.000
33.84500 417.000
33.86000 425.000
33.87500 424.000
33.89000 413.000
33.90500 407.000
33.92000 446.000
33.93500 435.000
33.95000 397.000
33.96500 414.000
33.98000 416.000
33.99500 448.000
34.01000 454.000
34.02500 425.000
34.04000 443.000
34.05500 493.000
34.07000 459.000
34.08500 405.000
34.10000 430.000
34.11500 414.000
34.13000 393.000
34.14500 411.000
34.16000 393.000
34.17500 386.000
34.19000 386.000
34.20500 398.000
34.22000 396.000
34.23500 406.000
34.25000 450.000
34.26500 398.000
34.28000 414.000
34.29500 410.000
34.31000 374.000
34.32500 394.000
34.34000 402.000
34.35500 398.000
34.37000 380.000
34.38500 392.000
34.40000 414.000
34.41500 392.000
34.43000 368.000
34.44500 380.000
34.46000 400.000
34.47500 381.000
34.49000 392.000
34.50500 400.000
34.52000 387.000
34.53500 371.000
34.55000 414.000
34.56500 424.000
34.58000 413.000
34.59500 422.000
34.61000 436.000
34.62500 456.000
34.64000 423.000
34.65500 424.000
34.67000 425.000
34.68500 419.000
34.70000 407.000
34.71500 385.000
34.73000 402.000
34.74500 389.000
34.76000 405.000
34.77500 416.000
34.79000 414.000
34.80500 383.000
34.82000 419.000
34.83500 398.000
34.85000 419.000
34.86500 415.000
34.88000 401.000
34.89500 410.000
34.91000 394.000
34.92500 415.000
34.94000 428.000
34.95500 405.000
34.97000 405.000
34.98500 418.000
35.00000 404.000
35.01500 414.000
35.03000 389.000
35.04500 415.000
35.06000 404.000
35.07500 419.000
35.09000 400.000
35.10500 424.000
35.12000 412.000
35.13500 388.000
35.15000 420.000
35.16500 410.000
35.18000 424.000
35.19500 417.000
35.21000 427.000
35.22500 408.000
35.24000 361.000
35.25500 373.000
35.27000 372.000
35.28500 364.000
35.30000 384.000
35.31500 373.000
35.33000 369.000
35.34500 403.000
35.36000 376.000
35.37500 367.000
35.39000 391.000
35.40500 381.000
35.42000 340.000
35.43500 357.000
35.45000 396.000
35.46500 390.000
35.48000 362.000
35.49500 372.000
35.51000 355.000
35.52500 371.000
35.54000 370.000
35.55500 362.000
35.57000 378.000
35.58500 372.000
35.60000 361.000
35.61500 388.000
35.63000 367.000
35.64500 360.000
35.66000 353.000
35.67500 370.000
35.69000 360.000
35.70500 382.000
35.72000 381.000
35.73500 363.000
35.75000 342.000
35.76500 360.000
35.78000 367.000
35.79500 365.000
35.81000 374.000
35.82500 352.000
35.84000 381.000
35.85500 379.000
35.87000 355.000
35.88500 354.000
35.90000 339.000
35.91500 352.000
35.93000 335.000
35.94500 341.000
35.96000 359.000
35.97500 350.000
35.99000 370.000
36.00500 342.000
36.02000 393.000
36.03500 362.000
36.05000 349.000
36.06500 376.000
36.08000 369.000
36.09500 350.000
36.11000 353.000
36.12500 345.000
36.14000 332.000
36.15500 341.000
36.17000 345.000
36.18500 334.000
36.20000 354.000
36.21500 339.000
36.23000 308.000
36.24500 331.000
36.26000 339.000
36.27500 353.000
36.29000 336.000
36.30500 328.000
36.32000 330.000
36.33500 326.000
36.35000 324.000
36.36500 348.000
36.38000 318.000
36.39500 285.000
36.41000 302.000
36.42500 309.000
36.44000 318.000
36.45500 314.000
36.47000 337.000
36.48500 335.000
36.50000 303.000
36.51500 340.000
36.53000 352.000
36.54500 344.000
36.56000 338.000
36.57500 320.000
36.59000 319.000
36.60500 329.000
36.62000 336.000
36.63500 313.000
36.65000 329.000
36.66500 353.000
36.68000 316.000
36.69500 311.000
36.71000 342.000
36.72500 312.000
36.74000 299.000
36.75500 296.000
36.77000 318.000
36.78500 332.000
36.80000 316.000
36.81500 333.000
36.83000 307.000
36.84500 326.000
36.86000 318.000
36.87500 323.000
36.89000 336.000
36.90500 308.000
36.92000 315.000
36.93500 336.000
36.95000 327.000
36.96500 301.000
36.98000 310.000
36.99500 339.000
37.01000 327.000
37.02500 298.000
37.04000 323.000
37.05500 327.000
37.07000 351.000
37.08500 342.000
37.10000 311.000
37.11500 321.000
37.13000 310.000
37.14500 320.000
37.16000 324.000
37.17500 332.000
37.19000 316.000
37.20500 306.000
37.22000 323.000
37.23500 315.000
37.25000 300.000
37.26500 306.000
37.28000 294.000
37.29500 315.000
37.31000 319.000
37.32500 318.000
37.34000 306.000
37.35500 303.000
37.37000 302.000
37.38500 297.000
37.40000 296.000
37.41500 307.000
37.43000 296.000
37.44500 315.000
37.46000 317.000
37.47500 296.000
37.49000 325.000
37.50500 319.000
37.52000 315.000
37.53500 310.000
37.55000 296.000
37.56500 302.000
37.58000 288.000
37.59500 283.000
37.61000 323.000
37.62500 331.000
37.64000 300.000
37.65500 303.000
37.67000 296.000
37.68500 292.000
37.70000 316.000
37.71500 323.000
37.73000 329.000
37.74500 315.000
37.76000 304.000
37.77500 282.000
37.79000 308.000
37.80500 324.000
37.82000 294.000
37.83500 288.000
37.85000 295.000
37.86500 276.000
37.88000 303.000
37.89500 309.000
37.91000 294.000
37.92500 312.000
37.94000 332.000
37.95500 314.000
37.97000 318.000
37.98500 306.000
38.00000 323.000
38.01500 285.000
38.03000 290.000
38.04500 334.000
38.06000 351.000
38.07500 301.000
38.09000 320.000
38.10500 322.000
38.12000 305.000
38.13500 317.000
38.15000 328.000
38.16500 331.000
38.18000 319.000
38.19500 326.000
38.21000 323.000
38.22500 317.000
38.24000 293.000
38.25500 336.000
38.27000 310.000
38.28500 330.000
38.30000 339.000
38.31500 370.000
38.33000 357.000
38.34500 334.000
38.36000 313.000
38.37500 319.000
38.39000 297.000
38.40500 307.000
38.42000 316.000
38.43500 294.000
38.45000 293.000
38.46500 282.000
38.48000 310.000
38.49500 323.000
38.51000 316.000
38.52500 314.000
38.54000 318.000
38.55500 310.000
38.57000 300.000
38.58500 297.000
38.60000 304.000
38.61500 293.000
38.63000 289.000
38.64500 319.000
38.66000 294.000
38.67500 317.000
38.69000 313.000
38.70500 335.000
38.72000 312.000
38.73500 313.000
38.75000 289.000
38.76500 308.000
38.78000 294.000
38.79500 302.000
38.81000 300.000
38.82500 288.000
38.84000 298.000
38.85500 303.000
38.87000 305.000
38.88500 294.000
38.90000 308.000
38.91500 313.000
38.93000 308.000
38.94500 303.000
38.96000 310.000
38.97500 288.000
38.99000 311.000
39.00500 332.000
39.02000 329.000
39.03500 314.000
39.05000 274.000
39.06500 310.000
39.08000 311.000
39.09500 325.000
39.11000 322.000
39.12500 325.000
39.14000 292.000
39.15500 289.000
39.17000 312.000
39.18500 293.000
39.20000 310.000
39.21500 286.000
39.23000 311.000
39.24500 309.000
39.26000 285.000
39.27500 299.000
39.29000 292.000
39.30500 298.000
39.32000 302.000
39.33500 306.000
39.35000 328.000
39.36500 333.000
39.38000 339.000
39.39500 326.000
39.41000 312.000
39.42500 327.000
39.44000 346.000
39.45500 325.000
39.47000 336.000
39.48500 337.000
39.50000 326.000
39.51500 334.000
39.53000 298.000
39.54500 328.000
39.56000 333.000
39.57500 302.000
39.59000 308.000
39.60500 317.000
39.62000 304.000
39.63500 283.000
39.65000 301.000
39.66500 296.000
39.68000 266.000
39.69500 296.000
39.71000 320.000
39.72500 280.000
39.74000 288.000
39.75500 293.000
39.77000 272.000
39.78500 293.000
39.80000 283.000
39.81500 307.000
39.83000 297.000
39.84500 319.000
39.86000 331.000
39.87500 324.000
39.89000 330.000
39.90500 332.000
39.92000 309.000
39.93500 313.000
39.95000 317.000
39.96500 339.000
39.98000 333.000
39.99500 285.000
40.01000 296.000
40.02500 300.000
40.04000 298.000
40.05500 305.000
40.07000 301.000
40.08500 301.000
40.10000 278.000
40.11500 271.000
40.13000 304.000
40.14500 304.000
40.16000 301.000
40.17500 313.000
40.19000 312.000
40.20500 314.000
40.22000 324.000
40.23500 318.000
40.25000 294.000
40.26500 304.000
40.28000 285.000
40.29500 283.000
40.31000 282.000
40.32500 314.000
40.34000 323.000
40.35500 304.000
40.37000 296.000
40.38500 289.000
40.40000 308.000
40.41500 287.000
40.43000 310.000
40.44500 300.000
40.46000 303.000
40.47500 324.000
40.49000 309.000
40.50500 304.000
40.52000 309.000
40.53500 301.000
40.55000 314.000
40.56500 283.000
40.58000 308.000
40.59500 303.000
40.61000 323.000
40.62500 327.000
40.64000 314.000
40.65500 303.000
40.67000 323.000
40.68500 316.000
40.70000 269.000
40.71500 271.000
40.73000 300.000
40.74500 271.000
40.76000 287.000
40.77500 303.000
40.79000 303.000
40.80500 300.000
40.82000 307.000
40.83500 291.000
40.85000 307.000
40.86500 326.000
40.88000 297.000
40.89500 312.000
40.91000 290.000
40.92500 301.000
40.94000 298.000
40.95500 290.000
40.97000 291.000
40.98500 301.000
41.00000 327.000
41.01500 307.000
41.03000 306.000
41.04500 332.000
41.06000 303.000
41.07500 329.000
41.09000 317.000
41.10500 319.000
41.12000 302.000
41.13500 292.000
41.15000 279.000
41.16500 271.000
41.18000 308.000
41.19500 343.000
41.21000 320.000
41.22500 298.000
41.24000 282.000
41.25500 294.000
41.27000 306.000
41.28500 296.000
41.30000 306.000
41.31500 321.000
41.33000 307.000
41.34500 301.000
41.36000 300.000
41.37500 289.000
41.39000 292.000
41.40500 275.000
41.42000 272.000
41.43500 314.000
41.45000 297.000
41.46500 274.000
41.48000 316.000
41.49500 316.000
41.51000 308.000
41.52500 283.000
41.54000 289.000
41.55500 301.000
41.57000 298.000
41.58500 309.000
41.60000 313.000
41.61500 297.000
41.63000 288.000
41.64500 272.000
41.66000 287.000
41.67500 283.000
41.69000 311.000
41.70500 307.000
41.72000 315.000
41.73500 295.000
41.75000 283.000
41.76500 331.000
41.78000 307.000
41.79500 283.000
41.81000 307.000
41.82500 339.000
41.84000 331.000
41.85500 355.000
41.87000 331.000
41.88500 334.000
41.90000 337.000
41.91500 332.000
41.93000 338.000
41.94500 344.000
41.96000 351.000
41.97500 357.000
41.99000 367.000
42.00500 342.000
42.02000 354.000
42.03500 349.000
42.05000 345.000
42.06500 346.000
42.08000 332.000
42.09500 340.000
42.11000 346.000
42.12500 322.000
42.14000 334.000
42.15500 339.000
42.17000 340.000
42.18500 357.000
42.20000 347.000
42.21500 325.000
42.23000 317.000
42.24500 290.000
42.26000 327.000
42.27500 301.000
42.29000 311.000
42.30500 327.000
42.32000 300.000
42.33500 302.000
42.35000 281.000
42.36500 319.000
42.38000 276.000
42.39500 310.000
42.41000 275.000
42.42500 277.000
42.44000 265.000
42.45500 291.000
42.47000 273.000
42.48500 294.000
42.50000 283.000
42.51500 272.000
42.53000 255.000
42.54500 276.000
42.56000 310.000
42.57500 286.000
42.59000 285.000
42.60500 306.000
42.62000 313.000
42.63500 307.000
42.65000 300.000
42.66500 294.000
42.68000 298.000
42.69500 284.000
42.71000 297.000
42.72500 295.000
42.74000 315.000
42.75500 302.000
42.77000 291.000
42.78500 293.000
42.80000 275.000
42.81500 272.000
42.83000 278.000
42.84500 291.000
42.86000 283.000
42.87500 280.000
42.89000 296.000
42.90500 303.000
42.92000 290.000
42.93500 306.000
42.95000 302.000
42.96500 277.000
42.98000 293.000
42.99500 281.000
43.01000 302.000
43.02500 303.000
43.04000 266.000
43.05500 278.000
43.07000 289.000
43.08500 309.000
43.10000 292.000
43.11500 287.000
43.13000 280.000
43.14500 274.000
43.16000 294.000
43.17500 299.000
43.19000 299.000
43.20500 296.000
43.22000 273.000
43.23500 282.000
43.25000 306.000
43.26500 290.000
43.28000 273.000
43.29500 292.000
43.31000 307.000
43.32500 278.000
43.34000 286.000
43.35500 297.000
43.37000 295.000
43.38500 297.000
43.40000 311.000
43.41500 304.000
43.43000 292.000
43.44500 245.000
43.46000 287.000
43.47500 285.000
43.49000 279.000
43.50500 285.000
43.52000 284.000
43.53500 289.000
43.55000 271.000
43.56500 272.000
43.58000 282.000
43.59500 264.000
43.61000 282.000
43.62500 278.000
43.64000 271.000
43.65500 275.000
43.67000 322.000
43.68500 268.000
43.70000 278.000
43.71500 267.000
43.73000 286.000
43.74500 296.000
43.76000 300.000
43.77500 300.000
43.79000 301.000
43.80500 281.000
43.82000 282.000
43.83500 276.000
43.85000 253.000
43.86500 285.000
43.88000 307.000
43.89500 281.000
43.91000 283.000
43.92500 289.000
43.94000 282.000
43.95500 266.000
43.97000 270.000
43.98500 297.000
44.00000 275.000
44.01500 272.000
44.03000 289.000
44.04500 280.000
44.06000 296.000
44.07500 291.000
44.09000 312.000
44.10500 285.000
44.12000 306.000
44.13500 314.000
44.15000 298.000
44.16500 294.000
44.18000 293.000
44.19500 319.000
44.21000 317.000
44.22500 297.000
44.24000 316.000
44.25500 300.000
44.27000 289.000
44.28500 310.000
44.30000 297.000
44.31500 285.000
44.33000 291.000
44.34500 281.000
44.36000 266.000
44.37500 274.000
44.39000 283.000
44.40500 294.000
44.42000 290.000
44.43500 276.000
44.45000 287.000
44.46500 274.000
44.48000 265.000
44.49500 266.000
44.51000 307.000
44.52500 279.000
44.54000 281.000
44.55500 282.000
44.57000 286.000
44.58500 278.000
44.60000 276.000
44.61500 284.000
44.63000 305.000
44.64500 291.000
44.66000 288.000
44.67500 286.000
44.69000 276.000
44.70500 265.000
44.72000 281.000
44.73500 304.000
44.75000 285.000
44.76500 283.000
44.78000 285.000
44.79500 281.000
44.81000 277.000
44.82500 298.000
44.84000 293.000
44.85500 285.000
44.87000 292.000
44.88500 309.000
44.90000 279.000
44.91500 286.000
44.93000 288.000
44.94500 278.000
44.96000 279.000
44.97500 283.000
44.99000 309.000
45.00500 285.000
45.02000 294.000
45.03500 270.000
45.05000 294.000
45.06500 293.000
45.08000 275.000
45.09500 315.000
45.11000 306.000
45.12500 294.000
45.14000 292.000
45.15500 293.000
45.17000 292.000
45.18500 272.000
45.20000 281.000
45.21500 284.000
45.23000 295.000
45.24500 272.000
45.26000 291.000
45.27500 284.000
45.29000 282.000
45.30500 284.000
45.32000 297.000
45.33500 291.000
45.35000 289.000
45.36500 288.000
45.38000 277.000
45.39500 276.000
45.41000 281.000
45.42500 289.000
45.44000 297.000
45.45500 286.000
45.47000 284.000
45.48500 273.000
45.50000 291.000
45.51500 277.000
45.53000 290.000
45.54500 293.000
45.56000 310.000
45.57500 302.000
45.59000 289.000
45.60500 263.000
45.62000 281.000
45.63500 288.000
45.65000 284.000
45.66500 268.000
45.68000 259.000
45.69500 281.000
45.71000 299.000
45.72500 276.000
45.74000 272.000
45.75500 268.000
45.77000 290.000
45.78500 274.000
45.80000 274.000
45.81500 300.000
45.83000 280.000
45.84500 274.000
45.86000 257.000
45.87500 267.000
45.89000 296.000
45.90500 263.000
45.92000 276.000
45.93500 261.000
45.95000 272.000
45.96500 280.000
45.98000 274.000
45.99500 268.000
46.01000 255.000
46.02500 276.000
46.04000 290.000
46.05500 278.000
46.07000 266.000
46.08500 258.000
46.10000 268.000
46.11500 254.000
46.13000 265.000
46.14500 262.000
46.16000 286.000
46.17500 291.000
46.19000 278.000
46.20500 274.000
46.22000 265.000
46.23500 296.000
46.25000 274.000
46.26500 290.000
46.28000 287.000
46.29500 283.000
46.31000 257.000
46.32500 281.000
46.34000 294.000
46.35500 285.000
46.37000 284.000
46.38500 272.000
46.40000 275.000
46.41500 267.000
46.43000 290.000
46.44500 287.000
46.46000 281.000
46.47500 279.000
46.49000 271.000
46.50500 296.000
46.52000 246.000
46.53500 259.000
46.55000 269.000
46.56500 270.000
46.58000 279.000
46.59500 268.000
46.61000 265.000
46.62500 269.000
46.64000 293.000
46.65500 278.000
46.67000 267.000
46.68500 259.000
46.70000 253.000
46.71500 272.000
46.73000 265.000
46.74500 256.000
46.76000 254.000
46.77500 285.000
46.79000 260.000
46.80500 279.000
46.82000 280.000
46.83500 267.000
46.85000 268.000
46.86500 278.000
46.88000 285.000
46.89500 296.000
46.91000 297.000
46.92500 286.000
46.94000 289.000
46.95500 307.000
46.97000 290.000
46.98500 285.000
47.00000 284.000
47.01500 294.000
47.03000 296.000
47.04500 289.000
47.06000 312.000
47.07500 303.000
47.09000 295.000
47.10500 290.000
47.12000 286.000
47.13500 276.000
47.15000 280.000
47.16500 245.000
47.18000 253.000
47.19500 284.000
47.21000 278.000
47.22500 266.000
47.24000 272.000
47.25500 275.000
47.27000 297.000
47.28500 281.000
47.30000 275.000
47.31500 289.000
47.33000 295.000
47.34500 294.000
47.36000 301.000
47.37500 272.000
47.39000 285.000
47.40500 290.000
47.42000 315.000
47.43500 319.000
47.45000 299.000
47.46500 291.000
47.48000 315.000
47.49500 299.000
47.51000 314.000
47.52500 317.000
47.54000 311.000
47.55500 297.000
47.57000 268.000
47.58500 296.000
47.60000 281.000
47.61500 264.000
47.63000 234.000
47.64500 260.000
47.66000 307.000
47.67500 291.000
47.69000 263.000
47.70500 255.000
47.72000 298.000
47.73500 253.000
47.75000 246.000
47.76500 254.000
47.78000 241.000
47.79500 249.000
47.81000 266.000
47.82500 272.000
47.84000 260.000
47.85500 258.000
47.87000 244.000
47.88500 253.000
47.90000 267.000
47.91500 239.000
47.93000 270.000
47.94500 254.000
47.96000 260.000
47.97500 273.000
47.99000 264.000
48.00500 265.000
48.02000 249.000
48.03500 247.000
48.05000 281.000
48.06500 266.000
48.08000 257.000
48.09500 250.000
48.11000 257.000
48.12500 263.000
48.14000 240.000
48.15500 258.000
48.17000 236.000
48.18500 273.000
48.20000 275.000
48.21500 243.000
48.23000 265.000
48.24500 271.000
48.26000 293.000
48.27500 289.000
48.29000 280.000
48.30500 268.000
48.32000 264.000
48.33500 267.000
48.35000 310.000
48.36500 292.000
48.38000 293.000
48.39500 306.000
48.41000 286.000
48.42500 308.000
48.44000 308.000
48.45500 313.000
48.47000 323.000
48.48500 297.000
48.50000 306.000
48.51500 270.000
48.53000 264.000
48.54500 285.000
48.56000 280.000
48.57500 291.000
48.59000 290.000
48.60500 275.000
48.62000 271.000
48.63500 270.000
48.65000 273.000
48.66500 257.000
48.68000 275.000
48.69500 277.000
48.71000 270.000
48.72500 260.000
48.74000 272.000
48.75500 248.000
48.77000 241.000
48.78500 263.000
48.80000 276.000
48.81500 265.000
48.83000 239.000
48.84500 270.000
48.86000 257.000
48.87500 260.000
48.89000 231.000
48.90500 250.000
48.92000 248.000
48.93500 253.000
48.95000 243.000
48.96500 254.000
48.98000 272.000
48.99500 255.000
49.01000 235.000
49.02500 277.000
49.04000 278.000
49.05500 271.000
49.07000 245.000
49.08500 253.000
49.10000 257.000
49.11500 271.000
49.13000 277.000
49.14500 250.000
49.16000 235.000
49.17500 256.000
49.19000 265.000
49.20500 261.000
49.22000 252.000
49.23500 256.000
49.25000 263.000
49.26500 258.000
49.28000 224.000
49.29500 253.000
49.31000 265.000
49.32500 263.000
49.34000 253.000
49.35500 256.000
49.37000 260.000
49.38500 248.000
49.40000 244.000
49.41500 239.000
49.43000 252.000
49.44500 244.000
49.46000 256.000
49.47500 275.000
49.49000 274.000
49.50500 266.000
49.52000 261.000
49.53500 248.000
49.55000 255.000
49.56500 247.000
49.58000 249.000
49.59500 268.000
49.61000 257.000
49.62500 248.000
49.64000 278.000
49.65500 282.000
49.67000 282.000
49.68500 280.000
49.70000 271.000
49.71500 257.000
49.73000 260.000
49.74500 240.000
49.76000 248.000
49.77500 251.000
49.79000 240.000
49.80500 240.000
49.82000 222.000
49.83500 236.000
49.85000 235.000
49.86500 236.000
49.88000 245.000
49.89500 222.000
49.91000 246.000
49.92500 271.000
49.94000 252.000
49.95500 220.000
49.97000 218.000
49.98500 230.000
50.00000 241.000
50.01500 227.000
50.03000 234.000
50.04500 263.000
50.06000 269.000
50.07500 246.000
50.09000 273.000
50.10500 256.000
50.12000 243.000
50.13500 259.000
50.15000 242.000
50.16500 266.000
50.18000 242.000
50.19500 261.000
50.21000 235.000
50.22500 257.000
50.24000 274.000
50.25500 270.000
50.27000 259.000
50.28500 258.000
50.30000 249.000
50.31500 246.000
50.33000 233.000
50.34500 237.000
50.36000 259.000
50.37500 262.000
50.39000 261.000
50.40500 266.000
50.42000 236.000
50.43500 265.000
50.45000 251.000
50.46500 247.000
50.48000 254.000
50.49500 236.000
50.51000 261.000
50.52500 284.000
50.54000 253.000
50.55500 254.000
50.57000 242.000
50.58500 243.000
50.60000 247.000
50.61500 265.000
50.63000 254.000
50.64500 251.000
50.66000 240.000
50.67500 218.000
50.69000 241.000
50.70500 220.000
50.72000 257.000
50.73500 243.000
50.75000 243.000
50.76500 254.000
50.78000 235.000
50.79500 247.000
50.81000 259.000
50.82500 251.000
50.84000 252.000
50.85500 248.000
50.87000 247.000
50.88500 247.000
50.90000 229.000
50.91500 229.000
50.93000 261.000
50.94500 233.000
50.96000 247.000
50.97500 238.000
50.99000 252.000
51.00500 257.000
51.02000 260.000
51.03500 229.000
51.05000 224.000
51.06500 241.000
51.08000 243.000
51.09500 250.000
51.11000 266.000
51.12500 231.000
51.14000 229.000
51.15500 236.000
51.17000 227.000
51.18500 247.000
51.20000 252.000
51.21500 235.000
51.23000 225.000
51.24500 234.000
51.26000 243.000
51.27500 246.000
51.29000 245.000
51.30500 249.000
51.32000 244.000
51.33500 243.000
51.35000 241.000
51.36500 256.000
51.38000 260.000
51.39500 235.000
51.41000 247.000
51.42500 259.000
51.44000 263.000
51.45500 276.000
51.47000 266.000
51.48500 268.000
51.50000 295.000
51.51500 267.000
51.53000 281.000
51.54500 255.000
51.56000 260.000
51.57500 259.000
51.59000 275.000
51.60500 277.000
51.62000 283.000
51.63500 262.000
51.65000 286.000
51.66500 263.000
51.68000 281.000
51.69500 277.000
51.71000 299.000
51.72500 302.000
51.74000 289.000
51.75500 275.000
51.77000 269.000
51.78500 281.000
51.80000 283.000
51.81500 274.000
51.83000 275.000
51.84500 267.000
51.86000 273.000
51.87500 286.000
51.89000 303.000
51.90500 294.000
51.92000 272.000
51.93500 278.000
51.95000 269.000
51.96500 259.000
51.98000 264.000
51.99500 278.000
52.01000 292.000
52.02500 243.000
52.04000 283.000
52.05500 276.000
52.07000 248.000
52.08500 278.000
52.10000 263.000
52.11500 253.000
52.13000 265.000
52.14500 264.000
52.16000 253.000
52.17500 268.000
52.19000 248.000
52.20500 247.000
52.22000 244.000
52.23500 284.000
52.25000 265.000
52.26500 254.000
52.28000 251.000
52.29500 238.000
52.31000 240.000
52.32500 247.000
52.34000 227.000
52.35500 238.000
52.37000 240.000
52.38500 238.000
52.40000 241.000
52.41500 217.000
52.43000 246.000
52.44500 233.000
52.46000 234.000
52.47500 238.000
52.49000 219.000
52.50500 224.000
52.52000 240.000
52.53500 239.000
52.55000 238.000
52.56500 240.000
52.58000 229.000
52.59500 232.000
52.61000 229.000
52.62500 224.000
52.64000 235.000
52.65500 243.000
52.67000 243.000
52.68500 246.000
52.70000 236.000
52.71500 223.000
52.73000 219.000
52.74500 235.000
52.76000 237.000
52.77500 223.000
52.79000 225.000
52.80500 261.000
52.82000 265.000
52.83500 248.000
52.85000 236.000
52.86500 243.000
52.88000 240.000
52.89500 234.000
52.91000 246.000
52.92500 255.000
52.94000 237.000
52.95500 253.000
52.97000 253.000
52.98500 248.000
53.00000 252.000
53.01500 241.000
53.03000 231.000
53.04500 234.000
53.06000 243.000
53.07500 249.000
53.09000 262.000
53.10500 242.000
53.12000 295.000
53.13500 234.000
53.15000 235.000
53.16500 239.000
53.18000 284.000
53.19500 273.000
53.21000 275.000
53.22500 238.000
53.24000 271.000
53.25500 256.000
53.27000 277.000
53.28500 259.000
53.30000 234.000
53.31500 272.000
53.33000 272.000
53.34500 269.000
53.36000 264.000
53.37500 258.000
53.39000 268.000
53.40500 278.000
53.42000 286.000
53.43500 283.000
53.45000 269.000
53.46500 296.000
53.48000 273.000
53.49500 272.000
53.51000 274.000
53.52500 268.000
53.54000 276.000
53.55500 254.000
53.57000 257.000
53.58500 256.000
53.60000 257.000
53.61500 258.000
53.63000 264.000
53.64500 259.000
53.66000 252.000
53.67500 268.000
53.69000 236.000
53.70500 262.000
53.72000 274.000
53.73500 262.000
53.75000 259.000
53.76500 242.000
53.78000 261.000
53.79500 243.000
53.81000 245.000
53.82500 254.000
53.84000 261.000
53.85500 243.000
53.87000 250.000
53.88500 247.000
53.90000 256.000
53.91500 251.000
53.93000 256.000
53.94500 257.000
53.96000 224.000
53.97500 237.000
53.99000 233.000
54.00500 223.000
54.02000 267.000
54.03500 253.000
54.05000 215.000
54.06500 251.000
54.08000 266.000
54.09500 250.000
54.11000 252.000
54.12500 248.000
54.14000 235.000
54.15500 244.000
54.17000 222.000
54.18500 241.000
54.20000 236.000
54.21500 230.000
54.23000 240.000
54.24500 221.000
54.26000 223.000
54.27500 211.000
54.29000 215.000
54.30500 221.000
54.32000 257.000
54.33500 251.000
54.35000 238.000
54.36500 232.000
54.38000 231.000
54.39500 243.000
54.41000 256.000
54.42500 247.000
54.44000 246.000
54.45500 242.000
54.47000 216.000
54.48500 233.000
54.50000 216.000
54.51500 243.000
54.53000 258.000
54.54500 239.000
54.56000 239.000
54.57500 241.000
54.59000 228.000
54.60500 234.000
54.62000 231.000
54.63500 212.000
54.65000 227.000
54.66500 233.000
54.68000 217.000
54.69500 211.000
54.71000 219.000
54.72500 262.000
54.74000 252.000
54.75500 233.000
54.77000 225.000
54.78500 244.000
54.80000 230.000
54.81500 232.000
54.83000 232.000
54.84500 243.000
54.86000 253.000
54.87500 245.000
54.89000 241.000
54.90500 248.000
54.92000 251.000
54.93500 247.000
54.95000 238.000
54.96500 224.000
54.98000 222.000
54.99500 239.000
55.01000 253.000
55.02500 259.000
55.04000 260.000
55.05500 252.000
55.07000 254.000
55.08500 261.000
55.10000 258.000
55.11500 263.000
55.13000 265.000
55.14500 243.000
55.16000 255.000
55.17500 232.000
55.19000 260.000
55.20500 264.000
55.22000 235.000
55.23500 232.000
55.25000 240.000
55.26500 241.000
55.28000 219.000
55.29500 234.000
55.31000 254.000
55.32500 254.000
55.34000 238.000
55.35500 241.000
55.37000 232.000
55.38500 228.000
55.40000 243.000
55.41500 240.000
55.43000 232.000
55.44500 236.000
55.46000 245.000
55.47500 250.000
55.49000 232.000
55.50500 220.000
55.52000 234.000
55.53500 232.000
55.55000 257.000
55.56500 236.000
55.58000 239.000
55.59500 225.000
55.61000 216.000
55.62500 218.000
55.64000 242.000
55.65500 241.000
55.67000 222.000
55.68500 221.000
55.70000 225.000
55.71500 233.000
55.73000 228.000
55.74500 228.000
55.76000 231.000
55.77500 229.000
55.79000 227.000
55.80500 217.000
55.82000 238.000
55.83500 274.000
55.85000 251.000
55.86500 215.000
55.88000 250.000
55.89500 240.000
55.91000 232.000
55.92500 225.000
55.94000 225.000
55.95500 223.000
55.97000 231.000
55.98500 226.000
56.00000 239.000
56.01500 218.000
56.03000 238.000
56.04500 222.000
56.06000 237.000
56.07500 252.000
56.09000 240.000
56.10500 243.000
56.12000 236.000
56.13500 215.000
56.15000 211.000
56.16500 240.000
56.18000 243.000
56.19500 240.000
56.21000 243.000
56.22500 247.000
56.24000 226.000
56.25500 240.000
56.27000 217.000
56.28500 229.000
56.30000 241.000
56.31500 230.000
56.33000 208.000
56.34500 230.000
56.36000 232.000
56.37500 226.000
56.39000 256.000
56.40500 230.000
56.42000 246.000
56.43500 253.000
56.45000 230.000
56.46500 228.000
56.48000 241.000
56.49500 253.000
56.51000 234.000
56.52500 219.000
56.54000 233.000
56.55500 251.000
56.57000 225.000
56.58500 240.000
56.60000 258.000
56.61500 234.000
56.63000 240.000
56.64500 234.000
56.66000 236.000
56.67500 241.000
56.69000 221.000
56.70500 226.000
56.72000 235.000
56.73500 260.000
56.75000 267.000
56.76500 272.000
56.78000 244.000
56.79500 222.000
56.81000 241.000
56.82500 257.000
56.84000 262.000
56.85500 235.000
56.87000 229.000
56.88500 221.000
56.90000 233.000
56.91500 234.000
56.93000 256.000
56.94500 259.000
56.96000 243.000
56.97500 252.000
56.99000 238.000
57.00500 247.000
57.02000 243.000
57.03500 222.000
57.05000 231.000
57.06500 255.000
57.08000 238.000
57.09500 242.000
57.11000 240.000
57.12500 251.000
57.14000 239.000
57.15500 253.000
57.17000 244.000
57.18500 243.000
57.20000 228.000
57.21500 260.000
57.23000 244.000
57.24500 232.000
57.26000 240.000
57.27500 208.000
57.29000 227.000
57.30500 240.000
57.32000 235.000
57.33500 239.000
57.35000 265.000
57.36500 232.000
57.38000 243.000
57.39500 261.000
57.41000 257.000
57.42500 241.000
57.44000 252.000
57.45500 257.000
57.47000 261.000
57.48500 257.000
57.50000 242.000
57.51500 237.000
57.53000 228.000
57.54500 211.000
57.56000 221.000
57.57500 215.000
57.59000 210.000
57.60500 221.000
57.62000 205.000
57.63500 227.000
57.65000 230.000
57.66500 240.000
57.68000 223.000
57.69500 244.000
57.71000 245.000
57.72500 246.000
57.74000 227.000
57.75500 189.000
57.77000 213.000
57.78500 214.000
57.80000 232.000
57.81500 234.000
57.83000 206.000
57.84500 216.000
57.86000 234.000
57.87500 232.000
57.89000 218.000
57.90500 227.000
57.92000 237.000
57.93500 249.000
57.95000 223.000
57.96500 228.000
57.98000 228.000
57.99500 250.000
58.01000 254.000
58.02500 229.000
58.04000 227.000
58.05500 213.000
58.07000 229.000
58.08500 214.000
58.10000 226.000
58.11500 206.000
58.13000 223.000
58.14500 214.000
58.16000 225.000
58.17500 233.000
58.19000 204.000
58.20500 209.000
58.22000 242.000
58.23500 214.000
58.25000 189.000
58.26500 222.000
58.28000 221.000
58.29500 224.000
58.31000 231.000
58.32500 227.000
58.34000 229.000
58.35500 233.000
58.37000 224.000
58.38500 224.000
58.40000 209.000
58.41500 213.000
58.43000 214.000
58.44500 223.000
58.46000 217.000
58.47500 238.000
58.49000 222.000
58.50500 213.000
58.52000 203.000
58.53500 220.000
58.55000 205.000
58.56500 220.000
58.58000 225.000
58.59500 244.000
58.61000 218.000
58.62500 215.000
58.64000 219.000
58.65500 224.000
58.67000 226.000
58.68500 210.000
58.70000 205.000
58.71500 205.000
58.73000 229.000
58.74500 210.000
58.76000 206.000
58.77500 201.000
58.79000 215.000
58.80500 203.000
58.82000 200.000
58.83500 211.000
58.85000 225.000
58.86500 191.000
58.88000 222.000
58.89500 216.000
58.91000 201.000
58.92500 196.000
58.94000 215.000
58.95500 217.000
58.97000 213.000
58.98500 214.000
59.00000 208.000
59.01500 205.000
59.03000 207.000
59.04500 216.000
59.06000 228.000
59.07500 227.000
59.09000 220.000
59.10500 230.000
59.12000 216.000
59.13500 218.000
59.15000 213.000
59.16500 206.000
59.18000 220.000
59.19500 214.000
59.21000 211.000
59.22500 214.000
59.24000 216.000
59.25500 224.000
59.27000 216.000
59.28500 201.000
59.30000 205.000
59.31500 203.000
59.33000 208.000
59.34500 216.000
59.36000 218.000
59.37500 178.000
59.39000 209.000
59.40500 211.000
59.42000 227.000
59.43500 212.000
59.45000 203.000
59.46500 207.000
59.48000 221.000
59.49500 214.000
59.51000 213.000
59.52500 201.000
59.54000 193.000
59.55500 196.000
59.57000 216.000
59.58500 239.000
59.60000 224.000
59.61500 201.000
59.63000 207.000
59.64500 231.000
59.66000 227.000
59.67500 209.000
59.69000 203.000
59.70500 196.000
59.72000 198.000
59.73500 206.000
59.75000 216.000
59.76500 212.000
59.78000 207.000
59.79500 215.000
59.81000 205.000
59.82500 214.000
59.84000 229.000
59.85500 232.000
59.87000 209.000
59.88500 217.000
59.90000 183.000
59.91500 201.000
59.93000 238.000
59.94500 232.000
59.96000 224.000
59.97500 222.000
59.99000 221.000
60.00500 236.000
60.02000 217.000
60.03500 218.000
60.05000 221.000
60.06500 216.000
60.08000 218.000
60.09500 201.000
60.11000 207.000
60.12500 213.000
60.14000 220.000
60.15500 201.000
60.17000 201.000
60.18500 200.000
60.20000 215.000
60.21500 190.000
60.23000 204.000
60.24500 185.000
60.26000 203.000
60.27500 219.000
60.29000 219.000
60.30500 206.000
60.32000 222.000
60.33500 212.000
60.35000 224.000
60.36500 187.000
60.38000 201.000
60.39500 211.000
60.41000 238.000
60.42500 237.000
60.44000 229.000
60.45500 233.000
60.47000 208.000
60.48500 205.000
60.50000 208.000
60.51500 201.000
60.53000 222.000
60.54500 211.000
60.56000 206.000
60.57500 206.000
60.59000 204.000
60.60500 206.000
60.62000 198.000
60.63500 205.000
60.65000 222.000
60.66500 224.000
60.68000 240.000
60.69500 207.000
60.71000 181.000
60.72500 193.000
60.74000 201.000
60.75500 192.000
60.77000 199.000
60.78500 219.000
60.80000 209.000
60.81500 221.000
60.83000 214.000
60.84500 197.000
60.86000 198.000
60.87500 192.000
60.89000 196.000
60.90500 204.000
60.92000 202.000
60.93500 195.000
60.95000 208.000
60.96500 204.000
60.98000 197.000
60.99500 209.000
61.01000 216.000
61.02500 206.000
61.04000 218.000
61.05500 211.000
61.07000 196.000
61.08500 210.000
61.10000 208.000
61.11500 194.000
61.13000 191.000
61.14500 211.000
61.16000 213.000
61.17500 208.000
61.19000 212.000
61.20500 209.000
61.22000 200.000
61.23500 227.000
61.25000 215.000
61.26500 215.000
61.28000 204.000
61.29500 191.000
61.31000 196.000
61.32500 202.000
61.34000 191.000
61.35500 180.000
61.37000 184.000
61.38500 210.000
61.40000 205.000
61.41500 209.000
61.43000 231.000
61.44500 213.000
61.46000 204.000
61.47500 193.000
61.49000 209.000
61.50500 224.000
61.52000 205.000
61.53500 196.000
61.55000 208.000
61.56500 200.000
61.58000 219.000
61.59500 204.000
61.61000 197.000
61.62500 211.000
61.64000 206.000
61.65500 184.000
61.67000 209.000
61.68500 214.000
61.70000 209.000
61.71500 198.000
61.73000 213.000
61.74500 216.000
61.76000 187.000
61.77500 205.000
61.79000 200.000
61.80500 199.000
61.82000 204.000
61.83500 214.000
61.85000 226.000
61.86500 221.000
61.88000 187.000
61.89500 181.000
61.91000 183.000
61.92500 190.000
61.94000 201.000
61.95500 204.000
61.97000 212.000
61.98500 186.000
