2.00000 2.000
2.01500 1.000
2.03000 1.000
2.04500 4.000
2.06000 2.000
2.07500 1.000
2.09000 2.000
2.10500 2.000
2.12000 2.000
2.13500 3.000
2.15000 5.000
2.16500 2.000
2.18000 1.000
2.19500 1.000
2.21000 4.000
2.22500 2.000
2.24000 1.000
2.25500 2.000
2.27000 4.000
2.28500 2.000
2.30000 3.000
2.31500 2.000
2.33000 2.000
2.34500 3.000
2.36000 1.000
2.37500 2.000
2.39000 0.000
2.40500 0.000
2.42000 2.000
2.43500 5.000
2.45000 3.000
2.46500 2.000
2.48000 3.000
2.49500 3.000
2.51000 4.000
2.52500 2.000
2.54000 1.000
2.55500 0.000
2.57000 3.000
2.58500 1.000
2.60000 1.000
2.61500 1.000
2.63000 1.000
2.64500 2.000
2.66000 3.000
2.67500 4.000
2.69000 4.000
2.70500 1.000
2.72000 3.000
2.73500 2.000
2.75000 2.000
2.76500 1.000
2.78000 5.000
2.79500 2.000
2.81000 1.000
2.82500 2.000
2.84000 4.000
2.85500 3.000
2.87000 2.000
2.88500 2.000
2.90000 3.000
2.91500 4.000
2.93000 1.000
2.94500 2.000
2.96000 4.000
2.97500 2.000
2.99000 3.000
3.00500 4.000
3.02000 9.000
3.03500 15.000
3.05000 20.000
3.06500 10.000
3.08000 14.000
3.09500 26.000
3.11000 36.000
3.12500 37.000
3.14000 57.000
3.15500 64.000
3.17000 65.000
3.18500 86.000
3.20000 85.000
3.21500 96.000
3.23000 102.000
3.24500 97.000
3.26000 110.000
3.27500 115.000
3.29000 126.000
3.30500 96.000
3.32000 95.000
3.33500 103.000
3.35000 110.000
3.36500 110.000
3.38000 119.000
3.39500 105.000
3.41000 121.000
3.42500 113.000
3.44000 118.000
3.45500 108.000
3.47000 126.000
3.48500 131.000
3.50000 116.000
3.51500 123.000
3.53000 140.000
3.54500 130.000
3.56000 129.000
3.57500 129.000
3.59000 146.000
3.60500 140.000
3.62000 132.000
3.63500 135.000
3.65000 133.000
3.66500 134.000
3.68000 142.000
3.69500 133.000
3.71000 135.000
3.72500 136.000
3.74000 125.000
3.75500 152.000
3.77000 153.000
3.78500 156.000
3.80000 150.000
3.81500 145.000
3.83000 160.000
3.84500 156.000
3.86000 136.000
3.87500 139.000
3.89000 144.000
3.90500 157.000
3.92000 157.000
3.93500 151.000
3.95000 162.000
3.96500 161.000
3.98000 142.000
3.99500 166.000
4.01000 147.000
4.02500 178.000
4.04000 176.000
4.05500 160.000
4.07000 172.000
4.08500 175.000
4.10000 176.000
4.11500 149.000
4.13000 159.000
4.14500 157.000
4.16000 179.000
4.17500 155.000
4.19000 154.000
4.20500 182.000
4.22000 193.000
4.23500 171.000
4.25000 165.000
4.26500 179.000
4.28000 164.000
4.29500 184.000
4.31000 167.000
4.32500 175.000
4.34000 183.000
4.35500 177.000
4.37000 175.000
4.38500 195.000
4.40000 180.000
4.41500 182.000
4.43000 177.000
4.44500 180.000
4.46000 175.000
4.47500 177.000
4.49000 178.000
4.50500 171.000
4.52000 178.000
4.53500 172.000
4.55000 192.000
4.56500 193.000
4.58000 181.000
4.59500 189.000
4.61000 178.000
4.62500 188.000
4.64000 180.000
4.65500 173.000
4.67000 191.000
4.68500 200.000
4.70000 187.000
4.71500 176.000
4.73000 211.000
4.74500 192.000
4.76000 193.000
4.77500 203.000
4.79000 171.000
4.80500 181.000
4.82000 194.000
4.83500 196.000
4.85000 200.000
4.86500 212.000
4.88000 207.000
4.89500 209.000
4.91000 197.000
4.92500 200.000
4.94000 198.000
4.95500 210.000
4.97000 197.000
4.98500 207.000
5.00000 191.000
5.01500 189.000
5.03000 207.000
5.04500 209.000
5.06000 185.000
5.07500 210.000
5.09000 222.000
5.10500 208.000
5.12000 219.000
5.13500 233.000
5.15000 245.000
5.16500 225.000
5.18000 210.000
5.19500 227.000
5.21000 223.000
5.22500 219.000
5.24000 212.000
5.25500 211.000
5.27000 205.000
5.28500 212.000
5.30000 247.000
5.31500 208.000
5.33000 210.000
5.34500 210.000
5.36000 227.000
5.37500 215.000
5.39000 214.000
5.40500 240.000
5.42000 237.000
5.43500 213.000
5.45000 216.000
5.46500 211.000
5.48000 226.000
5.49500 242.000
5.51000 222.000
5.52500 232.000
5.54000 229.000
5.55500 226.000
5.57000 231.000
5.58500 240.000
5.60000 244.000
5.61500 220.000
5.63000 225.000
5.64500 239.000
5.66000 221.000
5.67500 249.000
5.69000 244.000
5.70500 220.000
5.72000 246.000
5.73500 238.000
5.75000 229.000
5.76500 251.000
5.78000 228.000
5.79500 240.000
5.81000 269.000
5.82500 230.000
5.84000 226.000
5.85500 252.000
5.87000 240.000
5.88500 250.000
5.90000 237.000
5.91500 228.000
5.93000 225.000
5.94500 221.000
5.96000 256.000
5.97500 245.000
5.99000 238.000
6.00500 222.000
6.02000 241.000
6.03500 241.000
6.05000 227.000
6.06500 244.000
6.08000 237.000
6.09500 249.000
6.11000 230.000
6.12500 245.000
6.14000 250.000
6.15500 217.000
6.17000 245.000
6.18500 263.000
6.20000 255.000
6.21500 244.000
6.23000 237.000
6.24500 246.000
6.26000 249.000
6.27500 254.000
6.29000 232.000
6.30500 235.000
6.32000 232.000
6.33500 231.000
6.35000 250.000
6.36500 231.000
6.38000 233.000
6.39500 254.000
6.41000 255.000
6.42500 229.000
6.44000 232.000
6.45500 249.000
6.47000 256.000
6.48500 232.000
6.50000 257.000
6.51500 247.000
6.53000 243.000
6.54500 252.000
6.56000 248.000
6.57500 250.000
6.59000 238.000
6.60500 259.000
6.62000 257.000
6.63500 265.000
6.65000 252.000
6.66500 269.000
6.68000 264.000
6.69500 278.000
6.71000 264.000
6.72500 244.000
6.74000 236.000
6.75500 244.000
6.77000 259.000
6.78500 260.000
6.80000 270.000
6.81500 282.000
6.83000 281.000
6.84500 264.000
6.86000 248.000
6.87500 242.000
6.89000 265.000
6.90500 258.000
6.92000 261.000
6.93500 261.000
6.95000 262.000
6.96500 254.000
6.98000 232.000
6.99500 261.000
7.01000 270.000
7.02500 256.000
7.04000 277.000
7.05500 279.000
7.07000 272.000
7.08500 286.000
7.10000 275.000
7.11500 261.000
7.13000 242.000
7.14500 238.000
7.16000 230.000
7.17500 251.000
7.19000 253.000
7.20500 240.000
7.22000 284.000
7.23500 293.000
7.25000 294.000
7.26500 276.000
7.28000 265.000
7.29500 255.000
7.31000 262.000
7.32500 238.000
7.34000 293.000
7.35500 278.000
7.37000 262.000
7.38500 276.000
7.40000 271.000
7.41500 259.000
7.43000 267.000
7.44500 253.000
7.46000 262.000
7.47500 251.000
7.49000 279.000
7.50500 241.000
7.52000 270.000
7.53500 279.000
7.55000 260.000
7.56500 259.000
7.58000 285.000
7.59500 287.000
7.61000 284.000
7.62500 281.000
7.64000 269.000
7.65500 282.000
7.67000 276.000
7.68500 262.000
7.70000 269.000
7.71500 267.000
7.73000 269.000
7.74500 261.000
7.76000 268.000
7.77500 271.000
7.79000 265.000
7.80500 277.000
7.82000 277.000
7.83500 292.000
7.85000 253.000
7.86500 272.000
7.88000 304.000
7.89500 313.000
7.91000 295.000
7.92500 271.000
7.94000 276.000
7.95500 274.000
7.97000 274.000
7.98500 264.000
8.00000 293.000
8.01500 285.000
8.03000 273.000
8.04500 280.000
8.06000 305.000
8.07500 268.000
8.09000 252.000
8.10500 295.000
8.12000 281.000
8.13500 257.000
8.15000 277.000
8.16500 311.000
8.18000 287.000
8.19500 290.000
8.21000 296.000
8.22500 279.000
8.24000 265.000
8.25500 266.000
8.27000 272.000
8.28500 260.000
8.30000 271.000
8.31500 286.000
8.33000 288.000
8.34500 280.000
8.36000 255.000
8.37500 275.000
8.39000 277.000
8.40500 280.000
8.42000 256.000
8.43500 291.000
8.45000 274.000
8.46500 261.000
8.48000 257.000
8.49500 305.000
8.51000 301.000
8.52500 303.000
8.54000 289.000
8.55500 271.000
8.57000 294.000
8.58500 302.000
8.60000 295.000
8.61500 300.000
8.63000 304.000
8.64500 286.000
8.66000 290.000
8.67500 273.000
8.69000 304.000
8.70500 283.000
8.72000 290.000
8.73500 286.000
8.75000 288.000
8.76500 292.000
8.78000 269.000
8.79500 287.000
8.81000 271.000
8.82500 253.000
8.84000 307.000
8.85500 306.000
8.87000 294.000
8.88500 296.000
8.90000 283.000
8.91500 292.000
8.93000 296.000
8.94500 298.000
8.96000 292.000
8.97500 281.000
8.99000 283.000
9.00500 281.000
9.02000 299.000
9.03500 269.000
9.05000 267.000
9.06500 287.000
9.08000 283.000
9.09500 272.000
9.11000 274.000
9.12500 287.000
9.14000 285.000
9.15500 282.000
9.17000 311.000
9.18500 274.000
9.20000 287.000
9.21500 307.000
9.23000 262.000
9.24500 286.000
9.26000 300.000
9.27500 299.000
9.29000 298.000
9.30500 247.000
9.32000 283.000
9.33500 320.000
9.35000 296.000
9.36500 294.000
9.38000 296.000
9.39500 318.000
9.41000 294.000
9.42500 309.000
9.44000 279.000
9.45500 279.000
9.47000 266.000
9.48500 272.000
9.50000 296.000
9.51500 291.000
9.53000 277.000
9.54500 297.000
9.56000 288.000
9.57500 293.000
9.59000 293.000
9.60500 299.000
9.62000 284.000
9.63500 287.000
9.65000 289.000
9.66500 293.000
9.68000 292.000
9.69500 294.000
9.71000 312.000
9.72500 313.000
9.74000 322.000
9.75500 306.000
9.77000 295.000
9.78500 290.000
9.80000 302.000
9.81500 292.000
9.83000 269.000
9.84500 295.000
9.86000 294.000
9.87500 300.000
9.89000 272.000
9.90500 270.000
9.92000 293.000
9.93500 285.000
9.95000 311.000
9.96500 306.000
9.98000 270.000
9.99500 270.000
10.01000 296.000
10.02500 283.000
10.04000 298.000
10.05500 323.000
10.07000 310.000
10.08500 314.000
10.10000 299.000
10.11500 315.000
10.13000 310.000
10.14500 311.000
10.16000 318.000
10.17500 302.000
10.19000 292.000
10.20500 272.000
10.22000 308.000
10.23500 299.000
10.25000 287.000
10.26500 292.000
10.28000 298.000
10.29500 281.000
10.31000 268.000
10.32500 278.000
10.34000 266.000
10.35500 279.000
10.37000 268.000
10.38500 334.000
10.40000 302.000
10.41500 304.000
10.43000 291.000
10.44500 285.000
10.46000 270.000
10.47500 315.000
10.49000 320.000
10.50500 291.000
10.52000 281.000
10.53500 291.000
10.55000 285.000
10.56500 308.000
10.58000 299.000
10.59500 274.000
10.61000 278.000
10.62500 271.000
10.64000 281.000
10.65500 340.000
10.67000 298.000
10.68500 292.000
10.70000 284.000
10.71500 277.000
10.73000 294.000
10.74500 303.000
10.76000 301.000
10.77500 300.000
10.79000 276.000
10.80500 302.000
10.82000 284.000
10.83500 314.000
10.85000 317.000
10.86500 300.000
10.88000 308.000
10.89500 299.000
10.91000 275.000
10.92500 290.000
10.94000 257.000
10.95500 281.000
10.97000 267.000
10.98500 289.000
11.00000 303.000
11.01500 294.000
11.03000 315.000
11.04500 293.000
11.06000 282.000
11.07500 291.000
11.09000 330.000
11.10500 298.000
11.12000 311.000
11.13500 309.000
11.15000 284.000
11.16500 292.000
11.18000 317.000
11.19500 308.000
11.21000 295.000
11.22500 291.000
11.24000 305.000
11.25500 300.000
11.27000 312.000
11.28500 304.000
11.30000 315.000
11.31500 309.000
11.33000 284.000
11.34500 296.000
11.36000 295.000
11.37500 319.000
11.39000 325.000
11.40500 317.000
11.42000 307.000
11.43500 304.000
11.45000 295.000
11.46500 293.000
11.48000 273.000
11.49500 303.000
11.51000 298.000
11.52500 327.000
11.54000 308.000
11.55500 290.000
11.57000 313.000
11.58500 320.000
11.60000 326.000
11.61500 311.000
11.63000 283.000
11.64500 299.000
11.66000 311.000
11.67500 317.000
11.69000 281.000
11.70500 306.000
11.72000 317.000
11.73500 316.000
11.75000 333.000
11.76500 312.000
11.78000 291.000
11.79500 322.000
11.81000 323.000
11.82500 343.000
11.84000 344.000
11.85500 331.000
11.87000 331.000
11.88500 382.000
11.90000 388.000
11.91500 409.000
11.93000 410.000
11.94500 448.000
11.96000 485.000
11.97500 506.000
11.99000 558.000
12.00500 678.000
12.02000 784.000
12.03500 925.000
12.05000 1051.000
12.06500 1286.000
12.08000 1600.000
12.09500 2062.000
12.11000 2323.000
12.12500 2304.000
12.14000 2412.000
12.15500 2851.000
12.17000 3373.000
12.18500 4013.000
12.20000 4976.000
12.21500 6420.000
12.23000 8313.000
12.24500 10450.000
12.26000 13018.000
12.27500 14124.000
12.29000 10981.000
12.30500 6061.000
12.32000 2579.000
12.33500 1218.000
12.35000 775.000
12.36500 543.000
12.38000 498.000
12.39500 451.000
12.41000 405.000
12.42500 396.000
12.44000 408.000
12.45500 409.000
12.47000 397.000
12.48500 410.000
12.50000 391.000
12.51500 418.000
12.53000 414.000
12.54500 409.000
12.56000 420.000
12.57500 399.000
12.59000 397.000
12.60500 359.000
12.62000 336.000
12.63500 359.000
12.65000 338.000
12.66500 330.000
12.68000 327.000
12.69500 303.000
12.71000 338.000
12.72500 324.000
12.74000 294.000
12.75500 311.000
12.77000 320.000
12.78500 317.000
12.80000 303.000
12.81500 316.000
12.83000 314.000
12.84500 317.000
12.86000 304.000
12.87500 333.000
12.89000 334.000
12.90500 283.000
12.92000 294.000
12.93500 315.000
12.95000 319.000
12.96500 305.000
12.98000 348.000
12.99500 321.000
13.01000 319.000
13.02500 350.000
13.04000 481.000
13.05500 545.000
13.07000 385.000
13.08500 312.000
13.10000 339.000
13.11500 370.000
13.13000 393.000
13.14500 390.000
13.16000 323.000
13.17500 343.000
13.19000 365.000
13.20500 363.000
13.22000 379.000
13.23500 390.000
13.25000 389.000
13.26500 437.000
13.28000 495.000
13.29500 528.000
13.31000 597.000
13.32500 685.000
13.34000 775.000
13.35500 933.000
13.37000 1078.000
13.38500 1303.000
13.40000 1691.000
13.41500 2049.000
13.43000 2548.000
13.44500 2744.000
13.46000 2399.000
13.47500 1622.000
13.49000 875.000
13.50500 534.000
13.52000 435.000
13.53500 389.000
13.55000 379.000
13.56500 332.000
13.58000 334.000
13.59500 332.000
13.61000 332.000
13.62500 322.000
13.64000 338.000
13.65500 383.000
13.67000 378.000
13.68500 339.000
13.70000 390.000
13.71500 385.000
13.73000 415.000
13.74500 410.000
13.76000 440.000
13.77500 435.000
13.79000 420.000
13.80500 411.000
13.82000 386.000
13.83500 409.000
13.85000 367.000
13.86500 334.000
13.88000 325.000
13.89500 295.000
13.91000 303.000
13.92500 326.000
13.94000 328.000
13.95500 313.000
13.97000 305.000
13.98500 321.000
14.00000 314.000
14.01500 326.000
14.03000 330.000
14.04500 336.000
14.06000 309.000
14.07500 298.000
14.09000 285.000
14.10500 299.000
14.12000 301.000
14.13500 328.000
14.15000 315.000
14.16500 313.000
14.18000 311.000
14.19500 309.000
14.21000 292.000
14.22500 298.000
14.24000 315.000
14.25500 301.000
14.27000 306.000
14.28500 304.000
14.30000 306.000
14.31500 314.000
14.33000 286.000
14.34500 314.000
14.36000 333.000
14.37500 297.000
14.39000 282.000
14.40500 288.000
14.42000 293.000
14.43500 316.000
14.45000 312.000
14.46500 310.000
14.48000 323.000
14.49500 313.000
14.51000 305.000
14.52500 311.000
14.54000 302.000
14.55500 279.000
14.57000 279.000
14.58500 302.000
14.60000 296.000
14.61500 297.000
14.63000 302.000
14.64500 317.000
14.66000 298.000
14.67500 304.000
14.69000 304.000
14.70500 322.000
14.72000 308.000
14.73500 308.000
14.75000 295.000
14.76500 296.000
14.78000 291.000
14.79500 295.000
14.81000 291.000
14.82500 275.000
14.84000 299.000
14.85500 273.000
14.87000 294.000
14.88500 315.000
14.90000 306.000
14.91500 297.000
14.93000 300.000
14.94500 312.000
14.96000 290.000
14.97500 281.000
14.99000 312.000
15.00500 321.000
15.02000 306.000
15.03500 312.000
15.05000 327.000
15.06500 308.000
15.08000 308.000
15.09500 293.000
15.11000 269.000
15.12500 310.000
15.14000 288.000
15.15500 305.000
15.17000 301.000
15.18500 295.000
15.20000 325.000
15.21500 316.000
15.23000 309.000
15.24500 282.000
15.26000 305.000
15.27500 307.000
15.29000 295.000
15.30500 307.000
15.32000 297.000
15.33500 318.000
15.35000 308.000
15.36500 290.000
15.38000 304.000
15.39500 319.000
15.41000 297.000
15.42500 279.000
15.44000 284.000
15.45500 304.000
15.47000 330.000
15.48500 337.000
15.50000 333.000
15.51500 279.000
15.53000 299.000
15.54500 315.000
15.56000 306.000
15.57500 301.000
15.59000 305.000
15.60500 299.000
15.62000 287.000
15.63500 298.000
15.65000 289.000
15.66500 292.000
15.68000 300.000
15.69500 292.000
15.71000 295.000
15.72500 287.000
15.74000 300.000
15.75500 304.000
15.77000 295.000
15.78500 309.000
15.80000 294.000
15.81500 302.000
15.83000 298.000
15.84500 335.000
15.86000 315.000
15.87500 301.000
15.89000 309.000
15.90500 310.000
15.92000 322.000
15.93500 311.000
15.95000 321.000
15.96500 316.000
15.98000 322.000
15.99500 284.000
16.01000 311.000
16.02500 295.000
16.04000 282.000
16.05500 307.000
16.07000 303.000
16.08500 294.000
16.10000 311.000
16.11500 311.000
16.13000 312.000
16.14500 296.000
16.16000 347.000
16.17500 319.000
16.19000 299.000
16.20500 306.000
16.22000 346.000
16.23500 339.000
16.25000 350.000
16.26500 351.000
16.28000 355.000
16.29500 384.000
16.31000 389.000
16.32500 425.000
16.34000 469.000
16.35500 530.000
16.37000 535.000
16.38500 631.000
16.40000 797.000
16.41500 942.000
16.43000 1001.000
16.44500 974.000
16.46000 933.000
16.47500 894.000
16.49000 850.000
16.50500 780.000
16.52000 628.000
16.53500 512.000
16.55000 415.000
16.56500 365.000
16.58000 384.000
16.59500 361.000
16.61000 336.000
16.62500 329.000
16.64000 347.000
16.65500 330.000
16.67000 319.000
16.68500 318.000
16.70000 340.000
16.71500 356.000
16.73000 343.000
16.74500 336.000
16.76000 356.000
16.77500 336.000
16.79000 352.000
16.80500 367.000
16.82000 366.000
16.83500 414.000
16.85000 427.000
16.86500 438.000
16.88000 523.000
16.89500 559.000
16.91000 664.000
16.92500 768.000
16.94000 844.000
16.95500 829.000
16.97000 620.000
16.98500 458.000
17.00000 365.000
17.01500 367.000
17.03000 323.000
17.04500 335.000
17.06000 309.000
17.07500 306.000
17.09000 288.000
17.10500 320.000
17.12000 296.000
17.13500 330.000
17.15000 315.000
17.16500 307.000
17.18000 308.000
17.19500 327.000
17.21000 305.000
17.22500 300.000
17.24000 326.000
17.25500 311.000
17.27000 282.000
17.28500 308.000
17.30000 284.000
17.31500 310.000
17.33000 319.000
17.34500 300.000
17.36000 318.000
17.37500 316.000
17.39000 313.000
17.40500 287.000
17.42000 301.000
17.43500 322.000
17.45000 319.000
17.46500 300.000
17.48000 293.000
17.49500 320.000
17.51000 305.000
17.52500 314.000
17.54000 301.000
17.55500 299.000
17.57000 314.000
17.58500 312.000
17.60000 289.000
17.61500 295.000
17.63000 328.000
17.64500 332.000
17.66000 310.000
17.67500 320.000
17.69000 314.000
17.70500 322.000
17.72000 316.000
17.73500 320.000
17.75000 313.000
17.76500 311.000
17.78000 306.000
17.79500 301.000
17.81000 307.000
17.82500 341.000
17.84000 326.000
17.85500 328.000
17.87000 312.000
17.88500 319.000
17.90000 364.000
17.91500 372.000
17.93000 364.000
17.94500 380.000
17.96000 440.000
17.97500 482.000
17.99000 519.000
18.00500 568.000
18.02000 679.000
18.03500 862.000
18.05000 1004.000
18.06500 1215.000
18.08000 1311.000
18.09500 1043.000
18.11000 742.000
18.12500 541.000
18.14000 425.000
18.15500 357.000
18.17000 368.000
18.18500 321.000
18.20000 323.000
18.21500 306.000
18.23000 337.000
18.24500 327.000
18.26000 330.000
18.27500 298.000
18.29000 327.000
18.30500 326.000
18.32000 303.000
18.33500 306.000
18.35000 320.000
18.36500 353.000
18.38000 311.000
18.39500 329.000
18.41000 335.000
18.42500 318.000
18.44000 326.000
18.45500 333.000
18.47000 323.000
18.48500 318.000
18.50000 306.000
18.51500 326.000
18.53000 299.000
18.54500 318.000
18.56000 312.000
18.57500 303.000
18.59000 293.000
18.60500 304.000
18.62000 313.000
18.63500 311.000
18.65000 344.000
18.66500 323.000
18.68000 343.000
18.69500 352.000
18.71000 332.000
18.72500 329.000
18.74000 321.000
18.75500 318.000
18.77000 307.000
18.78500 311.000
18.80000 319.000
18.81500 310.000
18.83000 316.000
18.84500 306.000
18.86000 328.000
18.87500 307.000
18.89000 307.000
18.90500 320.000
18.92000 314.000
18.93500 328.000
18.95000 322.000
18.96500 293.000
18.98000 275.000
18.99500 287.000
19.01000 285.000
19.02500 301.000
19.04000 297.000
19.05500 321.000
19.07000 305.000
19.08500 297.000
19.10000 316.000
19.11500 313.000
19.13000 344.000
19.14500 338.000
19.16000 347.000
19.17500 343.000
19.19000 318.000
19.20500 313.000
19.22000 327.000
19.23500 363.000
19.25000 366.000
19.26500 380.000
19.28000 409.000
19.29500 419.000
19.31000 430.000
19.32500 462.000
19.34000 550.000
19.35500 637.000
19.37000 726.000
19.38500 813.000
19.40000 1031.000
19.41500 1232.000
19.43000 1503.000
19.44500 1774.000
19.46000 1946.000
19.47500 1689.000
19.49000 1331.000
19.50500 891.000
19.52000 686.000
19.53500 638.000
19.55000 646.000
19.56500 701.000
19.58000 842.000
19.59500 994.000
19.61000 1255.000
19.62500 1519.000
19.64000 1764.000
19.65500 1648.000
19.67000 1121.000
19.68500 704.000
19.70000 491.000
19.71500 421.000
19.73000 391.000
19.74500 341.000
19.76000 349.000
19.77500 340.000
19.79000 336.000
19.80500 338.000
19.82000 356.000
19.83500 331.000
19.85000 327.000
19.86500 303.000
19.88000 315.000
19.89500 336.000
19.91000 326.000
19.92500 327.000
19.94000 325.000
19.95500 315.000
19.97000 325.000
19.98500 322.000
20.00000 299.000
20.01500 310.000
20.03000 303.000
20.04500 307.000
20.06000 303.000
20.07500 334.000
20.09000 315.000
20.10500 304.000
20.12000 336.000
20.13500 321.000
20.15000 283.000
20.16500 303.000
20.18000 314.000
20.19500 300.000
20.21000 286.000
20.22500 312.000
20.24000 321.000
20.25500 327.000
20.27000 308.000
20.28500 314.000
20.30000 287.000
20.31500 310.000
20.33000 322.000
20.34500 303.000
20.36000 315.000
20.37500 298.000
20.39000 309.000
20.40500 317.000
20.42000 329.000
20.43500 335.000
20.45000 331.000
20.46500 349.000
20.48000 356.000
20.49500 339.000
20.51000 341.000
20.52500 386.000
20.54000 413.000
20.55500 409.000
20.57000 429.000
20.58500 480.000
20.60000 515.000
20.61500 517.000
20.63000 485.000
20.64500 432.000
20.66000 406.000
20.67500 360.000
20.69000 360.000
20.70500 335.000
20.72000 326.000
20.73500 331.000
20.75000 319.000
20.76500 331.000
20.78000 288.000
20.79500 310.000
20.81000 329.000
20.82500 314.000
20.84000 320.000
20.85500 301.000
20.87000 333.000
20.88500 305.000
20.90000 314.000
20.91500 298.000
20.93000 300.000
20.94500 331.000
20.96000 308.000
20.97500 303.000
20.99000 300.000
21.00500 341.000
21.02000 345.000
21.03500 338.000
21.05000 310.000
21.06500 285.000
21.08000 319.000
21.09500 336.000
21.11000 341.000
21.12500 341.000
21.14000 340.000
21.15500 325.000
21.17000 316.000
21.18500 328.000
21.20000 315.000
21.21500 310.000
21.23000 302.000
21.24500 309.000
21.26000 296.000
21.27500 317.000
21.29000 292.000
21.30500 350.000
21.32000 328.000
21.33500 333.000
21.35000 334.000
21.36500 322.000
21.38000 310.000
21.39500 343.000
21.41000 307.000
21.42500 320.000
21.44000 341.000
21.45500 339.000
21.47000 338.000
21.48500 333.000
21.50000 327.000
21.51500 363.000
21.53000 380.000
21.54500 392.000
21.56000 444.000
21.57500 463.000
21.59000 540.000
21.60500 609.000
21.62000 694.000
21.63500 794.000
21.65000 957.000
21.66500 1083.000
21.68000 1223.000
21.69500 1345.000
21.71000 1283.000
21.72500 1041.000
21.74000 728.000
21.75500 549.000
21.77000 471.000
21.78500 409.000
21.80000 387.000
21.81500 393.000
21.83000 399.000
21.84500 396.000
21.86000 403.000
21.87500 396.000
21.89000 378.000
21.90500 368.000
21.92000 353.000
21.93500 366.000
21.95000 351.000
21.96500 341.000
21.98000 361.000
21.99500 361.000
22.01000 373.000
22.02500 383.000
22.04000 367.000
22.05500 326.000
22.07000 357.000
22.08500 379.000
22.10000 383.000
22.11500 408.000
22.13000 421.000
22.14500 465.000
22.16000 521.000
22.17500 613.000
22.19000 702.000
22.20500 801.000
22.22000 711.000
22.23500 600.000
22.25000 462.000
22.26500 342.000
22.28000 357.000
22.29500 352.000
22.31000 351.000
22.32500 359.000
22.34000 331.000
22.35500 304.000
22.37000 334.000
22.38500 329.000
22.40000 342.000
22.41500 322.000
22.43000 333.000
22.44500 287.000
22.46000 330.000
22.47500 318.000
22.49000 318.000
22.50500 348.000
22.52000 322.000
22.53500 328.000
22.55000 318.000
22.56500 350.000
22.58000 325.000
22.59500 306.000
22.61000 328.000
22.62500 342.000
22.64000 307.000
22.65500 322.000
22.67000 320.000
22.68500 319.000
22.70000 315.000
22.71500 333.000
22.73000 328.000
22.74500 344.000
22.76000 332.000
22.77500 309.000
22.79000 302.000
22.80500 328.000
22.82000 317.000
22.83500 321.000
22.85000 317.000
22.86500 311.000
22.88000 331.000
22.89500 359.000
22.91000 329.000
22.92500 318.000
22.94000 326.000
22.95500 300.000
22.97000 316.000
22.98500 311.000
23.00000 325.000
23.01500 314.000
23.03000 310.000
23.04500 321.000
23.06000 322.000
23.07500 319.000
23.09000 336.000
23.10500 321.000
23.12000 299.000
23.13500 317.000
23.15000 333.000
23.16500 328.000
23.18000 310.000
23.19500 306.000
23.21000 322.000
23.22500 340.000
23.24000 338.000
23.25500 295.000
23.27000 315.000
23.28500 312.000
23.30000 306.000
23.31500 315.000
23.33000 309.000
23.34500 322.000
23.36000 315.000
23.37500 331.000
23.39000 342.000
23.40500 322.000
23.42000 299.000
23.43500 322.000
23.45000 315.000
23.46500 323.000
23.48000 312.000
23.49500 319.000
23.51000 313.000
23.52500 320.000
23.54000 311.000
23.55500 295.000
23.57000 306.000
23.58500 305.000
23.60000 299.000
23.61500 324.000
23.63000 331.000
23.64500 318.000
23.66000 317.000
23.67500 300.000
23.69000 335.000
23.70500 342.000
23.72000 343.000
23.73500 353.000
23.75000 329.000
23.76500 305.000
23.78000 335.000
23.79500 370.000
23.81000 360.000
23.82500 346.000
23.84000 374.000
23.85500 397.000
23.87000 403.000
23.88500 434.000
23.90000 457.000
23.91500 487.000
23.93000 548.000
23.94500 606.000
23.96000 669.000
23.97500 695.000
23.99000 622.000
24.00500 483.000
24.02000 416.000
24.03500 403.000
24.05000 366.000
24.06500 358.000
24.08000 354.000
24.09500 348.000
24.11000 332.000
24.12500 349.000
24.14000 334.000
24.15500 346.000
24.17000 351.000
24.18500 357.000
24.20000 371.000
24.21500 375.000
24.23000 362.000
24.24500 393.000
24.26000 428.000
24.27500 455.000
24.29000 474.000
24.30500 550.000
24.32000 626.000
24.33500 682.000
24.35000 627.000
24.36500 604.000
24.38000 475.000
24.39500 406.000
24.41000 419.000
24.42500 380.000
24.44000 348.000
24.45500 332.000
24.47000 331.000
24.48500 328.000
24.50000 357.000
24.51500 321.000
24.53000 366.000
24.54500 364.000
24.56000 391.000
24.57500 431.000
24.59000 432.000
24.60500 462.000
24.62000 519.000
24.63500 581.000
24.65000 612.000
24.66500 685.000
24.68000 784.000
24.69500 836.000
24.71000 771.000
24.72500 639.000
24.74000 485.000
24.75500 385.000
24.77000 367.000
24.78500 386.000
24.80000 369.000
24.81500 356.000
24.83000 360.000
24.84500 350.000
24.86000 359.000
24.87500 332.000
24.89000 363.000
24.90500 357.000
24.92000 366.000
24.93500 350.000
24.95000 343.000
24.96500 362.000
24.98000 356.000
24.99500 381.000
25.01000 394.000
25.02500 392.000
25.04000 408.000
25.05500 419.000
25.07000 459.000
25.08500 470.000
25.10000 491.000
25.11500 479.000
25.13000 468.000
25.14500 478.000
25.16000 494.000
25.17500 481.000
25.19000 488.000
25.20500 480.000
25.22000 468.000
25.23500 472.000
25.25000 462.000
25.26500 418.000
25.28000 410.000
25.29500 428.000
25.31000 422.000
25.32500 402.000
25.34000 395.000
25.35500 385.000
25.37000 412.000
25.38500 422.000
25.40000 428.000
25.41500 441.000
25.43000 444.000
25.44500 493.000
25.46000 574.000
25.47500 564.000
25.49000 551.000
25.50500 560.000
25.52000 528.000
25.53500 513.000
25.55000 540.000
25.56500 596.000
25.58000 643.000
25.59500 707.000
25.61000 845.000
25.62500 993.000
25.64000 1168.000
25.65500 1456.000
25.67000 1820.000
25.68500 2292.000
25.70000 2994.000
25.71500 3857.000
25.73000 4774.000
25.74500 5372.000
25.76000 5376.000
25.77500 4384.000
25.79000 3317.000
25.80500 2354.000
25.82000 1617.000
25.83500 1314.000
25.85000 1004.000
25.86500 797.000
25.88000 739.000
25.89500 625.000
25.91000 597.000
25.92500 508.000
25.94000 472.000
25.95500 489.000
25.97000 472.000
25.98500 467.000
26.00000 450.000
26.01500 482.000
26.03000 455.000
26.04500 456.000
26.06000 454.000
26.07500 471.000
26.09000 507.000
26.10500 596.000
26.12000 629.000
26.13500 698.000
26.15000 870.000
26.16500 1061.000
26.18000 1342.000
26.19500 1728.000
26.21000 2254.000
26.22500 3004.000
26.24000 3705.000
26.25500 4614.000
26.27000 4958.000
26.28500 4425.000
26.30000 3309.000
26.31500 2204.000
26.33000 1463.000
26.34500 1098.000
26.36000 881.000
26.37500 765.000
26.39000 653.000
26.40500 643.000
26.42000 578.000
26.43500 627.000
26.45000 665.000
26.46500 698.000
26.48000 726.000
26.49500 722.000
26.51000 634.000
26.52500 522.000
26.54000 472.000
26.55500 447.000
26.57000 391.000
26.58500 398.000
26.60000 374.000
26.61500 368.000
26.63000 345.000
26.64500 334.000
26.66000 332.000
26.67500 336.000
26.69000 330.000
26.70500 324.000
26.72000 356.000
26.73500 354.000
26.75000 373.000
26.76500 326.000
26.78000 343.000
26.79500 367.000
26.81000 356.000
26.82500 338.000
26.84000 381.000
26.85500 362.000
26.87000 352.000
26.88500 383.000
26.90000 370.000
26.91500 392.000
26.93000 428.000
26.94500 406.000
26.96000 440.000
26.97500 500.000
26.99000 553.000
27.00500 621.000
27.02000 698.000
27.03500 765.000
27.05000 850.000
27.06500 1012.000
27.08000 1089.000
27.09500 1053.000
27.11000 955.000
27.12500 721.000
27.14000 552.000
27.15500 491.000
27.17000 467.000
27.18500 439.000
27.20000 434.000
27.21500 411.000
27.23000 400.000
27.24500 406.000
27.26000 395.000
27.27500 394.000
27.29000 369.000
27.30500 352.000
27.32000 373.000
27.33500 390.000
27.35000 383.000
27.36500 382.000
27.38000 393.000
27.39500 380.000
27.41000 405.000
27.42500 386.000
27.44000 411.000
27.45500 401.000
27.47000 399.000
27.48500 409.000
27.50000 432.000
27.51500 463.000
27.53000 486.000
27.54500 563.000
27.56000 602.000
27.57500 652.000
27.59000 705.000
27.60500 757.000
27.62000 865.000
27.63500 1094.000
27.65000 1339.000
27.66500 1554.000
27.68000 1935.000
27.69500 2545.000
27.71000 3274.000
27.72500 4183.000
27.74000 5351.000
27.75500 6803.000
27.77000 8133.000
27.78500 9027.000
27.80000 8133.000
27.81500 6373.000
27.83000 4264.000
27.84500 2867.000
27.86000 2032.000
27.87500 1491.000
27.89000 1177.000
27.90500 902.000
27.92000 745.000
27.93500 648.000
27.95000 571.000
27.96500 507.000
27.98000 517.000
27.99500 478.000
28.01000 470.000
28.02500 451.000
28.04000 406.000
28.05500 378.000
28.07000 385.000
28.08500 371.000
28.10000 365.000
28.11500 382.000
28.13000 328.000
28.14500 353.000
28.16000 329.000
28.17500 360.000
28.19000 353.000
28.20500 344.000
28.22000 321.000
28.23500 332.000
28.25000 336.000
28.26500 332.000
28.28000 341.000
28.29500 358.000
28.31000 359.000
28.32500 371.000
28.34000 416.000
28.35500 509.000
28.37000 484.000
28.38500 547.000
28.40000 594.000
28.41500 510.000
28.43000 449.000
28.44500 413.000
28.46000 381.000
28.47500 338.000
28.49000 366.000
28.50500 323.000
28.52000 294.000
28.53500 296.000
28.55000 293.000
28.56500 279.000
28.58000 266.000
28.59500 290.000
28.61000 327.000
28.62500 300.000
28.64000 306.000
28.65500 307.000
28.67000 296.000
28.68500 282.000
28.70000 299.000
28.71500 306.000
28.73000 292.000
28.74500 294.000
28.76000 270.000
28.77500 305.000
28.79000 287.000
28.80500 309.000
28.82000 283.000
28.83500 255.000
28.85000 285.000
28.86500 317.000
28.88000 305.000
28.89500 268.000
28.91000 281.000
28.92500 303.000
28.94000 339.000
28.95500 339.000
28.97000 342.000
28.98500 345.000
29.00000 390.000
29.01500 396.000
29.03000 404.000
29.04500 446.000
29.06000 406.000
29.07500 356.000
29.09000 297.000
29.10500 285.000
29.12000 302.000
29.13500 286.000
29.15000 298.000
29.16500 288.000
29.18000 322.000
29.19500 316.000
29.21000 293.000
29.22500 287.000
29.24000 265.000
29.25500 292.000
29.27000 281.000
29.28500 269.000
29.30000 276.000
29.31500 272.000
29.33000 294.000
29.34500 286.000
29.36000 284.000
29.37500 300.000
29.39000 291.000
29.40500 293.000
29.42000 301.000
29.43500 294.000
29.45000 307.000
29.46500 314.000
29.48000 308.000
29.49500 313.000
29.51000 299.000
29.52500 306.000
29.54000 347.000
29.55500 331.000
29.57000 328.000
29.58500 339.000
29.60000 366.000
29.61500 352.000
29.63000 375.000
29.64500 396.000
29.66000 359.000
29.67500 335.000
29.69000 323.000
29.70500 295.000
29.72000 319.000
29.73500 342.000
29.75000 279.000
29.76500 267.000
29.78000 308.000
29.79500 314.000
29.81000 299.000
29.82500 283.000
29.84000 268.000
29.85500 283.000
29.87000 324.000
29.88500 321.000
29.90000 324.000
29.91500 318.000
29.93000 344.000
29.94500 348.000
29.96000 373.000
29.97500 369.000
29.99000 413.000
30.00500 459.000
30.02000 514.000
30.03500 617.000
30.05000 702.000
30.06500 829.000
30.08000 976.000
30.09500 1217.000
30.11000 1504.000
30.12500 1686.000
30.14000 1665.000
30.15500 1415.000
30.17000 1069.000
30.18500 755.000
30.20000 508.000
30.21500 420.000
30.23000 393.000
30.24500 355.000
30.26000 329.000
30.27500 311.000
30.29000 317.000
30.30500 327.000
30.32000 355.000
30.33500 407.000
30.35000 414.000
30.36500 343.000
30.38000 345.000
30.39500 337.000
30.41000 322.000
30.42500 320.000
30.44000 309.000
30.45500 307.000
30.47000 321.000
30.48500 322.000
30.50000 305.000
30.51500 303.000
30.53000 307.000
30.54500 303.000
30.56000 331.000
30.57500 351.000
30.59000 312.000
30.60500 344.000
30.62000 384.000
30.63500 369.000
30.65000 387.000
30.66500 439.000
30.68000 447.000
30.69500 512.000
30.71000 618.000
30.72500 690.000
30.74000 788.000
30.75500 924.000
30.77000 1107.000
30.78500 1345.000
30.80000 1439.000
30.81500 1329.000
30.83000 1125.000
30.84500 917.000
30.86000 662.000
30.87500 555.000
30.89000 485.000
30.90500 432.000
30.92000 369.000
30.93500 359.000
30.95000 349.000
30.96500 338.000
30.98000 338.000
30.99500 317.000
31.01000 309.000
31.02500 289.000
31.04000 309.000
31.05500 312.000
31.07000 284.000
31.08500 294.000
31.10000 316.000
31.11500 294.000
31.13000 274.000
31.14500 301.000
31.16000 304.000
31.17500 290.000
31.19000 292.000
31.20500 287.000
31.22000 294.000
31.23500 249.000
31.25000 268.000
31.26500 264.000
31.28000 280.000
31.29500 251.000
31.31000 251.000
31.32500 280.000
31.34000 270.000
31.35500 252.000
31.37000 254.000
31.38500 255.000
31.40000 259.000
31.41500 248.000
31.43000 258.000
31.44500 278.000
31.46000 292.000
31.47500 288.000
31.49000 267.000
31.50500 260.000
31.52000 281.000
31.53500 291.000
31.55000 265.000
31.56500 275.000
31.58000 302.000
31.59500 343.000
31.61000 454.000
31.62500 501.000
31.64000 573.000
31.65500 770.000
31.67000 892.000
31.68500 856.000
31.70000 756.000
31.71500 708.000
31.73000 624.000
31.74500 499.000
31.76000 454.000
31.77500 378.000
31.79000 324.000
31.80500 352.000
31.82000 340.000
31.83500 315.000
31.85000 324.000
31.86500 304.000
31.88000 318.000
31.89500 306.000
31.91000 325.000
31.92500 335.000
31.94000 307.000
31.95500 280.000
31.97000 297.000
31.98500 294.000
32.00000 331.000
32.01500 342.000
32.03000 339.000
32.04500 360.000
32.06000 421.000
32.07500 482.000
32.09000 543.000
32.10500 547.000
32.12000 539.000
32.13500 494.000
32.15000 377.000
32.16500 322.000
32.18000 303.000
32.19500 303.000
32.21000 275.000
32.22500 247.000
32.24000 247.000
32.25500 270.000
32.27000 263.000
32.28500 250.000
32.30000 240.000
32.31500 251.000
32.33000 227.000
32.34500 226.000
32.36000 234.000
32.37500 232.000
32.39000 236.000
32.40500 250.000
32.42000 238.000
32.43500 268.000
32.45000 265.000
32.46500 211.000
32.48000 223.000
32.49500 260.000
32.51000 251.000
32.52500 246.000
32.54000 251.000
32.55500 248.000
32.57000 237.000
32.58500 215.000
32.60000 232.000
32.61500 243.000
32.63000 243.000
32.64500 247.000
32.66000 236.000
32.67500 234.000
32.69000 203.000
32.70500 217.000
32.72000 260.000
32.73500 250.000
32.75000 232.000
32.76500 229.000
32.78000 232.000
32.79500 236.000
32.81000 225.000
32.82500 210.000
32.84000 221.000
32.85500 221.000
32.87000 225.000
32.88500 241.000
32.90000 257.000
32.91500 223.000
32.93000 224.000
32.94500 242.000
32.96000 252.000
32.97500 246.000
32.99000 246.000
33.00500 218.000
33.02000 235.000
33.03500 232.000
33.05000 221.000
33.06500 232.000
33.08000 248.000
33.09500 242.000
33.11000 284.000
33.12500 268.000
33.14000 275.000
33.15500 323.000
33.17000 325.000
33.18500 333.000
33.20000 369.000
33.21500 401.000
33.23000 357.000
33.24500 310.000
33.26000 288.000
33.27500 276.000
33.29000 254.000
33.30500 244.000
33.32000 286.000
33.33500 281.000
33.35000 338.000
33.36500 326.000
33.38000 357.000
33.39500 373.000
33.41000 336.000
33.42500 293.000
33.44000 281.000
33.45500 277.000
33.47000 286.000
33.48500 327.000
33.50000 346.000
33.51500 361.000
33.53000 355.000
33.54500 316.000
33.56000 311.000
33.57500 306.000
33.59000 263.000
33.60500 283.000
33.62000 283.000
33.63500 290.000
33.65000 323.000
33.66500 377.000
33.68000 414.000
33.69500 484.000
33.71000 544.000
33.72500 588.000
33.74000 601.000
33.75500 489.000
33.77000 396.000
33.78500 334.000
33.80000 295.000
33.81500 272.000
33.83000 267.000
33.84500 242.000
33.86000 238.000
33.87500 270.000
33.89000 305.000
33.90500 293.000
33.92000 314.000
33.93500 340.000
33.95000 376.000
33.96500 439.000
33.98000 467.000
33.99500 502.000
34.01000 601.000
34.02500 691.000
34.04000 727.000
34.05500 773.000
34.07000 677.000
34.08500 527.000
34.10000 434.000
34.11500 341.000
34.13000 298.000
34.14500 273.000
34.16000 258.000
34.17500 256.000
34.19000 225.000
34.20500 235.000
34.22000 246.000
34.23500 231.000
34.25000 219.000
34.26500 215.000
34.28000 222.000
34.29500 225.000
34.31000 224.000
34.32500 227.000
34.34000 235.000
34.35500 220.000
34.37000 209.000
34.38500 215.000
34.40000 207.000
34.41500 189.000
34.43000 216.000
34.44500 226.000
34.46000 218.000
34.47500 209.000
34.49000 239.000
34.50500 241.000
34.52000 245.000
34.53500 271.000
34.55000 259.000
34.56500 283.000
34.58000 291.000
34.59500 326.000
34.61000 376.000
34.62500 360.000
34.64000 424.000
34.65500 426.000
34.67000 388.000
34.68500 343.000
34.70000 303.000
34.71500 256.000
34.73000 244.000
34.74500 226.000
34.76000 224.000
34.77500 246.000
34.79000 238.000
34.80500 250.000
34.82000 235.000
34.83500 283.000
34.85000 265.000
34.86500 236.000
34.88000 288.000
34.89500 338.000
34.91000 353.000
34.92500 366.000
34.94000 419.000
34.95500 466.000
34.97000 474.000
34.98500 464.000
35.00000 382.000
35.01500 348.000
35.03000 293.000
35.04500 248.000
35.06000 265.000
35.07500 250.000
35.09000 230.000
35.10500 229.000
35.12000 213.000
35.13500 213.000
35.15000 211.000
35.16500 200.000
35.18000 213.000
35.19500 198.000
35.21000 211.000
35.22500 218.000
35.24000 222.000
35.25500 213.000
35.27000 200.000
35.28500 196.000
35.30000 216.000
35.31500 193.000
35.33000 187.000
35.34500 198.000
35.36000 195.000
35.37500 188.000
35.39000 206.000
35.40500 197.000
35.42000 198.000
35.43500 204.000
35.45000 208.000
35.46500 198.000
35.48000 196.000
35.49500 191.000
35.51000 189.000
35.52500 204.000
35.54000 200.000
35.55500 194.000
35.57000 199.000
35.58500 201.000
35.60000 194.000
35.61500 196.000
35.63000 191.000
35.64500 198.000
35.66000 222.000
35.67500 223.000
35.69000 191.000
35.70500 195.000
35.72000 230.000
35.73500 244.000
35.75000 228.000
35.76500 265.000
35.78000 265.000
35.79500 274.000
35.81000 269.000
35.82500 303.000
35.84000 265.000
35.85500 247.000
35.87000 209.000
35.88500 180.000
35.90000 187.000
35.91500 187.000
35.93000 187.000
35.94500 183.000
35.96000 198.000
35.97500 180.000
35.99000 180.000
36.00500 179.000
36.02000 196.000
36.03500 186.000
36.05000 194.000
36.06500 180.000
36.08000 186.000
36.09500 174.000
36.11000 189.000
36.12500 191.000
36.14000 185.000
36.15500 189.000
36.17000 197.000
36.18500 181.000
36.20000 177.000
36.21500 180.000
36.23000 168.000
36.24500 175.000
36.26000 162.000
36.27500 177.000
36.29000 177.000
36.30500 169.000
36.32000 175.000
36.33500 189.000
36.35000 176.000
36.36500 180.000
36.38000 165.000
36.39500 163.000
36.41000 170.000
36.42500 179.000
36.44000 176.000
36.45500 179.000
36.47000 197.000
36.48500 184.000
36.50000 182.000
36.51500 180.000
36.53000 157.000
36.54500 185.000
36.56000 177.000
36.57500 202.000
36.59000 189.000
36.60500 199.000
36.62000 167.000
36.63500 175.000
36.65000 180.000
36.66500 184.000
36.68000 189.000
36.69500 197.000
36.71000 191.000
36.72500 189.000
36.74000 184.000
36.75500 171.000
36.77000 170.000
36.78500 180.000
36.80000 185.000
36.81500 184.000
36.83000 176.000
36.84500 185.000
36.86000 185.000
36.87500 182.000
36.89000 178.000
36.90500 171.000
36.92000 177.000
36.93500 202.000
36.95000 225.000
36.96500 227.000
36.98000 227.000
36.99500 287.000
37.01000 321.000
37.02500 335.000
37.04000 381.000
37.05500 398.000
37.07000 432.000
37.08500 415.000
37.10000 369.000
37.11500 334.000
37.13000 274.000
37.14500 225.000
37.16000 200.000
37.17500 186.000
37.19000 191.000
37.20500 182.000
37.22000 197.000
37.23500 198.000
37.25000 175.000
37.26500 177.000
37.28000 187.000
37.29500 157.000
37.31000 167.000
37.32500 172.000
37.34000 173.000
37.35500 166.000
37.37000 165.000
37.38500 163.000
37.40000 174.000
37.41500 173.000
37.43000 177.000
37.44500 159.000
37.46000 167.000
37.47500 178.000
37.49000 161.000
37.50500 159.000
37.52000 167.000
37.53500 163.000
37.55000 144.000
37.56500 150.000
37.58000 182.000
37.59500 166.000
37.61000 182.000
37.62500 171.000
37.64000 160.000
37.65500 201.000
37.67000 179.000
37.68500 158.000
37.70000 163.000
37.71500 170.000
37.73000 149.000
37.74500 173.000
37.76000 181.000
37.77500 178.000
37.79000 171.000
37.80500 170.000
37.82000 164.000
37.83500 179.000
37.85000 176.000
37.86500 167.000
37.88000 180.000
37.89500 175.000
37.91000 162.000
37.92500 172.000
37.94000 167.000
37.95500 164.000
37.97000 168.000
37.98500 171.000
38.00000 167.000
38.01500 155.000
38.03000 169.000
38.04500 191.000
38.06000 173.000
38.07500 173.000
38.09000 185.000
38.10500 168.000
38.12000 164.000
38.13500 172.000
38.15000 192.000
38.16500 187.000
38.18000 198.000
38.19500 223.000
38.21000 234.000
38.22500 246.000
38.24000 283.000
38.25500 285.000
38.27000 284.000
38.28500 303.000
38.30000 332.000
38.31500 372.000
38.33000 451.000
38.34500 515.000
38.36000 426.000
38.37500 297.000
38.39000 281.000
38.40500 261.000
38.42000 221.000
38.43500 220.000
38.45000 224.000
38.46500 224.000
38.48000 191.000
38.49500 197.000
38.51000 211.000
38.52500 224.000
38.54000 212.000
38.55500 229.000
38.57000 205.000
38.58500 200.000
38.60000 200.000
38.61500 175.000
38.63000 157.000
38.64500 171.000
38.66000 177.000
38.67500 165.000
38.69000 168.000
38.70500 154.000
38.72000 168.000
38.73500 148.000
38.75000 151.000
38.76500 149.000
38.78000 168.000
38.79500 185.000
38.81000 147.000
38.82500 151.000
38.84000 172.000
38.85500 174.000
38.87000 164.000
38.88500 147.000
38.90000 164.000
38.91500 156.000
38.93000 162.000
38.94500 157.000
38.96000 164.000
38.97500 175.000
38.99000 169.000
39.00500 175.000
39.02000 174.000
39.03500 159.000
39.05000 155.000
39.06500 153.000
39.08000 178.000
39.09500 160.000
39.11000 151.000
39.12500 162.000
39.14000 161.000
39.15500 146.000
39.17000 149.000
39.18500 146.000
39.20000 152.000
39.21500 160.000
39.23000 156.000
39.24500 175.000
39.26000 165.000
39.27500 163.000
39.29000 167.000
39.30500 187.000
39.32000 173.000
39.33500 168.000
39.35000 197.000
39.36500 169.000
39.38000 159.000
39.39500 176.000
39.41000 189.000
39.42500 201.000
39.44000 193.000
39.45500 212.000
39.47000 263.000
39.48500 276.000
39.50000 265.000
39.51500 281.000
39.53000 296.000
39.54500 249.000
39.56000 238.000
39.57500 211.000
39.59000 206.000
39.60500 167.000
39.62000 167.000
39.63500 188.000
39.65000 199.000
39.66500 173.000
39.68000 183.000
39.69500 186.000
39.71000 179.000
39.72500 184.000
39.74000 195.000
39.75500 203.000
39.77000 172.000
39.78500 174.000
39.80000 185.000
39.81500 214.000
39.83000 201.000
39.84500 252.000
39.86000 269.000
39.87500 303.000
39.89000 332.000
39.90500 303.000
39.92000 286.000
39.93500 254.000
39.95000 208.000
39.96500 200.000
39.98000 204.000
39.99500 210.000
40.01000 197.000
40.02500 179.000
40.04000 174.000
40.05500 184.000
40.07000 164.000
40.08500 179.000
40.10000 154.000
40.11500 169.000
40.13000 192.000
40.14500 182.000
40.16000 173.000
40.17500 166.000
40.19000 170.000
40.20500 168.000
40.22000 176.000
40.23500 152.000
40.25000 182.000
40.26500 164.000
40.28000 148.000
40.29500 167.000
40.31000 164.000
40.32500 175.000
40.34000 185.000
40.35500 157.000
40.37000 183.000
40.38500 173.000
40.40000 173.000
40.41500 160.000
40.43000 187.000
40.44500 164.000
40.46000 180.000
40.47500 206.000
40.49000 220.000
40.50500 239.000
40.52000 273.000
40.53500 285.000
40.55000 324.000
40.56500 358.000
40.58000 399.000
40.59500 419.000
40.61000 426.000
40.62500 360.000
40.64000 296.000
40.65500 259.000
40.67000 237.000
40.68500 215.000
40.70000 213.000
40.71500 196.000
40.73000 187.000
40.74500 208.000
40.76000 199.000
40.77500 198.000
40.79000 200.000
40.80500 226.000
40.82000 243.000
40.83500 207.000
40.85000 217.000
40.86500 221.000
40.88000 228.000
40.89500 191.000
40.91000 204.000
40.92500 196.000
40.94000 209.000
40.95500 211.000
40.97000 189.000
40.98500 199.000
41.00000 201.000
41.01500 214.000
41.03000 237.000
41.04500 283.000
41.06000 302.000
41.07500 326.000
41.09000 367.000
41.10500 391.000
41.12000 412.000
41.13500 424.000
41.15000 400.000
41.16500 381.000
41.18000 312.000
41.19500 264.000
41.21000 278.000
41.22500 296.000
41.24000 315.000
41.25500 331.000
41.27000 394.000
41.28500 433.000
41.30000 441.000
41.31500 408.000
41.33000 338.000
41.34500 272.000
41.36000 234.000
41.37500 185.000
41.39000 192.000
41.40500 195.000
41.42000 186.000
41.43500 163.000
41.45000 164.000
41.46500 177.000
41.48000 155.000
41.49500 152.000
41.51000 157.000
41.52500 149.000
41.54000 153.000
41.55500 164.000
41.57000 178.000
41.58500 152.000
41.60000 169.000
41.61500 171.000
41.63000 156.000
41.64500 168.000
41.66000 175.000
41.67500 187.000
41.69000 212.000
41.70500 183.000
41.72000 196.000
41.73500 189.000
41.75000 203.000
41.76500 193.000
41.78000 169.000
41.79500 167.000
41.81000 161.000
41.82500 180.000
41.84000 176.000
41.85500 147.000
41.87000 175.000
41.88500 186.000
41.90000 205.000
41.91500 197.000
41.93000 199.000
41.94500 240.000
41.96000 255.000
41.97500 229.000
41.99000 217.000
42.00500 210.000
42.02000 205.000
42.03500 220.000
42.05000 226.000
42.06500 247.000
42.08000 268.000
42.09500 320.000
42.11000 367.000
42.12500 376.000
42.14000 422.000
42.15500 469.000
42.17000 451.000
42.18500 427.000
42.20000 402.000
42.21500 364.000
42.23000 332.000
42.24500 302.000
42.26000 261.000
42.27500 226.000
42.29000 169.000
42.30500 175.000
42.32000 176.000
42.33500 188.000
42.35000 164.000
42.36500 174.000
42.38000 168.000
42.39500 170.000
42.41000 167.000
42.42500 176.000
42.44000 167.000
42.45500 164.000
42.47000 174.000
42.48500 169.000
42.50000 169.000
42.51500 174.000
42.53000 199.000
42.54500 209.000
42.56000 228.000
42.57500 237.000
42.59000 270.000
42.60500 274.000
42.62000 304.000
42.63500 266.000
42.65000 233.000
42.66500 222.000
42.68000 211.000
42.69500 209.000
42.71000 206.000
42.72500 212.000
42.74000 191.000
42.75500 203.000
42.77000 208.000
42.78500 196.000
42.80000 197.000
42.81500 180.000
42.83000 179.000
42.84500 177.000
42.86000 163.000
42.87500 147.000
42.89000 171.000
42.90500 162.000
42.92000 168.000
42.93500 170.000
42.95000 147.000
42.96500 169.000
42.98000 178.000
42.99500 180.000
43.01000 168.000
43.02500 186.000
43.04000 194.000
43.05500 189.000
43.07000 166.000
43.08500 157.000
43.10000 174.000
43.11500 165.000
43.13000 161.000
43.14500 155.000
43.16000 156.000
43.17500 165.000
43.19000 161.000
43.20500 152.000
43.22000 159.000
43.23500 163.000
43.25000 167.000
43.26500 157.000
43.28000 161.000
43.29500 165.000
43.31000 150.000
43.32500 141.000
43.34000 151.000
43.35500 138.000
43.37000 160.000
43.38500 160.000
43.40000 166.000
43.41500 145.000
43.43000 154.000
43.44500 151.000
43.46000 159.000
43.47500 156.000
43.49000 171.000
43.50500 146.000
43.52000 159.000
43.53500 150.000
43.55000 168.000
43.56500 162.000
43.58000 156.000
43.59500 170.000
43.61000 157.000
43.62500 166.000
43.64000 162.000
43.65500 153.000
43.67000 159.000
43.68500 166.000
43.70000 178.000
43.71500 170.000
43.73000 155.000
43.74500 173.000
43.76000 171.000
43.77500 169.000
43.79000 167.000
43.80500 178.000
43.82000 193.000
43.83500 202.000
43.85000 211.000
43.86500 174.000
43.88000 173.000
43.89500 186.000
43.91000 162.000
43.92500 158.000
43.94000 155.000
43.95500 158.000
43.97000 172.000
43.98500 230.000
44.00000 233.000
44.01500 244.000
44.03000 217.000
44.04500 216.000
44.06000 210.000
44.07500 209.000
44.09000 218.000
44.10500 202.000
44.12000 210.000
44.13500 222.000
44.15000 261.000
44.16500 258.000
44.18000 290.000
44.19500 321.000
44.21000 361.000
44.22500 387.000
44.24000 386.000
44.25500 404.000
44.27000 365.000
44.28500 303.000
44.30000 262.000
44.31500 260.000
44.33000 227.000
44.34500 208.000
44.36000 198.000
44.37500 172.000
44.39000 191.000
44.40500 194.000
44.42000 194.000
44.43500 191.000
44.45000 194.000
44.46500 206.000
44.48000 206.000
44.49500 207.000
44.51000 229.000
44.52500 258.000
44.54000 257.000
44.55500 270.000
44.57000 271.000
44.58500 267.000
44.60000 253.000
44.61500 236.000
44.63000 244.000
44.64500 263.000
44.66000 244.000
44.67500 270.000
44.69000 275.000
44.70500 287.000
44.72000 290.000
44.73500 293.000
44.75000 282.000
44.76500 256.000
44.78000 226.000
44.79500 194.000
44.81000 175.000
44.82500 189.000
44.84000 179.000
44.85500 193.000
44.87000 190.000
44.88500 176.000
44.90000 181.000
44.91500 205.000
44.93000 200.000
44.94500 228.000
44.96000 243.000
44.97500 266.000
44.99000 289.000
45.00500 302.000
45.02000 294.000
45.03500 273.000
45.05000 265.000
45.06500 240.000
45.08000 256.000
45.09500 269.000
45.11000 259.000
45.12500 316.000
45.14000 303.000
45.15500 310.000
45.17000 250.000
45.18500 188.000
45.20000 183.000
45.21500 163.000
45.23000 170.000
45.24500 159.000
45.26000 155.000
45.27500 157.000
45.29000 203.000
45.30500 180.000
45.32000 164.000
45.33500 168.000
45.35000 177.000
45.36500 162.000
45.38000 160.000
45.39500 154.000
45.41000 154.000
45.42500 168.000
45.44000 173.000
45.45500 150.000
45.47000 141.000
45.48500 154.000
45.50000 152.000
45.51500 146.000
45.53000 163.000
45.54500 138.000
45.56000 170.000
45.57500 161.000
45.59000 156.000
45.60500 185.000
45.62000 178.000
45.63500 193.000
45.65000 172.000
45.66500 173.000
45.68000 154.000
45.69500 154.000
45.71000 153.000
45.72500 160.000
45.74000 156.000
45.75500 150.000
45.77000 141.000
45.78500 153.000
45.80000 154.000
45.81500 140.000
45.83000 138.000
45.84500 154.000
45.86000 153.000
45.87500 133.000
45.89000 132.000
45.90500 155.000
45.92000 138.000
45.93500 140.000
45.95000 123.000
45.96500 136.000
45.98000 145.000
45.99500 142.000
46.01000 160.000
46.02500 167.000
46.04000 152.000
46.05500 166.000
46.07000 148.000
46.08500 141.000
46.10000 152.000
46.11500 176.000
46.13000 154.000
46.14500 168.000
46.16000 182.000
46.17500 191.000
46.19000 212.000
46.20500 225.000
46.22000 247.000
46.23500 270.000
46.25000 277.000
46.26500 238.000
46.28000 230.000
46.29500 218.000
46.31000 212.000
46.32500 213.000
46.34000 206.000
46.35500 225.000
46.37000 251.000
46.38500 269.000
46.40000 274.000
46.41500 296.000
46.43000 278.000
46.44500 210.000
46.46000 206.000
46.47500 218.000
46.49000 177.000
46.50500 171.000
46.52000 156.000
46.53500 145.000
46.55000 148.000
46.56500 179.000
46.58000 184.000
46.59500 190.000
46.61000 169.000
46.62500 181.000
46.64000 201.000
46.65500 183.000
46.67000 223.000
46.68500 202.000
46.70000 210.000
46.71500 209.000
46.73000 200.000
46.74500 200.000
46.76000 207.000
46.77500 208.000
46.79000 198.000
46.80500 238.000
46.82000 265.000
46.83500 297.000
46.85000 292.000
46.86500 294.000
46.88000 311.000
46.89500 358.000
46.91000 312.000
46.92500 298.000
46.94000 312.000
46.95500 348.000
46.97000 357.000
46.98500 360.000
47.00000 374.000
47.01500 354.000
47.03000 342.000
47.04500 355.000
47.06000 376.000
47.07500 403.000
47.09000 368.000
47.10500 317.000
47.12000 272.000
47.13500 246.000
47.15000 237.000
47.16500 231.000
47.18000 238.000
47.19500 205.000
47.21000 209.000
47.22500 194.000
47.24000 192.000
47.25500 174.000
47.27000 170.000
47.28500 168.000
47.30000 166.000
47.31500 188.000
47.33000 158.000
47.34500 167.000
47.36000 186.000
47.37500 213.000
47.39000 202.000
47.40500 219.000
47.42000 236.000
47.43500 234.000
47.45000 249.000
47.46500 242.000
47.48000 203.000
47.49500 191.000
47.51000 181.000
47.52500 204.000
47.54000 186.000
47.55500 176.000
47.57000 183.000
47.58500 193.000
47.60000 201.000
47.61500 190.000
47.63000 209.000
47.64500 226.000
47.66000 219.000
47.67500 220.000
47.69000 237.000
47.70500 245.000
47.72000 242.000
47.73500 253.000
47.75000 197.000
47.76500 195.000
47.78000 166.000
47.79500 161.000
47.81000 156.000
47.82500 162.000
47.84000 161.000
47.85500 165.000
47.87000 156.000
47.88500 143.000
47.90000 134.000
47.91500 131.000
47.93000 150.000
47.94500 150.000
47.96000 148.000
47.97500 144.000
47.99000 152.000
48.00500 143.000
48.02000 156.000
48.03500 147.000
48.05000 142.000
48.06500 147.000
48.08000 127.000
48.09500 155.000
48.11000 138.000
48.12500 119.000
48.14000 114.000
48.15500 126.000
48.17000 148.000
48.18500 145.000
48.20000 133.000
48.21500 127.000
48.23000 125.000
48.24500 129.000
48.26000 134.000
48.27500 139.000
48.29000 143.000
48.30500 122.000
48.32000 161.000
48.33500 138.000
48.35000 136.000
48.36500 143.000
48.38000 143.000
48.39500 146.000
48.41000 146.000
48.42500 141.000
48.44000 143.000
48.45500 160.000
48.47000 128.000
48.48500 144.000
48.50000 155.000
48.51500 178.000
48.53000 160.000
48.54500 159.000
48.56000 142.000
48.57500 132.000
48.59000 145.000
48.60500 127.000
48.62000 150.000
48.63500 129.000
48.65000 130.000
48.66500 153.000
48.68000 149.000
48.69500 131.000
48.71000 141.000
48.72500 145.000
48.74000 134.000
48.75500 160.000
48.77000 149.000
48.78500 137.000
48.80000 148.000
48.81500 149.000
48.83000 155.000
48.84500 141.000
48.86000 137.000
48.87500 148.000
48.89000 142.000
48.90500 156.000
48.92000 171.000
48.93500 158.000
48.95000 149.000
48.96500 164.000
48.98000 210.000
48.99500 226.000
49.01000 252.000
49.02500 251.000
49.04000 236.000
49.05500 217.000
49.07000 210.000
49.08500 212.000
49.10000 193.000
49.11500 170.000
49.13000 154.000
49.14500 168.000
49.16000 161.000
49.17500 148.000
49.19000 150.000
49.20500 158.000
49.22000 146.000
49.23500 144.000
49.25000 154.000
49.26500 141.000
49.28000 144.000
49.29500 151.000
49.31000 155.000
49.32500 155.000
49.34000 156.000
49.35500 140.000
49.37000 150.000
49.38500 171.000
49.40000 146.000
49.41500 144.000
49.43000 166.000
49.44500 149.000
49.46000 148.000
49.47500 169.000
49.49000 187.000
49.50500 187.000
49.52000 204.000
49.53500 233.000
49.55000 255.000
49.56500 292.000
49.58000 311.000
49.59500 301.000
49.61000 354.000
49.62500 407.000
49.64000 414.000
49.65500 408.000
49.67000 402.000
49.68500 347.000
49.70000 352.000
49.71500 304.000
49.73000 254.000
49.74500 234.000
49.76000 182.000
49.77500 148.000
49.79000 141.000
49.80500 151.000
49.82000 171.000
49.83500 169.000
49.85000 173.000
49.86500 161.000
49.88000 138.000
49.89500 167.000
49.91000 176.000
49.92500 151.000
49.94000 138.000
49.95500 155.000
49.97000 152.000
49.98500 123.000
50.00000 127.000
50.01500 141.000
50.03000 146.000
50.04500 140.000
50.06000 185.000
50.07500 162.000
50.09000 170.000
50.10500 197.000
50.12000 179.000
50.13500 186.000
50.15000 199.000
50.16500 225.000
50.18000 244.000
50.19500 292.000
50.21000 287.000
50.22500 288.000
50.24000 314.000
50.25500 308.000
50.27000 292.000
50.28500 279.000
50.30000 261.000
50.31500 243.000
50.33000 248.000
50.34500 232.000
50.36000 211.000
50.37500 217.000
50.39000 232.000
50.40500 245.000
50.42000 235.000
50.43500 229.000
50.45000 249.000
50.46500 298.000
50.48000 296.000
50.49500 296.000
50.51000 264.000
50.52500 258.000
50.54000 261.000
50.55500 218.000
50.57000 213.000
50.58500 206.000
50.60000 178.000
50.61500 194.000
50.63000 184.000
50.64500 177.000
50.66000 175.000
50.67500 149.000
50.69000 145.000
50.70500 139.000
50.72000 167.000
50.73500 154.000
50.75000 155.000
50.76500 169.000
50.78000 162.000
50.79500 140.000
50.81000 131.000
50.82500 144.000
50.84000 142.000
50.85500 144.000
50.87000 150.000
50.88500 150.000
50.90000 147.000
50.91500 130.000
50.93000 133.000
50.94500 145.000
50.96000 140.000
50.97500 142.000
50.99000 172.000
51.00500 149.000
51.02000 148.000
51.03500 143.000
51.05000 150.000
51.06500 144.000
51.08000 144.000
51.09500 143.000
51.11000 129.000
51.12500 133.000
51.14000 143.000
51.15500 157.000
51.17000 154.000
51.18500 152.000
51.20000 129.000
51.21500 147.000
51.23000 133.000
51.24500 137.000
51.26000 124.000
51.27500 143.000
51.29000 151.000
51.30500 136.000
51.32000 153.000
51.33500 156.000
51.35000 177.000
51.36500 172.000
51.38000 173.000
51.39500 194.000
51.41000 184.000
51.42500 223.000
51.44000 254.000
51.45500 265.000
51.47000 253.000
51.48500 241.000
51.50000 221.000
51.51500 193.000
51.53000 169.000
51.54500 171.000
51.56000 157.000
51.57500 156.000
51.59000 169.000
51.60500 156.000
51.62000 172.000
51.63500 150.000
51.65000 146.000
51.66500 167.000
51.68000 165.000
51.69500 162.000
51.71000 147.000
51.72500 174.000
51.74000 180.000
51.75500 161.000
51.77000 185.000
51.78500 200.000
51.80000 185.000
51.81500 202.000
51.83000 228.000
51.84500 262.000
51.86000 244.000
51.87500 214.000
51.89000 206.000
51.90500 189.000
51.92000 198.000
51.93500 176.000
51.95000 168.000
51.96500 183.000
51.98000 162.000
51.99500 142.000
52.01000 158.000
52.02500 168.000
52.04000 153.000
52.05500 142.000
52.07000 145.000
52.08500 136.000
52.10000 162.000
52.11500 159.000
52.13000 152.000
52.14500 166.000
52.16000 189.000
52.17500 170.000
52.19000 180.000
52.20500 176.000
52.22000 154.000
52.23500 180.000
52.25000 151.000
52.26500 151.000
52.28000 145.000
52.29500 129.000
52.31000 139.000
52.32500 153.000
52.34000 144.000
52.35500 142.000
52.37000 148.000
52.38500 150.000
52.40000 128.000
52.41500 127.000
52.43000 144.000
52.44500 142.000
52.46000 137.000
52.47500 137.000
52.49000 157.000
52.50500 139.000
52.52000 130.000
52.53500 143.000
52.55000 130.000
52.56500 142.000
52.58000 151.000
52.59500 145.000
52.61000 123.000
52.62500 147.000
52.64000 137.000
52.65500 151.000
52.67000 150.000
52.68500 142.000
52.70000 134.000
52.71500 116.000
52.73000 124.000
52.74500 140.000
52.76000 164.000
52.77500 139.000
52.79000 145.000
52.80500 144.000
52.82000 139.000
52.83500 156.000
52.85000 140.000
52.86500 147.000
52.88000 143.000
52.89500 171.000
52.91000 193.000
52.92500 231.000
52.94000 231.000
52.95500 178.000
52.97000 162.000
52.98500 144.000
53.00000 147.000
53.01500 153.000
53.03000 172.000
53.04500 149.000
53.06000 145.000
53.07500 138.000
53.09000 143.000
53.10500 137.000
53.12000 140.000
53.13500 141.000
53.15000 135.000
53.16500 124.000
53.18000 126.000
53.19500 136.000
53.21000 129.000
53.22500 152.000
53.24000 138.000
53.25500 139.000
53.27000 166.000
53.28500 184.000
53.30000 187.000
53.31500 218.000
53.33000 213.000
53.34500 203.000
53.36000 244.000
53.37500 259.000
53.39000 294.000
53.40500 270.000
53.42000 238.000
53.43500 263.000
53.45000 275.000
53.46500 234.000
53.48000 243.000
53.49500 221.000
53.51000 216.000
53.52500 203.000
53.54000 170.000
53.55500 154.000
53.57000 145.000
53.58500 160.000
53.60000 153.000
53.61500 150.000
53.63000 151.000
53.64500 146.000
53.66000 139.000
53.67500 140.000
53.69000 138.000
53.70500 153.000
53.72000 139.000
53.73500 137.000
53.75000 144.000
53.76500 151.000
53.78000 133.000
53.79500 142.000
53.81000 153.000
53.82500 163.000
53.84000 167.000
53.85500 160.000
53.87000 147.000
53.88500 163.000
53.90000 168.000
53.91500 167.000
53.93000 163.000
53.94500 174.000
53.96000 175.000
53.97500 183.000
53.99000 206.000
54.00500 214.000
54.02000 246.000
54.03500 274.000
54.05000 255.000
54.06500 291.000
54.08000 291.000
54.09500 274.000
54.11000 253.000
54.12500 230.000
54.14000 230.000
54.15500 206.000
54.17000 181.000
54.18500 191.000
54.20000 165.000
54.21500 157.000
54.23000 150.000
54.24500 144.000
54.26000 138.000
54.27500 137.000
54.29000 140.000
54.30500 144.000
54.32000 139.000
54.33500 159.000
54.35000 143.000
54.36500 142.000
54.38000 142.000
54.39500 141.000
54.41000 148.000
54.42500 137.000
54.44000 155.000
54.45500 147.000
54.47000 156.000
54.48500 158.000
54.50000 163.000
54.51500 177.000
54.53000 168.000
54.54500 153.000
54.56000 164.000
54.57500 142.000
54.59000 164.000
54.60500 169.000
54.62000 168.000
54.63500 158.000
54.65000 151.000
54.66500 148.000
54.68000 144.000
54.69500 139.000
54.71000 158.000
54.72500 146.000
54.74000 162.000
54.75500 151.000
54.77000 143.000
54.78500 147.000
54.80000 153.000
54.81500 143.000
54.83000 184.000
54.84500 203.000
54.86000 178.000
54.87500 202.000
54.89000 212.000
54.90500 212.000
54.92000 244.000
54.93500 262.000
54.95000 246.000
54.96500 263.000
54.98000 275.000
54.99500 288.000
55.01000 314.000
55.02500 338.000
55.04000 351.000
55.05500 345.000
55.07000 417.000
55.08500 421.000
55.10000 407.000
55.11500 385.000
55.13000 392.000
55.14500 352.000
55.16000 354.000
55.17500 312.000
55.19000 280.000
55.20500 264.000
55.22000 270.000
55.23500 242.000
55.25000 239.000
55.26500 225.000
55.28000 218.000
55.29500 210.000
55.31000 220.000
55.32500 206.000
55.34000 184.000
55.35500 192.000
55.37000 183.000
55.38500 183.000
55.40000 187.000
55.41500 197.000
55.43000 195.000
55.44500 194.000
55.46000 216.000
55.47500 201.000
55.49000 200.000
55.50500 187.000
55.52000 189.000
55.53500 197.000
55.55000 181.000
55.56500 157.000
55.58000 162.000
55.59500 151.000
55.61000 157.000
55.62500 145.000
55.64000 152.000
55.65500 142.000
55.67000 146.000
55.68500 147.000
55.70000 141.000
55.71500 150.000
55.73000 150.000
55.74500 158.000
55.76000 145.000
55.77500 159.000
55.79000 170.000
55.80500 163.000
55.82000 183.000
55.83500 180.000
55.85000 169.000
55.86500 180.000
55.88000 190.000
55.89500 175.000
55.91000 162.000
55.92500 147.000
55.94000 149.000
55.95500 134.000
55.97000 125.000
55.98500 145.000
56.00000 145.000
56.01500 135.000
56.03000 119.000
56.04500 123.000
56.06000 124.000
56.07500 132.000
56.09000 118.000
56.10500 119.000
56.12000 129.000
56.13500 147.000
56.15000 119.000
56.16500 145.000
56.18000 126.000
56.19500 136.000
56.21000 148.000
56.22500 126.000
56.24000 141.000
56.25500 138.000
56.27000 138.000
56.28500 146.000
56.30000 145.000
56.31500 131.000
56.33000 126.000
56.34500 128.000
56.36000 141.000
56.37500 135.000
56.39000 123.000
56.40500 139.000
56.42000 147.000
56.43500 149.000
56.45000 145.000
56.46500 139.000
56.48000 128.000
56.49500 125.000
56.51000 130.000
56.52500 127.000
56.54000 130.000
56.55500 138.000
56.57000 151.000
56.58500 158.000
56.60000 169.000
56.61500 186.000
56.63000 190.000
56.64500 188.000
56.66000 246.000
56.67500 223.000
56.69000 241.000
56.70500 262.000
56.72000 254.000
56.73500 272.000
56.75000 267.000
56.76500 263.000
56.78000 229.000
56.79500 202.000
56.81000 198.000
56.82500 168.000
56.84000 163.000
56.85500 161.000
56.87000 161.000
56.88500 167.000
56.90000 183.000
56.91500 161.000
56.93000 174.000
56.94500 157.000
56.96000 163.000
56.97500 152.000
56.99000 165.000
57.00500 170.000
57.02000 171.000
57.03500 179.000
57.05000 197.000
57.06500 187.000
57.08000 166.000
57.09500 166.000
57.11000 199.000
57.12500 205.000
57.14000 197.000
57.15500 198.000
57.17000 227.000
57.18500 210.000
57.20000 195.000
57.21500 200.000
57.23000 192.000
57.24500 187.000
57.26000 170.000
57.27500 193.000
57.29000 181.000
57.30500 199.000
57.32000 205.000
57.33500 249.000
57.35000 253.000
57.36500 258.000
57.38000 283.000
57.39500 299.000
57.41000 284.000
57.42500 253.000
57.44000 252.000
57.45500 243.000
57.47000 219.000
57.48500 207.000
57.50000 181.000
57.51500 165.000
57.53000 176.000
57.54500 181.000
57.56000 164.000
57.57500 162.000
57.59000 147.000
57.60500 147.000
57.62000 151.000
57.63500 138.000
57.65000 128.000
57.66500 137.000
57.68000 158.000
57.69500 142.000
57.71000 122.000
57.72500 143.000
57.74000 117.000
57.75500 119.000
57.77000 130.000
57.78500 126.000
57.80000 116.000
57.81500 105.000
57.83000 123.000
57.84500 144.000
57.86000 132.000
57.87500 126.000
57.89000 116.000
57.90500 131.000
57.92000 121.000
57.93500 136.000
57.95000 122.000
57.96500 130.000
57.98000 131.000
57.99500 140.000
58.01000 125.000
58.02500 130.000
58.04000 132.000
58.05500 134.000
58.07000 140.000
58.08500 135.000
58.10000 148.000
58.11500 136.000
58.13000 117.000
58.14500 117.000
58.16000 124.000
58.17500 127.000
58.19000 132.000
58.20500 164.000
58.22000 144.000
58.23500 151.000
58.25000 130.000
58.26500 161.000
58.28000 159.000
58.29500 143.000
58.31000 146.000
58.32500 133.000
58.34000 133.000
58.35500 149.000
58.37000 128.000
58.38500 115.000
58.40000 145.000
58.41500 151.000
58.43000 139.000
58.44500 111.000
58.46000 103.000
58.47500 116.000
58.49000 125.000
58.50500 118.000
58.52000 117.000
58.53500 136.000
58.55000 119.000
58.56500 104.000
58.58000 124.000
58.59500 129.000
58.61000 132.000
58.62500 127.000
58.64000 137.000
58.65500 134.000
58.67000 121.000
58.68500 124.000
58.70000 113.000
58.71500 138.000
58.73000 139.000
58.74500 146.000
58.76000 117.000
58.77500 120.000
58.79000 131.000
58.80500 127.000
58.82000 135.000
58.83500 144.000
58.85000 134.000
58.86500 129.000
58.88000 136.000
58.89500 124.000
58.91000 130.000
58.92500 150.000
58.94000 167.000
58.95500 191.000
58.97000 154.000
58.98500 156.000
59.00000 173.000
59.01500 158.000
59.03000 141.000
59.04500 153.000
59.06000 132.000
59.07500 126.000
59.09000 123.000
59.10500 134.000
59.12000 139.000
59.13500 151.000
59.15000 119.000
59.16500 114.000
59.18000 113.000
59.19500 122.000
59.21000 115.000
59.22500 121.000
59.24000 116.000
59.25500 135.000
59.27000 143.000
59.28500 139.000
59.30000 137.000
59.31500 152.000
59.33000 126.000
59.34500 127.000
59.36000 136.000
59.37500 118.000
59.39000 110.000
59.40500 121.000
59.42000 115.000
59.43500 119.000
59.45000 135.000
59.46500 149.000
59.48000 146.000
59.49500 107.000
59.51000 122.000
59.52500 126.000
59.54000 124.000
59.55500 135.000
59.57000 130.000
59.58500 129.000
59.60000 118.000
59.61500 129.000
59.63000 136.000
59.64500 145.000
59.66000 135.000
59.67500 130.000
59.69000 136.000
59.70500 138.000
59.72000 143.000
59.73500 138.000
59.75000 144.000
59.76500 141.000
59.78000 141.000
59.79500 167.000
59.81000 133.000
59.82500 158.000
59.84000 163.000
59.85500 160.000
59.87000 156.000
59.88500 167.000
59.90000 189.000
59.91500 202.000
59.93000 186.000
59.94500 196.000
59.96000 237.000
59.97500 249.000
59.99000 230.000
60.00500 227.000
60.02000 212.000
60.03500 199.000
60.05000 182.000
60.06500 160.000
60.08000 160.000
60.09500 164.000
60.11000 153.000
60.12500 165.000
60.14000 138.000
60.15500 157.000
60.17000 166.000
60.18500 172.000
60.20000 163.000
60.21500 186.000
60.23000 165.000
60.24500 185.000
60.26000 184.000
60.27500 187.000
60.29000 204.000
60.30500 210.000
60.32000 205.000
60.33500 212.000
60.35000 191.000
60.36500 185.000
60.38000 200.000
60.39500 211.000
60.41000 197.000
60.42500 182.000
60.44000 191.000
60.45500 178.000
60.47000 171.000
60.48500 153.000
60.50000 146.000
60.51500 174.000
60.53000 137.000
60.54500 145.000
60.56000 156.000
60.57500 155.000
60.59000 165.000
60.60500 129.000
60.62000 156.000
60.63500 146.000
60.65000 138.000
60.66500 137.000
60.68000 144.000
60.69500 135.000
60.71000 134.000
60.72500 138.000
60.74000 126.000
60.75500 134.000
60.77000 141.000
60.78500 119.000
60.80000 125.000
60.81500 137.000
60.83000 129.000
60.84500 126.000
60.86000 145.000
60.87500 140.000
60.89000 133.000
60.90500 135.000
60.92000 142.000
60.93500 146.000
60.95000 134.000
60.96500 121.000
60.98000 130.000
60.99500 152.000
61.01000 152.000
61.02500 122.000
61.04000 130.000
61.05500 125.000
61.07000 118.000
61.08500 111.000
61.10000 108.000
61.11500 110.000
61.13000 113.000
61.14500 122.000
61.16000 121.000
61.17500 128.000
61.19000 111.000
61.20500 116.000
61.22000 126.000
61.23500 131.000
61.25000 111.000
61.26500 124.000
61.28000 108.000
61.29500 117.000
61.31000 109.000
61.32500 115.000
61.34000 113.000
61.35500 115.000
61.37000 120.000
61.38500 112.000
61.40000 124.000
61.41500 114.000
61.43000 122.000
61.44500 134.000
61.46000 128.000
61.47500 125.000
61.49000 122.000
61.50500 123.000
61.52000 127.000
61.53500 132.000
61.55000 118.000
61.56500 119.000
61.58000 141.000
61.59500 139.000
61.61000 137.000
61.62500 125.000
61.64000 124.000
61.65500 115.000
61.67000 121.000
61.68500 131.000
61.70000 128.000
61.71500 131.000
61.73000 111.000
61.74500 112.000
61.76000 129.000
61.77500 103.000
61.79000 110.000
61.80500 110.000
61.82000 115.000
61.83500 119.000
61.85000 109.000
61.86500 104.000
61.88000 137.000
61.89500 131.000
61.91000 103.000
61.92500 108.000
61.94000 109.000
61.95500 119.000
61.97000 118.000
61.98500 128.000
