2.00000 1.000
2.01500 2.000
2.03000 3.000
2.04500 5.000
2.06000 5.000
2.07500 3.000
2.09000 4.000
2.10500 2.000
2.12000 2.000
2.13500 2.000
2.15000 2.000
2.16500 2.000
2.18000 2.000
2.19500 2.000
2.21000 1.000
2.22500 2.000
2.24000 4.000
2.25500 2.000
2.27000 3.000
2.28500 3.000
2.30000 5.000
2.31500 5.000
2.33000 2.000
2.34500 4.000
2.36000 5.000
2.37500 4.000
2.39000 4.000
2.40500 2.000
2.42000 4.000
2.43500 5.000
2.45000 2.000
2.46500 3.000
2.48000 4.000
2.49500 2.000
2.51000 4.000
2.52500 2.000
2.54000 3.000
2.55500 4.000
2.57000 5.000
2.58500 7.000
2.60000 11.000
2.61500 3.000
2.63000 5.000
2.64500 4.000
2.66000 5.000
2.67500 4.000
2.69000 6.000
2.70500 2.000
2.72000 5.000
2.73500 2.000
2.75000 2.000
2.76500 3.000
2.78000 2.000
2.79500 0.000
2.81000 1.000
2.82500 2.000
2.84000 4.000
2.85500 5.000
2.87000 4.000
2.88500 7.000
2.90000 5.000
2.91500 4.000
2.93000 2.000
2.94500 2.000
2.96000 2.000
2.97500 2.000
2.99000 3.000
3.00500 3.000
3.02000 3.000
3.03500 4.000
3.05000 4.000
3.06500 2.000
3.08000 5.000
3.09500 4.000
3.11000 7.000
3.12500 10.000
3.14000 16.000
3.15500 20.000
3.17000 32.000
3.18500 62.000
3.20000 92.000
3.21500 160.000
3.23000 207.000
3.24500 297.000
3.26000 352.000
3.27500 406.000
3.29000 443.000
3.30500 471.000
3.32000 470.000
3.33500 506.000
3.35000 478.000
3.36500 455.000
3.38000 471.000
3.39500 465.000
3.41000 453.000
3.42500 447.000
3.44000 467.000
3.45500 444.000
3.47000 441.000
3.48500 455.000
3.50000 426.000
3.51500 434.000
3.53000 434.000
3.54500 434.000
3.56000 425.000
3.57500 420.000
3.59000 440.000
3.60500 405.000
3.62000 420.000
3.63500 395.000
3.65000 374.000
3.66500 393.000
3.68000 365.000
3.69500 381.000
3.71000 397.000
3.72500 380.000
3.74000 367.000
3.75500 392.000
3.77000 374.000
3.78500 375.000
3.80000 354.000
3.81500 372.000
3.83000 355.000
3.84500 337.000
3.86000 339.000
3.87500 340.000
3.89000 338.000
3.90500 375.000
3.92000 356.000
3.93500 359.000
3.95000 331.000
3.96500 340.000
3.98000 347.000
3.99500 342.000
4.01000 333.000
4.02500 346.000
4.04000 323.000
4.05500 340.000
4.07000 346.000
4.08500 335.000
4.10000 328.000
4.11500 324.000
4.13000 328.000
4.14500 331.000
4.16000 335.000
4.17500 333.000
4.19000 304.000
4.20500 295.000
4.22000 314.000
4.23500 309.000
4.25000 300.000
4.26500 303.000
4.28000 321.000
4.29500 316.000
4.31000 326.000
4.32500 314.000
4.34000 312.000
4.35500 302.000
4.37000 326.000
4.38500 302.000
4.40000 307.000
4.41500 277.000
4.43000 300.000
4.44500 295.000
4.46000 319.000
4.47500 300.000
4.49000 301.000
4.50500 292.000
4.52000 291.000
4.53500 290.000
4.55000 293.000
4.56500 298.000
4.58000 302.000
4.59500 259.000
4.61000 266.000
4.62500 300.000
4.64000 291.000
4.65500 309.000
4.67000 291.000
4.68500 265.000
4.70000 257.000
4.71500 295.000
4.73000 279.000
4.74500 273.000
4.76000 265.000
4.77500 281.000
4.79000 270.000
4.80500 264.000
4.82000 294.000
4.83500 260.000
4.85000 267.000
4.86500 273.000
4.88000 278.000
4.89500 281.000
4.91000 299.000
4.92500 290.000
4.94000 280.000
4.95500 267.000
4.97000 275.000
4.98500 277.000
5.00000 286.000
5.01500 268.000
5.03000 265.000
5.04500 278.000
5.06000 265.000
5.07500 254.000
5.09000 270.000
5.10500 263.000
5.12000 271.000
5.13500 272.000
5.15000 265.000
5.16500 259.000
5.18000 256.000
5.19500 269.000
5.21000 263.000
5.22500 249.000
5.24000 268.000
5.25500 282.000
5.27000 255.000
5.28500 261.000
5.30000 284.000
5.31500 270.000
5.33000 256.000
5.34500 264.000
5.36000 264.000
5.37500 280.000
5.39000 252.000
5.40500 256.000
5.42000 256.000
5.43500 280.000
5.45000 257.000
5.46500 268.000
5.48000 264.000
5.49500 251.000
5.51000 239.000
5.52500 264.000
5.54000 256.000
5.55500 279.000
5.57000 276.000
5.58500 287.000
5.60000 265.000
5.61500 280.000
5.63000 272.000
5.64500 255.000
5.66000 256.000
5.67500 235.000
5.69000 270.000
5.70500 272.000
5.72000 284.000
5.73500 263.000
5.75000 258.000
5.76500 273.000
5.78000 245.000
5.79500 259.000
5.81000 285.000
5.82500 278.000
5.84000 270.000
5.85500 280.000
5.87000 265.000
5.88500 258.000
5.90000 266.000
5.91500 271.000
5.93000 294.000
5.94500 260.000
5.96000 277.000
5.97500 251.000
5.99000 264.000
6.00500 231.000
6.02000 246.000
6.03500 256.000
6.05000 246.000
6.06500 260.000
6.08000 286.000
6.09500 245.000
6.11000 264.000
6.12500 248.000
6.14000 264.000
6.15500 246.000
6.17000 247.000
6.18500 276.000
6.20000 285.000
6.21500 266.000
6.23000 264.000
6.24500 251.000
6.26000 253.000
6.27500 255.000
6.29000 259.000
6.30500 278.000
6.32000 277.000
6.33500 263.000
6.35000 254.000
6.36500 262.000
6.38000 252.000
6.39500 224.000
6.41000 229.000
6.42500 262.000
6.44000 240.000
6.45500 242.000
6.47000 255.000
6.48500 285.000
6.50000 284.000
6.51500 301.000
6.53000 260.000
6.54500 259.000
6.56000 283.000
6.57500 247.000
6.59000 269.000
6.60500 257.000
6.62000 253.000
6.63500 249.000
6.65000 251.000
6.66500 261.000
6.68000 275.000
6.69500 260.000
6.71000 267.000
6.72500 235.000
6.74000 265.000
6.75500 273.000
6.77000 285.000
6.78500 281.000
6.80000 253.000
6.81500 256.000
6.83000 261.000
6.84500 281.000
6.86000 269.000
6.87500 245.000
6.89000 250.000
6.90500 268.000
6.92000 266.000
6.93500 265.000
6.95000 256.000
6.96500 268.000
6.98000 272.000
6.99500 273.000
7.01000 275.000
7.02500 283.000
7.04000 270.000
7.05500 250.000
7.07000 271.000
7.08500 276.000
7.10000 276.000
7.11500 297.000
7.13000 285.000
7.14500 278.000
7.16000 271.000
7.17500 272.000
7.19000 241.000
7.20500 275.000
7.22000 282.000
7.23500 288.000
7.25000 284.000
7.26500 279.000
7.28000 241.000
7.29500 276.000
7.31000 266.000
7.32500 263.000
7.34000 274.000
7.35500 274.000
7.37000 265.000
7.38500 256.000
7.40000 286.000
7.41500 280.000
7.43000 299.000
7.44500 260.000
7.46000 279.000
7.47500 304.000
7.49000 285.000
7.50500 287.000
7.52000 282.000
7.53500 277.000
7.55000 265.000
7.56500 267.000
7.58000 299.000
7.59500 294.000
7.61000 273.000
7.62500 288.000
7.64000 267.000
7.65500 275.000
7.67000 277.000
7.68500 268.000
7.70000 311.000
7.71500 302.000
7.73000 300.000
7.74500 329.000
7.76000 291.000
7.77500 289.000
7.79000 309.000
7.80500 283.000
7.82000 313.000
7.83500 316.000
7.85000 285.000
7.86500 311.000
7.88000 328.000
7.89500 332.000
7.91000 309.000
7.92500 309.000
7.94000 332.000
7.95500 312.000
7.97000 336.000
7.98500 333.000
8.00000 340.000
8.01500 312.000
8.03000 332.000
8.04500 335.000
8.06000 350.000
8.07500 337.000
8.09000 359.000
8.10500 348.000
8.12000 362.000
8.13500 322.000
8.15000 324.000
8.16500 326.000
8.18000 330.000
8.19500 344.000
8.21000 328.000
8.22500 323.000
8.24000 325.000
8.25500 325.000
8.27000 311.000
8.28500 320.000
8.30000 345.000
8.31500 336.000
8.33000 316.000
8.34500 328.000
8.36000 306.000
8.37500 324.000
8.39000 316.000
8.40500 304.000
8.42000 297.000
8.43500 334.000
8.45000 333.000
8.46500 329.000
8.48000 304.000
8.49500 312.000
8.51000 302.000
8.52500 335.000
8.54000 315.000
8.55500 314.000
8.57000 320.000
8.58500 311.000
8.60000 314.000
8.61500 330.000
8.63000 323.000
8.64500 303.000
8.66000 311.000
8.67500 304.000
8.69000 307.000
8.70500 303.000
8.72000 306.000
8.73500 317.000
8.75000 293.000
8.76500 288.000
8.78000 300.000
8.79500 299.000
8.81000 325.000
8.82500 326.000
8.84000 322.000
8.85500 314.000
8.87000 316.000
8.88500 310.000
8.90000 300.000
8.91500 287.000
8.93000 306.000
8.94500 291.000
8.96000 296.000
8.97500 296.000
8.99000 296.000
9.00500 291.000
9.02000 293.000
9.03500 301.000
9.05000 313.000
9.06500 301.000
9.08000 303.000
9.09500 319.000
9.11000 294.000
9.12500 299.000
9.14000 289.000
9.15500 277.000
9.17000 307.000
9.18500 313.000
9.20000 303.000
9.21500 300.000
9.23000 311.000
9.24500 286.000
9.26000 328.000
9.27500 327.000
9.29000 325.000
9.30500 280.000
9.32000 305.000
9.33500 309.000
9.35000 313.000
9.36500 293.000
9.38000 278.000
9.39500 293.000
9.41000 306.000
9.42500 316.000
9.44000 310.000
9.45500 289.000
9.47000 318.000
9.48500 324.000
9.50000 310.000
9.51500 332.000
9.53000 280.000
9.54500 292.000
9.56000 266.000
9.57500 307.000
9.59000 305.000
9.60500 307.000
9.62000 317.000
9.63500 322.000
9.65000 309.000
9.66500 306.000
9.68000 309.000
9.69500 311.000
9.71000 325.000
9.72500 286.000
9.74000 292.000
9.75500 286.000
9.77000 306.000
9.78500 299.000
9.80000 285.000
9.81500 285.000
9.83000 314.000
9.84500 320.000
9.86000 322.000
9.87500 277.000
9.89000 302.000
9.90500 284.000
9.92000 320.000
9.93500 301.000
9.95000 298.000
9.96500 324.000
9.98000 319.000
9.99500 310.000
10.01000 293.000
10.02500 296.000
10.04000 287.000
10.05500 326.000
10.07000 303.000
10.08500 314.000
10.10000 319.000
10.11500 285.000
10.13000 281.000
10.14500 286.000
10.16000 287.000
10.17500 279.000
10.19000 289.000
10.20500 280.000
10.22000 266.000
10.23500 294.000
10.25000 300.000
10.26500 313.000
10.28000 299.000
10.29500 301.000
10.31000 302.000
10.32500 302.000
10.34000 297.000
10.35500 270.000
10.37000 272.000
10.38500 271.000
10.40000 310.000
10.41500 286.000
10.43000 285.000
10.44500 283.000
10.46000 303.000
10.47500 320.000
10.49000 297.000
10.50500 278.000
10.52000 308.000
10.53500 313.000
10.55000 296.000
10.56500 294.000
10.58000 293.000
10.59500 272.000
10.61000 277.000
10.62500 292.000
10.64000 283.000
10.65500 279.000
10.67000 271.000
10.68500 272.000
10.70000 300.000
10.71500 269.000
10.73000 260.000
10.74500 285.000
10.76000 298.000
10.77500 286.000
10.79000 287.000
10.80500 284.000
10.82000 294.000
10.83500 288.000
10.85000 300.000
10.86500 293.000
10.88000 286.000
10.89500 285.000
10.91000 296.000
10.92500 309.000
10.94000 287.000
10.95500 270.000
10.97000 266.000
10.98500 258.000
11.00000 289.000
11.01500 288.000
11.03000 305.000
11.04500 282.000
11.06000 282.000
11.07500 297.000
11.09000 284.000
11.10500 321.000
11.12000 319.000
11.13500 290.000
11.15000 286.000
11.16500 303.000
11.18000 286.000
11.19500 295.000
11.21000 271.000
11.22500 301.000
11.24000 279.000
11.25500 263.000
11.27000 286.000
11.28500 299.000
11.30000 294.000
11.31500 303.000
11.33000 288.000
11.34500 289.000
11.36000 292.000
11.37500 278.000
11.39000 293.000
11.40500 284.000
11.42000 293.000
11.43500 299.000
11.45000 283.000
11.46500 275.000
11.48000 300.000
11.49500 306.000
11.51000 318.000
11.52500 300.000
11.54000 308.000
11.55500 291.000
11.57000 291.000
11.58500 308.000
11.60000 282.000
11.61500 269.000
11.63000 285.000
11.64500 284.000
11.66000 291.000
11.67500 291.000
11.69000 293.000
11.70500 284.000
11.72000 294.000
11.73500 280.000
11.75000 285.000
11.76500 302.000
11.78000 305.000
11.79500 300.000
11.81000 285.000
11.82500 291.000
11.84000 283.000
11.85500 291.000
11.87000 318.000
11.88500 304.000
11.90000 285.000
11.91500 300.000
11.93000 307.000
11.94500 299.000
11.96000 285.000
11.97500 299.000
11.99000 298.000
12.00500 288.000
12.02000 319.000
12.03500 328.000
12.05000 301.000
12.06500 304.000
12.08000 301.000
12.09500 312.000
12.11000 354.000
12.12500 333.000
12.14000 338.000
12.15500 363.000
12.17000 336.000
12.18500 356.000
12.20000 403.000
12.21500 434.000
12.23000 499.000
12.24500 462.000
12.26000 451.000
12.27500 375.000
12.29000 306.000
12.30500 317.000
12.32000 312.000
12.33500 323.000
12.35000 299.000
12.36500 301.000
12.38000 287.000
12.39500 311.000
12.41000 303.000
12.42500 292.000
12.44000 315.000
12.45500 317.000
12.47000 291.000
12.48500 288.000
12.50000 306.000
12.51500 331.000
12.53000 310.000
12.54500 270.000
12.56000 274.000
12.57500 297.000
12.59000 308.000
12.60500 300.000
12.62000 301.000
12.63500 291.000
12.65000 291.000
12.66500 277.000
12.68000 290.000
12.69500 272.000
12.71000 289.000
12.72500 296.000
12.74000 296.000
12.75500 290.000
12.77000 281.000
12.78500 281.000
12.80000 281.000
12.81500 286.000
12.83000 306.000
12.84500 293.000
12.86000 286.000
12.87500 303.000
12.89000 297.000
12.90500 318.000
12.92000 305.000
12.93500 297.000
12.95000 301.000
12.96500 311.000
12.98000 296.000
12.99500 302.000
13.01000 316.000
13.02500 313.000
13.04000 312.000
13.05500 316.000
13.07000 292.000
13.08500 326.000
13.10000 294.000
13.11500 282.000
13.13000 296.000
13.14500 298.000
13.16000 316.000
13.17500 304.000
13.19000 301.000
13.20500 298.000
13.22000 297.000
13.23500 302.000
13.25000 311.000
13.26500 313.000
13.28000 274.000
13.29500 285.000
13.31000 307.000
13.32500 320.000
13.34000 324.000
13.35500 320.000
13.37000 325.000
13.38500 339.000
13.40000 324.000
13.41500 350.000
13.43000 357.000
13.44500 370.000
13.46000 337.000
13.47500 309.000
13.49000 331.000
13.50500 301.000
13.52000 305.000
13.53500 317.000
13.55000 286.000
13.56500 297.000
13.58000 336.000
13.59500 302.000
13.61000 321.000
13.62500 331.000
13.64000 314.000
13.65500 332.000
13.67000 326.000
13.68500 304.000
13.70000 324.000
13.71500 328.000
13.73000 317.000
13.74500 332.000
13.76000 321.000
13.77500 324.000
13.79000 331.000
13.80500 328.000
13.82000 338.000
13.83500 354.000
13.85000 322.000
13.86500 329.000
13.88000 324.000
13.89500 329.000
13.91000 336.000
13.92500 324.000
13.94000 346.000
13.95500 348.000
13.97000 329.000
13.98500 335.000
14.00000 342.000
14.01500 372.000
14.03000 346.000
14.04500 339.000
14.06000 334.000
14.07500 324.000
14.09000 340.000
14.10500 344.000
14.12000 340.000
14.13500 358.000
14.15000 363.000
14.16500 335.000
14.18000 357.000
14.19500 337.000
14.21000 327.000
14.22500 355.000
14.24000 322.000
14.25500 345.000
14.27000 328.000
14.28500 360.000
14.30000 331.000
14.31500 308.000
14.33000 308.000
14.34500 316.000
14.36000 346.000
14.37500 327.000
14.39000 338.000
14.40500 339.000
14.42000 333.000
14.43500 345.000
14.45000 329.000
14.46500 327.000
14.48000 301.000
14.49500 310.000
14.51000 328.000
14.52500 331.000
14.54000 337.000
14.55500 332.000
14.57000 320.000
14.58500 338.000
14.60000 338.000
14.61500 330.000
14.63000 325.000
14.64500 297.000
14.66000 313.000
14.67500 335.000
14.69000 337.000
14.70500 321.000
14.72000 325.000
14.73500 320.000
14.75000 323.000
14.76500 324.000
14.78000 342.000
14.79500 344.000
14.81000 338.000
14.82500 332.000
14.84000 323.000
14.85500 321.000
14.87000 326.000
14.88500 327.000
14.90000 338.000
14.91500 306.000
14.93000 325.000
14.94500 312.000
14.96000 321.000
14.97500 340.000
14.99000 323.000
15.00500 324.000
15.02000 312.000
15.03500 305.000
15.05000 298.000
15.06500 302.000
15.08000 323.000
15.09500 318.000
15.11000 339.000
15.12500 342.000
15.14000 332.000
15.15500 332.000
15.17000 341.000
15.18500 316.000
15.20000 316.000
15.21500 326.000
15.23000 329.000
15.24500 319.000
15.26000 327.000
15.27500 328.000
15.29000 314.000
15.30500 324.000
15.32000 340.000
15.33500 345.000
15.35000 376.000
15.36500 328.000
15.38000 321.000
15.39500 312.000
15.41000 310.000
15.42500 302.000
15.44000 335.000
15.45500 344.000
15.47000 340.000
15.48500 324.000
15.50000 322.000
15.51500 322.000
15.53000 340.000
15.54500 344.000
15.56000 319.000
15.57500 319.000
15.59000 344.000
15.60500 327.000
15.62000 313.000
15.63500 332.000
15.65000 327.000
15.66500 311.000
15.68000 307.000
15.69500 307.000
15.71000 329.000
15.72500 346.000
15.74000 356.000
15.75500 318.000
15.77000 343.000
15.78500 331.000
15.80000 331.000
15.81500 351.000
15.83000 335.000
15.84500 335.000
15.86000 338.000
15.87500 331.000
15.89000 330.000
15.90500 335.000
15.92000 343.000
15.93500 334.000
15.95000 298.000
15.96500 311.000
15.98000 353.000
15.99500 365.000
16.01000 355.000
16.02500 335.000
16.04000 332.000
16.05500 359.000
16.07000 358.000
16.08500 338.000
16.10000 328.000
16.11500 342.000
16.13000 342.000
16.14500 335.000
16.16000 345.000
16.17500 336.000
16.19000 351.000
16.20500 347.000
16.22000 334.000
16.23500 320.000
16.25000 347.000
16.26500 343.000
16.28000 317.000
16.29500 331.000
16.31000 353.000
16.32500 368.000
16.34000 357.000
16.35500 346.000
16.37000 345.000
16.38500 359.000
16.40000 357.000
16.41500 345.000
16.43000 334.000
16.44500 345.000
16.46000 357.000
16.47500 352.000
16.49000 379.000
16.50500 342.000
16.52000 370.000
16.53500 358.000
16.55000 357.000
16.56500 337.000
16.58000 343.000
16.59500 366.000
16.61000 345.000
16.62500 320.000
16.64000 336.000
16.65500 348.000
16.67000 333.000
16.68500 332.000
16.70000 362.000
16.71500 353.000
16.73000 361.000
16.74500 370.000
16.76000 365.000
16.77500 331.000
16.79000 317.000
16.80500 319.000
16.82000 363.000
16.83500 370.000
16.85000 344.000
16.86500 336.000
16.88000 363.000
16.89500 371.000
16.91000 352.000
16.92500 335.000
16.94000 322.000
16.95500 344.000
16.97000 337.000
16.98500 346.000
17.00000 348.000
17.01500 332.000
17.03000 339.000
17.04500 356.000
17.06000 332.000
17.07500 339.000
17.09000 351.000
17.10500 346.000
17.12000 338.000
17.13500 350.000
17.15000 338.000
17.16500 333.000
17.18000 358.000
17.19500 346.000
17.21000 344.000
17.22500 335.000
17.24000 337.000
17.25500 333.000
17.27000 356.000
17.28500 370.000
17.30000 344.000
17.31500 343.000
17.33000 355.000
17.34500 338.000
17.36000 323.000
17.37500 344.000
17.39000 347.000
17.40500 345.000
17.42000 318.000
17.43500 355.000
17.45000 309.000
17.46500 301.000
17.48000 334.000
17.49500 332.000
17.51000 317.000
17.52500 327.000
17.54000 336.000
17.55500 323.000
17.57000 330.000
17.58500 336.000
17.60000 324.000
17.61500 319.000
17.63000 330.000
17.64500 318.000
17.66000 320.000
17.67500 333.000
17.69000 326.000
17.70500 329.000
17.72000 331.000
17.73500 324.000
17.75000 357.000
17.76500 318.000
17.78000 328.000
17.79500 309.000
17.81000 350.000
17.82500 288.000
17.84000 317.000
17.85500 321.000
17.87000 325.000
17.88500 335.000
17.90000 353.000
17.91500 322.000
17.93000 323.000
17.94500 326.000
17.96000 300.000
17.97500 321.000
17.99000 315.000
18.00500 312.000
18.02000 303.000
18.03500 327.000
18.05000 331.000
18.06500 328.000
18.08000 283.000
18.09500 312.000
18.11000 321.000
18.12500 312.000
18.14000 318.000
18.15500 320.000
18.17000 347.000
18.18500 324.000
18.20000 292.000
18.21500 305.000
18.23000 308.000
18.24500 340.000
18.26000 323.000
18.27500 346.000
18.29000 326.000
18.30500 320.000
18.32000 315.000
18.33500 331.000
18.35000 300.000
18.36500 284.000
18.38000 324.000
18.39500 306.000
18.41000 333.000
18.42500 311.000
18.44000 331.000
18.45500 334.000
18.47000 320.000
18.48500 330.000
18.50000 349.000
18.51500 293.000
18.53000 289.000
18.54500 300.000
18.56000 291.000
18.57500 294.000
18.59000 282.000
18.60500 314.000
18.62000 334.000
18.63500 302.000
18.65000 285.000
18.66500 314.000
18.68000 340.000
18.69500 325.000
18.71000 333.000
18.72500 339.000
18.74000 334.000
18.75500 311.000
18.77000 306.000
18.78500 331.000
18.80000 313.000
18.81500 323.000
18.83000 299.000
18.84500 309.000
18.86000 310.000
18.87500 339.000
18.89000 336.000
18.90500 310.000
18.92000 298.000
18.93500 335.000
18.95000 325.000
18.96500 334.000
18.98000 328.000
18.99500 319.000
19.01000 323.000
19.02500 311.000
19.04000 278.000
19.05500 306.000
19.07000 329.000
19.08500 332.000
19.10000 297.000
19.11500 300.000
19.13000 331.000
19.14500 331.000
19.16000 321.000
19.17500 340.000
19.19000 321.000
19.20500 291.000
19.22000 308.000
19.23500 326.000
19.25000 332.000
19.26500 332.000
19.28000 347.000
19.29500 333.000
19.31000 298.000
19.32500 299.000
19.34000 351.000
19.35500 329.000
19.37000 322.000
19.38500 348.000
19.40000 339.000
19.41500 354.000
19.43000 361.000
19.44500 350.000
19.46000 344.000
19.47500 358.000
19.49000 348.000
19.50500 317.000
19.52000 316.000
19.53500 312.000
19.55000 311.000
19.56500 323.000
19.58000 329.000
19.59500 297.000
19.61000 310.000
19.62500 341.000
19.64000 362.000
19.65500 348.000
19.67000 333.000
19.68500 309.000
19.70000 303.000
19.71500 314.000
19.73000 351.000
19.74500 331.000
19.76000 315.000
19.77500 321.000
19.79000 321.000
19.80500 300.000
19.82000 324.000
19.83500 336.000
19.85000 319.000
19.86500 346.000
19.88000 346.000
19.89500 334.000
19.91000 303.000
19.92500 321.000
19.94000 323.000
19.95500 305.000
19.97000 330.000
19.98500 375.000
20.00000 334.000
20.01500 319.000
20.03000 330.000
20.04500 335.000
20.06000 335.000
20.07500 336.000
20.09000 309.000
20.10500 311.000
20.12000 333.000
20.13500 316.000
20.15000 329.000
20.16500 329.000
20.18000 371.000
20.19500 345.000
20.21000 317.000
20.22500 322.000
20.24000 294.000
20.25500 345.000
20.27000 332.000
20.28500 330.000
20.30000 330.000
20.31500 358.000
20.33000 311.000
20.34500 302.000
20.36000 335.000
20.37500 337.000
20.39000 346.000
20.40500 330.000
20.42000 317.000
20.43500 326.000
20.45000 342.000
20.46500 308.000
20.48000 345.000
20.49500 342.000
20.51000 337.000
20.52500 334.000
20.54000 339.000
20.55500 345.000
20.57000 336.000
20.58500 345.000
20.60000 339.000
20.61500 332.000
20.63000 338.000
20.64500 325.000
20.66000 324.000
20.67500 336.000
20.69000 330.000
20.70500 338.000
20.72000 309.000
20.73500 329.000
20.75000 337.000
20.76500 322.000
20.78000 344.000
20.79500 353.000
20.81000 327.000
20.82500 335.000
20.84000 366.000
20.85500 366.000
20.87000 322.000
20.88500 336.000
20.90000 345.000
20.91500 327.000
20.93000 354.000
20.94500 369.000
20.96000 366.000
20.97500 363.000
20.99000 361.000
21.00500 370.000
21.02000 344.000
21.03500 345.000
21.05000 366.000
21.06500 338.000
21.08000 359.000
21.09500 341.000
21.11000 374.000
21.12500 337.000
21.14000 359.000
21.15500 411.000
21.17000 368.000
21.18500 367.000
21.20000 387.000
21.21500 408.000
21.23000 376.000
21.24500 374.000
21.26000 392.000
21.27500 389.000
21.29000 394.000
21.30500 433.000
21.32000 414.000
21.33500 429.000
21.35000 432.000
21.36500 387.000
21.38000 370.000
21.39500 400.000
21.41000 376.000
21.42500 407.000
21.44000 390.000
21.45500 372.000
21.47000 373.000
21.48500 412.000
21.50000 376.000
21.51500 374.000
21.53000 346.000
21.54500 383.000
21.56000 369.000
21.57500 382.000
21.59000 372.000
21.60500 378.000
21.62000 361.000
21.63500 358.000
21.65000 412.000
21.66500 397.000
21.68000 397.000
21.69500 344.000
21.71000 354.000
21.72500 370.000
21.74000 370.000
21.75500 373.000
21.77000 375.000
21.78500 388.000
21.80000 380.000
21.81500 374.000
21.83000 362.000
21.84500 374.000
21.86000 374.000
21.87500 376.000
21.89000 402.000
21.90500 388.000
21.92000 371.000
21.93500 390.000
21.95000 359.000
21.96500 349.000
21.98000 366.000
21.99500 387.000
22.01000 399.000
22.02500 400.000
22.04000 371.000
22.05500 360.000
22.07000 369.000
22.08500 382.000
22.10000 380.000
22.11500 355.000
22.13000 389.000
22.14500 389.000
22.16000 378.000
22.17500 368.000
22.19000 386.000
22.20500 388.000
22.22000 382.000
22.23500 340.000
22.25000 362.000
22.26500 363.000
22.28000 368.000
22.29500 374.000
22.31000 364.000
22.32500 376.000
22.34000 368.000
22.35500 393.000
22.37000 364.000
22.38500 366.000
22.40000 403.000
22.41500 388.000
22.43000 378.000
22.44500 400.000
22.46000 405.000
22.47500 370.000
22.49000 380.000
22.50500 374.000
22.52000 375.000
22.53500 417.000
22.55000 401.000
22.56500 398.000
22.58000 428.000
22.59500 403.000
22.61000 381.000
22.62500 383.000
22.64000 402.000
22.65500 414.000
22.67000 413.000
22.68500 396.000
22.70000 380.000
22.71500 399.000
22.73000 401.000
22.74500 390.000
22.76000 381.000
22.77500 378.000
22.79000 389.000
22.80500 397.000
22.82000 380.000
22.83500 419.000
22.85000 393.000
22.86500 392.000
22.88000 387.000
22.89500 395.000
22.91000 397.000
22.92500 411.000
22.94000 414.000
22.95500 415.000
22.97000 416.000
22.98500 418.000
23.00000 395.000
23.01500 404.000
23.03000 395.000
23.04500 410.000
23.06000 396.000
23.07500 404.000
23.09000 412.000
23.10500 380.000
23.12000 399.000
23.13500 424.000
23.15000 402.000
23.16500 400.000
23.18000 428.000
23.19500 442.000
23.21000 453.000
23.22500 438.000
23.24000 433.000
23.25500 410.000
23.27000 423.000
23.28500 411.000
23.30000 409.000
23.31500 418.000
23.33000 436.000
23.34500 444.000
23.36000 403.000
23.37500 398.000
23.39000 447.000
23.40500 412.000
23.42000 397.000
23.43500 425.000
23.45000 409.000
23.46500 404.000
23.48000 393.000
23.49500 408.000
23.51000 429.000
23.52500 448.000
23.54000 439.000
23.55500 421.000
23.57000 436.000
23.58500 445.000
23.60000 462.000
23.61500 449.000
23.63000 416.000
23.64500 434.000
23.66000 433.000
23.67500 419.000
23.69000 444.000
23.70500 419.000
23.72000 437.000
23.73500 456.000
23.75000 444.000
23.76500 436.000
23.78000 426.000
23.79500 465.000
23.81000 441.000
23.82500 471.000
23.84000 473.000
23.85500 468.000
23.87000 440.000
23.88500 423.000
23.90000 423.000
23.91500 406.000
23.93000 440.000
23.94500 425.000
23.96000 413.000
23.97500 450.000
23.99000 444.000
24.00500 422.000
24.02000 434.000
24.03500 429.000
24.05000 427.000
24.06500 452.000
24.08000 415.000
24.09500 390.000
24.11000 475.000
24.12500 458.000
24.14000 429.000
24.15500 442.000
24.17000 438.000
24.18500 452.000
24.20000 460.000
24.21500 464.000
24.23000 460.000
24.24500 470.000
24.26000 474.000
24.27500 456.000
24.29000 429.000
24.30500 425.000
24.32000 431.000
24.33500 482.000
24.35000 451.000
24.36500 443.000
24.38000 427.000
24.39500 453.000
24.41000 440.000
24.42500 394.000
24.44000 433.000
24.45500 467.000
24.47000 442.000
24.48500 443.000
24.50000 451.000
24.51500 469.000
24.53000 452.000
24.54500 450.000
24.56000 474.000
24.57500 452.000
24.59000 427.000
24.60500 466.000
24.62000 483.000
24.63500 513.000
24.65000 482.000
24.66500 458.000
24.68000 469.000
24.69500 471.000
24.71000 461.000
24.72500 458.000
24.74000 455.000
24.75500 420.000
24.77000 445.000
24.78500 483.000
24.80000 451.000
24.81500 451.000
24.83000 449.000
24.84500 478.000
24.86000 477.000
24.87500 483.000
24.89000 465.000
24.90500 439.000
24.92000 456.000
24.93500 458.000
24.95000 458.000
24.96500 482.000
24.98000 430.000
24.99500 462.000
25.01000 457.000
25.02500 478.000
25.04000 468.000
25.05500 449.000
25.07000 496.000
25.08500 474.000
25.10000 467.000
25.11500 462.000
25.13000 473.000
25.14500 442.000
25.16000 456.000
25.17500 449.000
25.19000 458.000
25.20500 476.000
25.22000 475.000
25.23500 473.000
25.25000 462.000
25.26500 454.000
25.28000 484.000
25.29500 474.000
25.31000 486.000
25.32500 519.000
25.34000 470.000
25.35500 500.000
25.37000 469.000
25.38500 518.000
25.40000 471.000
25.41500 454.000
25.43000 495.000
25.44500 505.000
25.46000 483.000
25.47500 495.000
25.49000 490.000
25.50500 448.000
25.52000 463.000
25.53500 488.000
25.55000 513.000
25.56500 439.000
25.58000 475.000
25.59500 535.000
25.61000 477.000
25.62500 494.000
25.64000 470.000
25.65500 473.000
25.67000 488.000
25.68500 498.000
25.70000 507.000
25.71500 526.000
25.73000 546.000
25.74500 521.000
25.76000 593.000
25.77500 559.000
25.79000 554.000
25.80500 561.000
25.82000 536.000
25.83500 506.000
25.85000 508.000
25.86500 485.000
25.88000 469.000
25.89500 528.000
25.91000 511.000
25.92500 490.000
25.94000 501.000
25.95500 498.000
25.97000 486.000
25.98500 529.000
26.00000 471.000
26.01500 485.000
26.03000 513.000
26.04500 537.000
26.06000 508.000
26.07500 542.000
26.09000 574.000
26.10500 529.000
26.12000 526.000
26.13500 551.000
26.15000 546.000
26.16500 561.000
26.18000 542.000
26.19500 528.000
26.21000 569.000
26.22500 578.000
26.24000 577.000
26.25500 604.000
26.27000 616.000
26.28500 643.000
26.30000 619.000
26.31500 576.000
26.33000 601.000
26.34500 565.000
26.36000 558.000
26.37500 532.000
26.39000 570.000
26.40500 565.000
26.42000 557.000
26.43500 553.000
26.45000 551.000
26.46500 552.000
26.48000 545.000
26.49500 592.000
26.51000 608.000
26.52500 550.000
26.54000 540.000
26.55500 587.000
26.57000 580.000
26.58500 575.000
26.60000 597.000
26.61500 530.000
26.63000 582.000
26.64500 644.000
26.66000 625.000
26.67500 585.000
26.69000 571.000
26.70500 596.000
26.72000 658.000
26.73500 640.000
26.75000 646.000
26.76500 631.000
26.78000 643.000
26.79500 651.000
26.81000 637.000
26.82500 620.000
26.84000 661.000
26.85500 690.000
26.87000 650.000
26.88500 655.000
26.90000 684.000
26.91500 686.000
26.93000 711.000
26.94500 679.000
26.96000 694.000
26.97500 696.000
26.99000 728.000
27.00500 703.000
27.02000 693.000
27.03500 708.000
27.05000 760.000
27.06500 750.000
27.08000 738.000
27.09500 779.000
27.11000 780.000
27.12500 737.000
27.14000 791.000
27.15500 812.000
27.17000 799.000
27.18500 827.000
27.20000 843.000
27.21500 844.000
27.23000 853.000
27.24500 919.000
27.26000 926.000
27.27500 973.000
27.29000 951.000
27.30500 958.000
27.32000 945.000
27.33500 1042.000
27.35000 1042.000
27.36500 1045.000
27.38000 1052.000
27.39500 1132.000
27.41000 1144.000
27.42500 1129.000
27.44000 1147.000
27.45500 1223.000
27.47000 1261.000
27.48500 1268.000
27.50000 1304.000
27.51500 1344.000
27.53000 1379.000
27.54500 1466.000
27.56000 1406.000
27.57500 1400.000
27.59000 1492.000
27.60500 1564.000
27.62000 1563.000
27.63500 1631.000
27.65000 1629.000
27.66500 1664.000
27.68000 1724.000
27.69500 1835.000
27.71000 1814.000
27.72500 1875.000
27.74000 1964.000
27.75500 1936.000
27.77000 1977.000
27.78500 2057.000
27.80000 2027.000
27.81500 2055.000
27.83000 2056.000
27.84500 2010.000
27.86000 1960.000
27.87500 1944.000
27.89000 1929.000
27.90500 1858.000
27.92000 1771.000
27.93500 1768.000
27.95000 1701.000
27.96500 1601.000
27.98000 1552.000
27.99500 1559.000
28.01000 1523.000
28.02500 1409.000
28.04000 1354.000
28.05500 1326.000
28.07000 1264.000
28.08500 1189.000
28.10000 1140.000
28.11500 1131.000
28.13000 1074.000
28.14500 1051.000
28.16000 978.000
28.17500 932.000
28.19000 913.000
28.20500 871.000
28.22000 886.000
28.23500 852.000
28.25000 812.000
28.26500 805.000
28.28000 801.000
28.29500 808.000
28.31000 798.000
28.32500 713.000
28.34000 722.000
28.35500 745.000
28.37000 753.000
28.38500 693.000
28.40000 650.000
28.41500 679.000
28.43000 670.000
28.44500 663.000
28.46000 658.000
28.47500 662.000
28.49000 640.000
28.50500 603.000
28.52000 608.000
28.53500 594.000
28.55000 588.000
28.56500 630.000
28.58000 580.000
28.59500 578.000
28.61000 579.000
28.62500 570.000
28.64000 579.000
28.65500 566.000
28.67000 589.000
28.68500 545.000
28.70000 545.000
28.71500 546.000
28.73000 574.000
28.74500 552.000
28.76000 557.000
28.77500 573.000
28.79000 552.000
28.80500 519.000
28.82000 528.000
28.83500 479.000
28.85000 547.000
28.86500 525.000
28.88000 499.000
28.89500 491.000
28.91000 523.000
28.92500 501.000
28.94000 490.000
28.95500 490.000
28.97000 502.000
28.98500 508.000
29.00000 487.000
29.01500 501.000
29.03000 532.000
29.04500 554.000
29.06000 519.000
29.07500 548.000
29.09000 503.000
29.10500 514.000
29.12000 524.000
29.13500 542.000
29.15000 500.000
29.16500 466.000
29.18000 487.000
29.19500 510.000
29.21000 493.000
29.22500 501.000
29.24000 476.000
29.25500 471.000
29.27000 508.000
29.28500 527.000
29.30000 502.000
29.31500 486.000
29.33000 542.000
29.34500 542.000
29.36000 530.000
29.37500 527.000
29.39000 592.000
29.40500 641.000
29.42000 579.000
29.43500 542.000
29.45000 533.000
29.46500 482.000
29.48000 509.000
29.49500 496.000
29.51000 499.000
29.52500 514.000
29.54000 488.000
29.55500 506.000
29.57000 502.000
29.58500 504.000
29.60000 530.000
29.61500 495.000
29.63000 516.000
29.64500 513.000
29.66000 539.000
29.67500 494.000
29.69000 498.000
29.70500 495.000
29.72000 517.000
29.73500 547.000
29.75000 550.000
29.76500 526.000
29.78000 528.000
29.79500 526.000
29.81000 516.000
29.82500 517.000
29.84000 504.000
29.85500 487.000
29.87000 478.000
29.88500 477.000
29.90000 482.000
29.91500 495.000
29.93000 473.000
29.94500 470.000
29.96000 453.000
29.97500 450.000
29.99000 446.000
30.00500 436.000
30.02000 438.000
30.03500 432.000
30.05000 456.000
30.06500 453.000
30.08000 458.000
30.09500 420.000
30.11000 440.000
30.12500 459.000
30.14000 441.000
30.15500 448.000
30.17000 436.000
30.18500 420.000
30.20000 433.000
30.21500 445.000
30.23000 410.000
30.24500 398.000
30.26000 437.000
30.27500 464.000
30.29000 440.000
30.30500 431.000
30.32000 420.000
30.33500 418.000
30.35000 405.000
30.36500 437.000
30.38000 426.000
30.39500 415.000
30.41000 419.000
30.42500 447.000
30.44000 467.000
30.45500 459.000
30.47000 457.000
30.48500 443.000
30.50000 439.000
30.51500 453.000
30.53000 437.000
30.54500 449.000
30.56000 439.000
30.57500 456.000
30.59000 442.000
30.60500 475.000
30.62000 449.000
30.63500 504.000
30.65000 477.000
30.66500 509.000
30.68000 512.000
30.69500 488.000
30.71000 509.000
30.72500 482.000
30.74000 499.000
30.75500 513.000
30.77000 516.000
30.78500 529.000
30.80000 489.000
30.81500 534.000
30.83000 505.000
30.84500 506.000
30.86000 504.000
30.87500 517.000
30.89000 486.000
30.90500 486.000
30.92000 505.000
30.93500 492.000
30.95000 476.000
30.96500 468.000
30.98000 435.000
30.99500 442.000
31.01000 456.000
31.02500 448.000
31.04000 438.000
31.05500 445.000
31.07000 444.000
31.08500 430.000
31.10000 440.000
31.11500 403.000
31.13000 422.000
31.14500 422.000
31.16000 410.000
31.17500 436.000
31.19000 411.000
31.20500 409.000
31.22000 418.000
31.23500 398.000
31.25000 368.000
31.26500 365.000
31.28000 370.000
31.29500 376.000
31.31000 395.000
31.32500 382.000
31.34000 387.000
31.35500 367.000
31.37000 374.000
31.38500 391.000
31.40000 397.000
31.41500 383.000
31.43000 415.000
31.44500 369.000
31.46000 387.000
31.47500 384.000
31.49000 387.000
31.50500 397.000
31.52000 375.000
31.53500 371.000
31.55000 365.000
31.56500 382.000
31.58000 373.000
31.59500 333.000
31.61000 340.000
31.62500 384.000
31.64000 401.000
31.65500 411.000
31.67000 387.000
31.68500 386.000
31.70000 359.000
31.71500 358.000
31.73000 365.000
31.74500 361.000
31.76000 364.000
31.77500 349.000
31.79000 347.000
31.80500 327.000
31.82000 341.000
31.83500 365.000
31.85000 355.000
31.86500 340.000
31.88000 322.000
31.89500 378.000
31.91000 370.000
31.92500 373.000
31.94000 373.000
31.95500 334.000
31.97000 328.000
31.98500 347.000
32.00000 364.000
32.01500 348.000
32.03000 339.000
32.04500 358.000
32.06000 363.000
32.07500 362.000
32.09000 371.000
32.10500 350.000
32.12000 357.000
32.13500 380.000
32.15000 350.000
32.16500 373.000
32.18000 358.000
32.19500 329.000
32.21000 339.000
32.22500 359.000
32.24000 320.000
32.25500 336.000
32.27000 345.000
32.28500 367.000
32.30000 405.000
32.31500 364.000
32.33000 338.000
32.34500 363.000
32.36000 352.000
32.37500 367.000
32.39000 392.000
32.40500 387.000
32.42000 387.000
32.43500 387.000
32.45000 362.000
32.46500 371.000
32.48000 332.000
32.49500 370.000
32.51000 375.000
32.52500 362.000
32.54000 372.000
32.55500 353.000
32.57000 369.000
32.58500 350.000
32.60000 349.000
32.61500 362.000
32.63000 332.000
32.64500 349.000
32.66000 386.000
32.67500 376.000
32.69000 327.000
32.70500 356.000
32.72000 369.000
32.73500 383.000
32.75000 373.000
32.76500 360.000
32.78000 333.000
32.79500 353.000
32.81000 341.000
32.82500 334.000
32.84000 321.000
32.85500 317.000
32.87000 334.000
32.88500 332.000
32.90000 327.000
32.91500 327.000
32.93000 337.000
32.94500 353.000
32.96000 331.000
32.97500 328.000
32.99000 314.000
33.00500 296.000
33.02000 307.000
33.03500 299.000
33.05000 312.000
33.06500 305.000
33.08000 302.000
33.09500 329.000
33.11000 323.000
33.12500 294.000
33.14000 312.000
33.15500 322.000
33.17000 301.000
33.18500 307.000
33.20000 315.000
33.21500 314.000
33.23000 303.000
33.24500 287.000
33.26000 313.000
33.27500 306.000
33.29000 286.000
33.30500 297.000
33.32000 296.000
33.33500 305.000
33.35000 310.000
33.36500 302.000
33.38000 302.000
33.39500 319.000
33.41000 298.000
33.42500 299.000
33.44000 312.000
33.45500 300.000
33.47000 299.000
33.48500 307.000
33.50000 314.000
33.51500 298.000
33.53000 273.000
33.54500 274.000
33.56000 293.000
33.57500 308.000
33.59000 319.000
33.60500 308.000
33.62000 308.000
33.63500 299.000
33.65000 274.000
33.66500 279.000
33.68000 314.000
33.69500 282.000
33.71000 304.000
33.72500 298.000
33.74000 289.000
33.75500 277.000
33.77000 290.000
33.78500 280.000
33.80000 297.000
33.81500 295.000
33.83000 291.000
33.84500 323.000
33.86000 292.000
33.87500 283.000
33.89000 276.000
33.90500 311.000
33.92000 311.000
33.93500 300.000
33.95000 301.000
33.96500 268.000
33.98000 275.000
33.99500 307.000
34.01000 281.000
34.02500 282.000
34.04000 262.000
34.05500 255.000
34.07000 269.000
34.08500 263.000
34.10000 257.000
34.11500 262.000
34.13000 275.000
34.14500 276.000
34.16000 287.000
34.17500 285.000
34.19000 276.000
34.20500 275.000
34.22000 267.000
34.23500 273.000
34.25000 287.000
34.26500 285.000
34.28000 275.000
34.29500 286.000
34.31000 296.000
34.32500 305.000
34.34000 285.000
34.35500 281.000
34.37000 268.000
34.38500 288.000
34.40000 285.000
34.41500 243.000
34.43000 282.000
34.44500 262.000
34.46000 234.000
34.47500 274.000
34.49000 264.000
34.50500 266.000
34.52000 285.000
34.53500 286.000
34.55000 290.000
34.56500 280.000
34.58000 295.000
34.59500 288.000
34.61000 290.000
34.62500 278.000
34.64000 271.000
34.65500 282.000
34.67000 269.000
34.68500 270.000
34.70000 284.000
34.71500 261.000
34.73000 276.000
34.74500 299.000
34.76000 293.000
34.77500 283.000
34.79000 287.000
34.80500 276.000
34.82000 290.000
34.83500 301.000
34.85000 259.000
34.86500 251.000
34.88000 262.000
34.89500 274.000
34.91000 301.000
34.92500 265.000
34.94000 281.000
34.95500 264.000
34.97000 259.000
34.98500 267.000
35.00000 267.000
35.01500 259.000
35.03000 276.000
35.04500 285.000
35.06000 312.000
35.07500 290.000
35.09000 296.000
35.10500 276.000
35.12000 299.000
35.13500 302.000
35.15000 271.000
35.16500 297.000
35.18000 319.000
35.19500 328.000
35.21000 293.000
35.22500 310.000
35.24000 309.000
35.25500 314.000
35.27000 297.000
35.28500 307.000
35.30000 294.000
35.31500 304.000
35.33000 299.000
35.34500 306.000
35.36000 332.000
35.37500 298.000
35.39000 329.000
35.40500 315.000
35.42000 312.000
35.43500 323.000
35.45000 341.000
35.46500 329.000
35.48000 303.000
35.49500 317.000
35.51000 338.000
35.52500 327.000
35.54000 336.000
35.55500 333.000
35.57000 338.000
35.58500 338.000
35.60000 287.000
35.61500 322.000
35.63000 328.000
35.64500 327.000
35.66000 336.000
35.67500 331.000
35.69000 349.000
35.70500 351.000
35.72000 324.000
35.73500 317.000
35.75000 341.000
35.76500 341.000
35.78000 319.000
35.79500 333.000
35.81000 329.000
35.82500 345.000
35.84000 303.000
35.85500 325.000
35.87000 327.000
35.88500 325.000
35.90000 341.000
35.91500 351.000
35.93000 320.000
35.94500 335.000
35.96000 323.000
35.97500 353.000
35.99000 319.000
36.00500 324.000
36.02000 307.000
36.03500 308.000
36.05000 314.000
36.06500 315.000
36.08000 330.000
36.09500 327.000
36.11000 295.000
36.12500 294.000
36.14000 309.000
36.15500 305.000
36.17000 316.000
36.18500 317.000
36.20000 297.000
36.21500 294.000
36.23000 297.000
36.24500 290.000
36.26000 299.000
36.27500 311.000
36.29000 290.000
36.30500 346.000
36.32000 319.000
36.33500 300.000
36.35000 289.000
36.36500 288.000
36.38000 296.000
36.39500 284.000
36.41000 290.000
36.42500 294.000
36.44000 292.000
36.45500 283.000
36.47000 299.000
36.48500 295.000
36.50000 313.000
36.51500 294.000
36.53000 302.000
36.54500 307.000
36.56000 284.000
36.57500 303.000
36.59000 307.000
36.60500 300.000
36.62000 293.000
36.63500 290.000
36.65000 288.000
36.66500 291.000
36.68000 273.000
36.69500 293.000
36.71000 272.000
36.72500 291.000
36.74000 287.000
36.75500 263.000
36.77000 286.000
36.78500 295.000
36.80000 304.000
36.81500 298.000
36.83000 299.000
36.84500 281.000
36.86000 270.000
36.87500 276.000
36.89000 303.000
36.90500 297.000
36.92000 277.000
36.93500 304.000
36.95000 323.000
36.96500 300.000
36.98000 304.000
36.99500 316.000
37.01000 310.000
37.02500 315.000
37.04000 342.000
37.05500 321.000
37.07000 323.000
37.08500 309.000
37.10000 310.000
37.11500 328.000
37.13000 292.000
37.14500 334.000
37.16000 320.000
37.17500 309.000
37.19000 294.000
37.20500 305.000
37.22000 320.000
37.23500 302.000
37.25000 307.000
37.26500 302.000
37.28000 300.000
37.29500 303.000
37.31000 302.000
37.32500 296.000
37.34000 298.000
37.35500 302.000
37.37000 297.000
37.38500 300.000
37.40000 291.000
37.41500 300.000
37.43000 299.000
37.44500 319.000
37.46000 322.000
37.47500 302.000
37.49000 309.000
37.50500 290.000
37.52000 281.000
37.53500 301.000
37.55000 288.000
37.56500 289.000
37.58000 304.000
37.59500 282.000
37.61000 285.000
37.62500 288.000
37.64000 294.000
37.65500 301.000
37.67000 303.000
37.68500 277.000
37.70000 254.000
37.71500 277.000
37.73000 286.000
37.74500 280.000
37.76000 273.000
37.77500 300.000
37.79000 296.000
37.80500 274.000
37.82000 294.000
37.83500 280.000
37.85000 275.000
37.86500 283.000
37.88000 283.000
37.89500 266.000
37.91000 260.000
37.92500 268.000
37.94000 270.000
37.95500 271.000
37.97000 259.000
37.98500 277.000
38.00000 286.000
38.01500 251.000
38.03000 238.000
38.04500 274.000
38.06000 265.000
38.07500 255.000
38.09000 238.000
38.10500 251.000
38.12000 267.000
38.13500 241.000
38.15000 252.000
38.16500 261.000
38.18000 254.000
38.19500 275.000
38.21000 265.000
38.22500 286.000
38.24000 276.000
38.25500 265.000
38.27000 251.000
38.28500 252.000
38.30000 282.000
38.31500 270.000
38.33000 253.000
38.34500 230.000
38.36000 224.000
38.37500 250.000
38.39000 268.000
38.40500 264.000
38.42000 254.000
38.43500 271.000
38.45000 274.000
38.46500 275.000
38.48000 277.000
38.49500 276.000
38.51000 259.000
38.52500 266.000
38.54000 254.000
38.55500 227.000
38.57000 253.000
38.58500 262.000
38.60000 275.000
38.61500 256.000
38.63000 242.000
38.64500 256.000
38.66000 265.000
38.67500 234.000
38.69000 251.000
38.70500 255.000
38.72000 240.000
38.73500 270.000
38.75000 256.000
38.76500 243.000
38.78000 249.000
38.79500 270.000
38.81000 263.000
38.82500 248.000
38.84000 243.000
38.85500 260.000
38.87000 280.000
38.88500 296.000
38.90000 285.000
38.91500 250.000
38.93000 264.000
38.94500 269.000
38.96000 280.000
38.97500 242.000
38.99000 249.000
39.00500 278.000
39.02000 258.000
39.03500 251.000
39.05000 256.000
39.06500 239.000
39.08000 262.000
39.09500 265.000
39.11000 256.000
39.12500 275.000
39.14000 264.000
39.15500 252.000
39.17000 268.000
39.18500 269.000
39.20000 249.000
39.21500 238.000
39.23000 256.000
39.24500 257.000
39.26000 272.000
39.27500 255.000
39.29000 262.000
39.30500 289.000
39.32000 273.000
39.33500 233.000
39.35000 250.000
39.36500 263.000
39.38000 279.000
39.39500 280.000
39.41000 288.000
39.42500 265.000
39.44000 264.000
39.45500 292.000
39.47000 287.000
39.48500 253.000
39.50000 261.000
39.51500 279.000
39.53000 242.000
39.54500 253.000
39.56000 267.000
39.57500 254.000
39.59000 257.000
39.60500 265.000
39.62000 266.000
39.63500 252.000
39.65000 257.000
39.66500 227.000
39.68000 241.000
39.69500 246.000
39.71000 253.000
39.72500 264.000
39.74000 259.000
39.75500 250.000
39.77000 259.000
39.78500 261.000
39.80000 248.000
39.81500 255.000
39.83000 270.000
39.84500 263.000
39.86000 248.000
39.87500 269.000
39.89000 259.000
39.90500 238.000
39.92000 249.000
39.93500 268.000
39.95000 256.000
39.96500 259.000
39.98000 247.000
39.99500 249.000
40.01000 246.000
40.02500 258.000
40.04000 246.000
40.05500 276.000
40.07000 234.000
40.08500 241.000
40.10000 240.000
40.11500 242.000
40.13000 236.000
40.14500 269.000
40.16000 246.000
40.17500 236.000
40.19000 251.000
40.20500 263.000
40.22000 262.000
40.23500 265.000
40.25000 265.000
40.26500 249.000
40.28000 252.000
40.29500 281.000
40.31000 278.000
40.32500 267.000
40.34000 263.000
40.35500 260.000
40.37000 273.000
40.38500 292.000
40.40000 265.000
40.41500 255.000
40.43000 265.000
40.44500 275.000
40.46000 283.000
40.47500 269.000
40.49000 236.000
40.50500 233.000
40.52000 253.000
40.53500 250.000
40.55000 247.000
40.56500 252.000
40.58000 233.000
40.59500 249.000
40.61000 260.000
40.62500 239.000
40.64000 233.000
40.65500 266.000
40.67000 273.000
40.68500 267.000
40.70000 255.000
40.71500 256.000
40.73000 252.000
40.74500 229.000
40.76000 240.000
40.77500 255.000
40.79000 242.000
40.80500 267.000
40.82000 289.000
40.83500 237.000
40.85000 257.000
40.86500 253.000
40.88000 261.000
40.89500 246.000
40.91000 254.000
40.92500 246.000
40.94000 255.000
40.95500 255.000
40.97000 255.000
40.98500 234.000
41.00000 229.000
41.01500 251.000
41.03000 253.000
41.04500 264.000
41.06000 249.000
41.07500 242.000
41.09000 239.000
41.10500 251.000
41.12000 241.000
41.13500 245.000
41.15000 236.000
41.16500 233.000
41.18000 235.000
41.19500 249.000
41.21000 235.000
41.22500 246.000
41.24000 241.000
41.25500 248.000
41.27000 262.000
41.28500 256.000
41.30000 245.000
41.31500 223.000
41.33000 219.000
41.34500 246.000
41.36000 240.000
41.37500 240.000
41.39000 219.000
41.40500 232.000
41.42000 238.000
41.43500 240.000
41.45000 239.000
41.46500 224.000
41.48000 232.000
41.49500 211.000
41.51000 243.000
41.52500 219.000
41.54000 209.000
41.55500 241.000
41.57000 250.000
41.58500 243.000
41.60000 248.000
41.61500 236.000
41.63000 247.000
41.64500 239.000
41.66000 233.000
41.67500 214.000
41.69000 257.000
41.70500 232.000
41.72000 227.000
41.73500 234.000
41.75000 235.000
41.76500 235.000
41.78000 240.000
41.79500 232.000
41.81000 237.000
41.82500 219.000
41.84000 245.000
41.85500 252.000
41.87000 242.000
41.88500 231.000
41.90000 224.000
41.91500 226.000
41.93000 232.000
41.94500 215.000
41.96000 222.000
41.97500 220.000
41.99000 234.000
42.00500 233.000
42.02000 210.000
42.03500 234.000
42.05000 226.000
42.06500 249.000
42.08000 213.000
42.09500 217.000
42.11000 223.000
42.12500 245.000
42.14000 213.000
42.15500 208.000
42.17000 224.000
42.18500 216.000
42.20000 219.000
42.21500 216.000
42.23000 246.000
42.24500 239.000
42.26000 228.000
42.27500 236.000
42.29000 200.000
42.30500 202.000
42.32000 219.000
42.33500 239.000
42.35000 231.000
42.36500 197.000
42.38000 208.000
42.39500 232.000
42.41000 217.000
42.42500 224.000
42.44000 246.000
42.45500 216.000
42.47000 225.000
42.48500 255.000
42.50000 250.000
42.51500 223.000
42.53000 222.000
42.54500 238.000
42.56000 222.000
42.57500 243.000
42.59000 245.000
42.60500 241.000
42.62000 232.000
42.63500 232.000
42.65000 231.000
42.66500 234.000
42.68000 239.000
42.69500 231.000
42.71000 213.000
42.72500 221.000
42.74000 249.000
42.75500 243.000
42.77000 239.000
42.78500 227.000
42.80000 215.000
42.81500 245.000
42.83000 254.000
42.84500 269.000
42.86000 258.000
42.87500 241.000
42.89000 249.000
42.90500 273.000
42.92000 277.000
42.93500 260.000
42.95000 251.000
42.96500 230.000
42.98000 262.000
42.99500 254.000
43.01000 259.000
43.02500 254.000
43.04000 253.000
43.05500 240.000
43.07000 243.000
43.08500 254.000
43.10000 255.000
43.11500 258.000
43.13000 274.000
43.14500 283.000
43.16000 266.000
43.17500 273.000
43.19000 272.000
43.20500 275.000
43.22000 276.000
43.23500 264.000
43.25000 277.000
43.26500 295.000
43.28000 277.000
43.29500 265.000
43.31000 270.000
43.32500 321.000
43.34000 313.000
43.35500 276.000
43.37000 263.000
43.38500 274.000
43.40000 273.000
43.41500 257.000
43.43000 248.000
43.44500 274.000
43.46000 298.000
43.47500 280.000
43.49000 264.000
43.50500 270.000
43.52000 269.000
43.53500 278.000
43.55000 254.000
43.56500 252.000
43.58000 282.000
43.59500 277.000
43.61000 275.000
43.62500 282.000
43.64000 264.000
43.65500 282.000
43.67000 290.000
43.68500 282.000
43.70000 268.000
43.71500 232.000
43.73000 258.000
43.74500 251.000
43.76000 259.000
43.77500 262.000
43.79000 248.000
43.80500 264.000
43.82000 258.000
43.83500 246.000
43.85000 244.000
43.86500 242.000
43.88000 241.000
43.89500 250.000
43.91000 256.000
43.92500 251.000
43.94000 239.000
43.95500 260.000
43.97000 246.000
43.98500 241.000
44.00000 241.000
44.01500 240.000
44.03000 245.000
44.04500 254.000
44.06000 225.000
44.07500 255.000
44.09000 264.000
44.10500 229.000
44.12000 256.000
44.13500 268.000
44.15000 268.000
44.16500 258.000
44.18000 250.000
44.19500 285.000
44.21000 257.000
44.22500 246.000
44.24000 246.000
44.25500 248.000
44.27000 241.000
44.28500 249.000
44.30000 260.000
44.31500 247.000
44.33000 248.000
44.34500 252.000
44.36000 258.000
44.37500 251.000
44.39000 263.000
44.40500 251.000
44.42000 246.000
44.43500 261.000
44.45000 248.000
44.46500 256.000
44.48000 251.000
44.49500 257.000
44.51000 256.000
44.52500 255.000
44.54000 269.000
44.55500 267.000
44.57000 285.000
44.58500 259.000
44.60000 241.000
44.61500 241.000
44.63000 247.000
44.64500 249.000
44.66000 253.000
44.67500 287.000
44.69000 246.000
44.70500 237.000
44.72000 251.000
44.73500 250.000
44.75000 249.000
44.76500 231.000
44.78000 244.000
44.79500 229.000
44.81000 241.000
44.82500 255.000
44.84000 250.000
44.85500 245.000
44.87000 240.000
44.88500 251.000
44.90000 260.000
44.91500 252.000
44.93000 262.000
44.94500 246.000
44.96000 229.000
44.97500 234.000
44.99000 249.000
45.00500 253.000
45.02000 243.000
45.03500 237.000
45.05000 235.000
45.06500 249.000
45.08000 229.000
45.09500 245.000
45.11000 261.000
45.12500 229.000
45.14000 239.000
45.15500 241.000
45.17000 236.000
45.18500 236.000
45.20000 228.000
45.21500 238.000
45.23000 241.000
45.24500 221.000
45.26000 226.000
45.27500 231.000
45.29000 230.000
45.30500 214.000
45.32000 240.000
45.33500 241.000
45.35000 241.000
45.36500 233.000
45.38000 247.000
45.39500 227.000
45.41000 223.000
45.42500 234.000
45.44000 219.000
45.45500 235.000
45.47000 253.000
45.48500 231.000
45.50000 202.000
45.51500 235.000
45.53000 243.000
45.54500 247.000
45.56000 230.000
45.57500 207.000
45.59000 207.000
45.60500 208.000
45.62000 199.000
45.63500 239.000
45.65000 253.000
45.66500 245.000
45.68000 225.000
45.69500 212.000
45.71000 220.000
45.72500 203.000
45.74000 218.000
45.75500 226.000
45.77000 243.000
45.78500 233.000
45.80000 217.000
45.81500 205.000
45.83000 244.000
45.84500 217.000
45.86000 211.000
45.87500 247.000
45.89000 215.000
45.90500 216.000
45.92000 224.000
45.93500 233.000
45.95000 213.000
45.96500 227.000
45.98000 232.000
45.99500 230.000
46.01000 232.000
46.02500 218.000
46.04000 235.000
46.05500 225.000
46.07000 222.000
46.08500 223.000
46.10000 213.000
46.11500 222.000
46.13000 221.000
46.14500 216.000
46.16000 210.000
46.17500 211.000
46.19000 212.000
46.20500 210.000
46.22000 206.000
46.23500 194.000
46.25000 197.000
46.26500 203.000
46.28000 216.000
46.29500 237.000
46.31000 215.000
46.32500 219.000
46.34000 214.000
46.35500 228.000
46.37000 197.000
46.38500 213.000
46.40000 217.000
46.41500 216.000
46.43000 206.000
46.44500 207.000
46.46000 220.000
46.47500 223.000
46.49000 226.000
46.50500 210.000
46.52000 211.000
46.53500 225.000
46.55000 225.000
46.56500 210.000
46.58000 208.000
46.59500 223.000
46.61000 211.000
46.62500 217.000
46.64000 215.000
46.65500 221.000
46.67000 209.000
46.68500 208.000
46.70000 216.000
46.71500 213.000
46.73000 222.000
46.74500 226.000
46.76000 230.000
46.77500 242.000
46.79000 222.000
46.80500 224.000
46.82000 221.000
46.83500 209.000
46.85000 218.000
46.86500 204.000
46.88000 217.000
46.89500 214.000
46.91000 213.000
46.92500 218.000
46.94000 205.000
46.95500 202.000
46.97000 203.000
46.98500 197.000
47.00000 186.000
47.01500 191.000
47.03000 210.000
47.04500 188.000
47.06000 194.000
47.07500 184.000
47.09000 213.000
47.10500 207.000
47.12000 214.000
47.13500 202.000
47.15000 209.000
47.16500 224.000
47.18000 213.000
47.19500 206.000
47.21000 210.000
47.22500 213.000
47.24000 186.000
47.25500 191.000
47.27000 200.000
47.28500 188.000
47.30000 193.000
47.31500 197.000
47.33000 203.000
47.34500 208.000
47.36000 218.000
47.37500 205.000
47.39000 218.000
47.40500 197.000
47.42000 202.000
47.43500 191.000
47.45000 178.000
47.46500 193.000
47.48000 206.000
47.49500 188.000
47.51000 194.000
47.52500 217.000
47.54000 214.000
47.55500 213.000
47.57000 206.000
47.58500 196.000
47.60000 192.000
47.61500 204.000
47.63000 212.000
47.64500 206.000
47.66000 204.000
47.67500 190.000
47.69000 196.000
47.70500 209.000
47.72000 192.000
47.73500 204.000
47.75000 203.000
47.76500 203.000
47.78000 193.000
47.79500 204.000
47.81000 176.000
47.82500 178.000
47.84000 190.000
47.85500 189.000
47.87000 188.000
47.88500 226.000
47.90000 215.000
47.91500 203.000
47.93000 192.000
47.94500 206.000
47.96000 191.000
47.97500 202.000
47.99000 202.000
48.00500 195.000
48.02000 220.000
48.03500 212.000
48.05000 188.000
48.06500 192.000
48.08000 186.000
48.09500 201.000
48.11000 219.000
48.12500 211.000
48.14000 194.000
48.15500 211.000
48.17000 196.000
48.18500 198.000
48.20000 193.000
48.21500 196.000
48.23000 181.000
48.24500 198.000
48.26000 193.000
48.27500 207.000
48.29000 207.000
48.30500 173.000
48.32000 198.000
48.33500 188.000
48.35000 193.000
48.36500 189.000
48.38000 201.000
48.39500 199.000
48.41000 203.000
48.42500 197.000
48.44000 181.000
48.45500 195.000
48.47000 196.000
48.48500 208.000
48.50000 211.000
48.51500 203.000
48.53000 210.000
48.54500 213.000
48.56000 226.000
48.57500 203.000
48.59000 203.000
48.60500 198.000
48.62000 210.000
48.63500 220.000
48.65000 218.000
48.66500 216.000
48.68000 211.000
48.69500 197.000
48.71000 201.000
48.72500 180.000
48.74000 191.000
48.75500 192.000
48.77000 189.000
48.78500 169.000
48.80000 180.000
48.81500 190.000
48.83000 197.000
48.84500 198.000
48.86000 209.000
48.87500 188.000
48.89000 181.000
48.90500 189.000
48.92000 189.000
48.93500 182.000
48.95000 194.000
48.96500 206.000
48.98000 202.000
48.99500 198.000
49.01000 195.000
49.02500 177.000
49.04000 190.000
49.05500 198.000
49.07000 191.000
49.08500 192.000
49.10000 202.000
49.11500 207.000
49.13000 184.000
49.14500 188.000
49.16000 194.000
49.17500 212.000
49.19000 205.000
49.20500 198.000
49.22000 192.000
49.23500 187.000
49.25000 179.000
49.26500 190.000
49.28000 192.000
49.29500 185.000
49.31000 183.000
49.32500 212.000
49.34000 194.000
49.35500 179.000
49.37000 179.000
49.38500 207.000
49.40000 190.000
49.41500 179.000
49.43000 179.000
49.44500 189.000
49.46000 190.000
49.47500 195.000
49.49000 184.000
49.50500 182.000
49.52000 178.000
49.53500 192.000
49.55000 184.000
49.56500 159.000
49.58000 176.000
49.59500 175.000
49.61000 172.000
49.62500 178.000
49.64000 174.000
49.65500 165.000
49.67000 199.000
49.68500 192.000
49.70000 219.000
49.71500 203.000
49.73000 174.000
49.74500 164.000
49.76000 154.000
49.77500 187.000
49.79000 180.000
49.80500 180.000
49.82000 194.000
49.83500 196.000
49.85000 190.000
49.86500 186.000
49.88000 186.000
49.89500 177.000
49.91000 201.000
49.92500 183.000
49.94000 185.000
49.95500 189.000
49.97000 180.000
49.98500 187.000
50.00000 170.000
50.01500 191.000
50.03000 187.000
50.04500 163.000
50.06000 179.000
50.07500 180.000
50.09000 187.000
50.10500 189.000
50.12000 182.000
50.13500 198.000
50.15000 211.000
50.16500 195.000
50.18000 181.000
50.19500 191.000
50.21000 200.000
50.22500 189.000
50.24000 204.000
50.25500 194.000
50.27000 185.000
50.28500 191.000
50.30000 198.000
50.31500 198.000
50.33000 187.000
50.34500 191.000
50.36000 182.000
50.37500 208.000
50.39000 198.000
50.40500 189.000
50.42000 191.000
50.43500 199.000
50.45000 184.000
50.46500 180.000
50.48000 172.000
50.49500 195.000
50.51000 191.000
50.52500 181.000
50.54000 180.000
50.55500 187.000
50.57000 171.000
50.58500 186.000
50.60000 199.000
50.61500 181.000
50.63000 178.000
50.64500 165.000
50.66000 187.000
50.67500 171.000
50.69000 202.000
50.70500 192.000
50.72000 199.000
50.73500 189.000
50.75000 166.000
50.76500 199.000
50.78000 220.000
50.79500 183.000
50.81000 203.000
50.82500 191.000
50.84000 198.000
50.85500 180.000
50.87000 172.000
50.88500 189.000
50.90000 182.000
50.91500 189.000
50.93000 193.000
50.94500 196.000
50.96000 194.000
50.97500 202.000
50.99000 199.000
51.00500 190.000
51.02000 188.000
51.03500 189.000
51.05000 179.000
51.06500 177.000
51.08000 185.000
51.09500 194.000
51.11000 211.000
51.12500 183.000
51.14000 195.000
51.15500 190.000
51.17000 190.000
51.18500 189.000
51.20000 177.000
51.21500 188.000
51.23000 186.000
51.24500 198.000
51.26000 189.000
51.27500 202.000
51.29000 186.000
51.30500 192.000
51.32000 186.000
51.33500 193.000
51.35000 184.000
51.36500 176.000
51.38000 185.000
51.39500 193.000
51.41000 201.000
51.42500 191.000
51.44000 186.000
51.45500 194.000
51.47000 187.000
51.48500 183.000
51.50000 187.000
51.51500 194.000
51.53000 200.000
51.54500 188.000
51.56000 184.000
51.57500 168.000
51.59000 183.000
51.60500 183.000
51.62000 202.000
51.63500 185.000
51.65000 159.000
51.66500 175.000
51.68000 203.000
51.69500 197.000
51.71000 192.000
51.72500 199.000
51.74000 191.000
51.75500 190.000
51.77000 185.000
51.78500 199.000
51.80000 204.000
51.81500 190.000
51.83000 181.000
51.84500 173.000
51.86000 182.000
51.87500 181.000
51.89000 196.000
51.90500 220.000
51.92000 198.000
51.93500 177.000
51.95000 181.000
51.96500 200.000
51.98000 181.000
51.99500 219.000
52.01000 185.000
52.02500 204.000
52.04000 192.000
52.05500 185.000
52.07000 193.000
52.08500 183.000
52.10000 182.000
52.11500 190.000
52.13000 193.000
52.14500 185.000
52.16000 173.000
52.17500 192.000
52.19000 174.000
52.20500 160.000
52.22000 170.000
52.23500 187.000
52.25000 183.000
52.26500 191.000
52.28000 197.000
52.29500 202.000
52.31000 190.000
52.32500 189.000
52.34000 190.000
52.35500 190.000
52.37000 181.000
52.38500 172.000
52.40000 195.000
52.41500 167.000
52.43000 172.000
52.44500 197.000
52.46000 188.000
52.47500 182.000
52.49000 164.000
52.50500 178.000
52.52000 180.000
52.53500 192.000
52.55000 200.000
52.56500 181.000
52.58000 198.000
52.59500 177.000
52.61000 163.000
52.62500 162.000
52.64000 160.000
52.65500 191.000
52.67000 214.000
52.68500 200.000
52.70000 180.000
52.71500 150.000
52.73000 169.000
52.74500 175.000
52.76000 189.000
52.77500 186.000
52.79000 174.000
52.80500 188.000
52.82000 190.000
52.83500 202.000
52.85000 181.000
52.86500 184.000
52.88000 169.000
52.89500 192.000
52.91000 185.000
52.92500 184.000
52.94000 187.000
52.95500 188.000
52.97000 172.000
52.98500 194.000
53.00000 198.000
53.01500 185.000
53.03000 170.000
53.04500 168.000
53.06000 191.000
53.07500 171.000
53.09000 174.000
53.10500 179.000
53.12000 173.000
53.13500 178.000
53.15000 172.000
53.16500 196.000
53.18000 176.000
53.19500 180.000
53.21000 179.000
53.22500 192.000
53.24000 202.000
53.25500 190.000
53.27000 194.000
53.28500 218.000
53.30000 179.000
53.31500 190.000
53.33000 171.000
53.34500 173.000
53.36000 191.000
53.37500 195.000
53.39000 163.000
53.40500 188.000
53.42000 186.000
53.43500 172.000
53.45000 167.000
53.46500 187.000
53.48000 183.000
53.49500 168.000
53.51000 169.000
53.52500 181.000
53.54000 184.000
53.55500 192.000
53.57000 174.000
53.58500 187.000
53.60000 195.000
53.61500 163.000
53.63000 158.000
53.64500 170.000
53.66000 202.000
53.67500 191.000
53.69000 171.000
53.70500 193.000
53.72000 187.000
53.73500 187.000
53.75000 188.000
53.76500 185.000
53.78000 182.000
53.79500 195.000
53.81000 193.000
53.82500 184.000
53.84000 174.000
53.85500 186.000
53.87000 185.000
53.88500 210.000
53.90000 184.000
53.91500 169.000
53.93000 205.000
53.94500 187.000
53.96000 187.000
53.97500 184.000
53.99000 179.000
54.00500 173.000
54.02000 186.000
54.03500 180.000
54.05000 189.000
54.06500 189.000
54.08000 195.000
54.09500 205.000
54.11000 185.000
54.12500 194.000
54.14000 168.000
54.15500 169.000
54.17000 161.000
54.18500 173.000
54.20000 187.000
54.21500 186.000
54.23000 192.000
54.24500 193.000
54.26000 177.000
54.27500 182.000
54.29000 184.000
54.30500 182.000
54.32000 182.000
54.33500 184.000
54.35000 174.000
54.36500 191.000
54.38000 168.000
54.39500 170.000
54.41000 184.000
54.42500 187.000
54.44000 180.000
54.45500 196.000
54.47000 177.000
54.48500 162.000
54.50000 170.000
54.51500 199.000
54.53000 177.000
54.54500 168.000
54.56000 172.000
54.57500 176.000
54.59000 182.000
54.60500 167.000
54.62000 172.000
54.63500 181.000
54.65000 185.000
54.66500 188.000
54.68000 181.000
54.69500 198.000
54.71000 188.000
54.72500 175.000
54.74000 193.000
54.75500 190.000
54.77000 186.000
54.78500 170.000
54.80000 169.000
54.81500 177.000
54.83000 158.000
54.84500 188.000
54.86000 164.000
54.87500 195.000
54.89000 193.000
54.90500 181.000
54.92000 174.000
54.93500 163.000
54.95000 190.000
54.96500 190.000
54.98000 178.000
54.99500 182.000
55.01000 185.000
55.02500 181.000
55.04000 188.000
55.05500 172.000
55.07000 178.000
55.08500 208.000
55.10000 182.000
55.11500 166.000
55.13000 183.000
55.14500 177.000
55.16000 177.000
55.17500 190.000
55.19000 204.000
55.20500 156.000
55.22000 165.000
55.23500 177.000
55.25000 164.000
55.26500 166.000
55.28000 171.000
55.29500 180.000
55.31000 182.000
55.32500 196.000
55.34000 175.000
55.35500 180.000
55.37000 160.000
55.38500 158.000
55.40000 177.000
55.41500 175.000
55.43000 168.000
55.44500 169.000
55.46000 173.000
55.47500 186.000
55.49000 165.000
55.50500 158.000
55.52000 172.000
55.53500 168.000
55.55000 184.000
55.56500 174.000
55.58000 156.000
55.59500 162.000
55.61000 171.000
55.62500 179.000
55.64000 159.000
55.65500 161.000
55.67000 196.000
55.68500 182.000
55.70000 155.000
55.71500 153.000
55.73000 161.000
55.74500 147.000
55.76000 174.000
55.77500 169.000
55.79000 171.000
55.80500 156.000
55.82000 163.000
55.83500 169.000
55.85000 175.000
55.86500 164.000
55.88000 170.000
55.89500 170.000
55.91000 161.000
55.92500 140.000
55.94000 163.000
55.95500 173.000
55.97000 191.000
55.98500 183.000
56.00000 155.000
56.01500 163.000
56.03000 180.000
56.04500 169.000
56.06000 191.000
56.07500 179.000
56.09000 168.000
56.10500 169.000
56.12000 183.000
56.13500 177.000
56.15000 163.000
56.16500 159.000
56.18000 177.000
56.19500 168.000
56.21000 189.000
56.22500 188.000
56.24000 172.000
56.25500 165.000
56.27000 168.000
56.28500 179.000
56.30000 181.000
56.31500 190.000
56.33000 193.000
56.34500 174.000
56.36000 165.000
56.37500 187.000
56.39000 195.000
56.40500 202.000
56.42000 189.000
56.43500 198.000
56.45000 169.000
56.46500 165.000
56.48000 171.000
56.49500 183.000
56.51000 199.000
56.52500 188.000
56.54000 188.000
56.55500 184.000
56.57000 176.000
56.58500 196.000
56.60000 170.000
56.61500 172.000
56.63000 178.000
56.64500 181.000
56.66000 186.000
56.67500 193.000
56.69000 177.000
56.70500 179.000
56.72000 178.000
56.73500 194.000
56.75000 175.000
56.76500 187.000
56.78000 172.000
56.79500 176.000
56.81000 185.000
56.82500 193.000
56.84000 189.000
56.85500 191.000
56.87000 203.000
56.88500 170.000
56.90000 180.000
56.91500 176.000
56.93000 186.000
56.94500 196.000
56.96000 210.000
56.97500 185.000
56.99000 191.000
57.00500 209.000
57.02000 191.000
57.03500 171.000
57.05000 177.000
57.06500 185.000
57.08000 178.000
57.09500 190.000
57.11000 197.000
57.12500 177.000
57.14000 173.000
57.15500 181.000
57.17000 179.000
57.18500 195.000
57.20000 188.000
57.21500 192.000
57.23000 201.000
57.24500 190.000
57.26000 206.000
57.27500 179.000
57.29000 170.000
57.30500 185.000
57.32000 190.000
57.33500 195.000
57.35000 175.000
57.36500 194.000
57.38000 209.000
57.39500 190.000
57.41000 184.000
57.42500 187.000
57.44000 212.000
57.45500 194.000
57.47000 201.000
57.48500 181.000
57.50000 213.000
57.51500 213.000
57.53000 207.000
57.54500 187.000
57.56000 185.000
57.57500 181.000
57.59000 195.000
57.60500 187.000
57.62000 204.000
57.63500 206.000
57.65000 205.000
57.66500 186.000
57.68000 175.000
57.69500 180.000
57.71000 196.000
57.72500 195.000
57.74000 189.000
57.75500 177.000
57.77000 172.000
57.78500 164.000
57.80000 187.000
57.81500 186.000
57.83000 179.000
57.84500 195.000
57.86000 179.000
57.87500 192.000
57.89000 216.000
57.90500 201.000
57.92000 177.000
57.93500 176.000
57.95000 181.000
57.96500 197.000
57.98000 194.000
57.99500 191.000
58.01000 183.000
58.02500 200.000
58.04000 183.000
58.05500 172.000
58.07000 182.000
58.08500 182.000
58.10000 172.000
58.11500 163.000
58.13000 178.000
58.14500 188.000
58.16000 177.000
58.17500 179.000
58.19000 172.000
58.20500 182.000
58.22000 178.000
58.23500 168.000
58.25000 176.000
58.26500 182.000
58.28000 175.000
58.29500 184.000
58.31000 173.000
58.32500 178.000
58.34000 165.000
58.35500 158.000
58.37000 161.000
58.38500 182.000
58.40000 181.000
58.41500 186.000
58.43000 177.000
58.44500 191.000
58.46000 175.000
58.47500 171.000
58.49000 176.000
58.50500 165.000
58.52000 159.000
58.53500 180.000
58.55000 196.000
58.56500 176.000
58.58000 162.000
58.59500 174.000
58.61000 167.000
58.62500 180.000
58.64000 174.000
58.65500 172.000
58.67000 185.000
58.68500 187.000
58.70000 188.000
58.71500 162.000
58.73000 187.000
58.74500 167.000
58.76000 171.000
58.77500 168.000
58.79000 162.000
58.80500 174.000
58.82000 166.000
58.83500 160.000
58.85000 173.000
58.86500 155.000
58.88000 162.000
58.89500 170.000
58.91000 157.000
58.92500 146.000
58.94000 161.000
58.95500 158.000
58.97000 159.000
58.98500 147.000
59.00000 156.000
59.01500 163.000
59.03000 169.000
59.04500 167.000
59.06000 163.000
59.07500 166.000
59.09000 176.000
59.10500 163.000
59.12000 151.000
59.13500 148.000
59.15000 157.000
59.16500 150.000
59.18000 160.000
59.19500 158.000
59.21000 163.000
59.22500 188.000
59.24000 189.000
59.25500 152.000
59.27000 148.000
59.28500 162.000
59.30000 159.000
59.31500 168.000
59.33000 147.000
59.34500 167.000
59.36000 140.000
59.37500 138.000
59.39000 161.000
59.40500 160.000
59.42000 173.000
59.43500 151.000
59.45000 171.000
59.46500 171.000
59.48000 151.000
59.49500 159.000
59.51000 152.000
59.52500 152.000
59.54000 161.000
59.55500 174.000
59.57000 169.000
59.58500 170.000
59.60000 158.000
59.61500 156.000
59.63000 157.000
59.64500 162.000
59.66000 161.000
59.67500 142.000
59.69000 163.000
59.70500 163.000
59.72000 170.000
59.73500 142.000
59.75000 142.000
59.76500 174.000
59.78000 157.000
59.79500 161.000
59.81000 169.000
59.82500 160.000
59.84000 153.000
59.85500 147.000
59.87000 154.000
59.88500 164.000
59.90000 156.000
59.91500 166.000
59.93000 157.000
59.94500 150.000
59.96000 148.000
59.97500 162.000
59.99000 147.000
60.00500 154.000
60.02000 159.000
60.03500 143.000
60.05000 149.000
60.06500 155.000
60.08000 156.000
60.09500 152.000
60.11000 157.000
60.12500 153.000
60.14000 147.000
60.15500 156.000
60.17000 149.000
60.18500 151.000
60.20000 156.000
60.21500 160.000
60.23000 154.000
60.24500 160.000
60.26000 158.000
60.27500 159.000
60.29000 164.000
60.30500 180.000
60.32000 170.000
60.33500 140.000
60.35000 165.000
60.36500 167.000
60.38000 136.000
60.39500 140.000
60.41000 158.000
60.42500 163.000
60.44000 156.000
60.45500 140.000
60.47000 161.000
60.48500 161.000
60.50000 143.000
60.51500 153.000
60.53000 151.000
60.54500 148.000
60.56000 154.000
60.57500 161.000
60.59000 154.000
60.60500 163.000
60.62000 146.000
60.63500 157.000
60.65000 180.000
60.66500 167.000
60.68000 164.000
60.69500 175.000
60.71000 163.000
60.72500 164.000
60.74000 178.000
60.75500 168.000
60.77000 159.000
60.78500 138.000
60.80000 145.000
60.81500 163.000
60.83000 152.000
60.84500 135.000
60.86000 169.000
60.87500 160.000
60.89000 149.000
60.90500 175.000
60.92000 157.000
60.93500 165.000
60.95000 171.000
60.96500 163.000
60.98000 169.000
60.99500 148.000
61.01000 158.000
61.02500 154.000
61.04000 151.000
61.05500 141.000
61.07000 146.000
61.08500 158.000
61.10000 151.000
61.11500 156.000
61.13000 157.000
61.14500 151.000
61.16000 152.000
61.17500 157.000
61.19000 132.000
61.20500 158.000
61.22000 156.000
61.23500 137.000
61.25000 145.000
61.26500 153.000
61.28000 173.000
61.29500 144.000
61.31000 159.000
61.32500 165.000
61.34000 150.000
61.35500 153.000
61.37000 152.000
61.38500 163.000
61.40000 153.000
61.41500 169.000
61.43000 154.000
61.44500 142.000
61.46000 143.000
61.47500 154.000
61.49000 161.000
61.50500 169.000
61.52000 154.000
61.53500 143.000
61.55000 153.000
61.56500 152.000
61.58000 145.000
61.59500 148.000
61.61000 130.000
61.62500 153.000
61.64000 161.000
61.65500 151.000
61.67000 152.000
61.68500 132.000
61.70000 146.000
61.71500 166.000
61.73000 164.000
61.74500 175.000
61.76000 163.000
61.77500 162.000
61.79000 162.000
61.80500 156.000
61.82000 152.000
61.83500 160.000
61.85000 140.000
61.86500 144.000
61.88000 161.000
61.89500 131.000
61.91000 167.000
61.92500 145.000
61.94000 158.000
61.95500 160.000
61.97000 177.000
61.98500 174.000
