    2.000      565
    2.015      572
    2.030      542
    2.045      572
    2.060      530
    2.075      525
    2.090      532
    2.105      496
    2.120      506
    2.135      461
    2.150      444
    2.165      443
    2.180      476
    2.195      425
    2.210      415
    2.225      451
    2.240      422
    2.255      437
    2.270      404
    2.285      393
    2.300      381
    2.315      381
    2.330      365
    2.345      389
    2.360      373
    2.375      350
    2.390      375
    2.405      354
    2.420      333
    2.435      328
    2.450      332
    2.465      338
    2.480      341
    2.495      331
    2.510      310
    2.525      312
    2.540      319
    2.555      343
    2.570      318
    2.585      288
    2.600      291
    2.615      316
    2.630      281
    2.645      271
    2.660      283
    2.675      277
    2.690      262
    2.705      255
    2.720      256
    2.735      265
    2.750      284
    2.765      274
    2.780      253
    2.795      263
    2.810      256
    2.825      274
    2.840      254
    2.855      257
    2.870      256
    2.885      257
    2.900      263
    2.915      248
    2.930      251
    2.945      249
    2.960      257
    2.975      262
    2.990      228
    3.005      236
    3.020      234
    3.035      242
    3.050      217
    3.065      225
    3.080      228
    3.095      237
    3.110      225
    3.125      227
    3.140      198
    3.155      201
    3.170      197
    3.185      214
    3.200      230
    3.215      256
    3.230      229
    3.245      199
    3.260      221
    3.275      222
    3.290      222
    3.305      200
    3.320      219
    3.335      226
    3.350      197
    3.365      209
    3.380      196
    3.395      202
    3.410      208
    3.425      183
    3.440      183
    3.455      195
    3.470      217
    3.485      219
    3.500      198
    3.515      222
    3.530      223
    3.545      231
    3.560      210
    3.575      192
    3.590      185
    3.605      209
    3.620      176
    3.635      198
    3.650      218
    3.665      214
    3.680      209
    3.695      201
    3.710      183
    3.725      190
    3.740      221
    3.755      200
    3.770      198
    3.785      207
    3.800      198
    3.815      179
    3.830      195
    3.845      189
    3.860      200
    3.875      191
    3.890      214
    3.905      188
    3.920      209
    3.935      210
    3.950      190
    3.965      184
    3.980      179
    3.995      188
    4.010      190
    4.025      188
    4.040      216
    4.055      223
    4.070      186
    4.085      186
    4.100      200
    4.115      202
    4.130      206
    4.145      199
    4.160      180
    4.175      189
    4.190      201
    4.205      195
    4.220      192
    4.235      196
    4.250      181
    4.265      196
    4.280      190
    4.295      186
    4.310      170
    4.325      195
    4.340      195
    4.355      183
    4.370      165
    4.385      182
    4.400      175
    4.415      179
    4.430      176
    4.445      196
    4.460      193
    4.475      198
    4.490      183
    4.505      182
    4.520      192
    4.535      183
    4.550      182
    4.565      195
    4.580      178
    4.595      181
    4.610      196
    4.625      187
    4.640      176
    4.655      171
    4.670      168
    4.685      169
    4.700      189
    4.715      182
    4.730      189
    4.745      182
    4.760      181
    4.775      201
    4.790      167
    4.805      177
    4.820      171
    4.835      183
    4.850      174
    4.865      176
    4.880      178
    4.895      172
    4.910      176
    4.925      173
    4.940      180
    4.955      184
    4.970      196
    4.985      185
    5.000      186
    5.015      171
    5.030      171
    5.045      183
    5.060      171
    5.075      171
    5.090      164
    5.105      167
    5.120      173
    5.135      178
    5.150      156
    5.165      186
    5.180      168
    5.195      178
    5.210      174
    5.225      200
    5.240      200
    5.255      165
    5.270      181
    5.285      179
    5.300      183
    5.315      193
    5.330      173
    5.345      186
    5.360      181
    5.375      176
    5.390      201
    5.405      193
    5.420      172
    5.435      176
    5.450      164
    5.465      171
    5.480      164
    5.495      188
    5.510      201
    5.525      184
    5.540      193
    5.555      182
    5.570      207
    5.585      201
    5.600      186
    5.615      196
    5.630      200
    5.645      175
    5.660      171
    5.675      178
    5.690      180
    5.705      179
    5.720      184
    5.735      176
    5.750      187
    5.765      181
    5.780      180
    5.795      194
    5.810      193
    5.825      186
    5.840      200
    5.855      208
    5.870      200
    5.885      203
    5.900      229
    5.915      232
    5.930      223
    5.945      211
    5.960      235
    5.975      257
    5.990      253
    6.005      289
    6.020      289
    6.035      295
    6.050      308
    6.065      318
    6.080      336
    6.095      398
    6.110      476
    6.125      491
    6.140      510
    6.155      562
    6.170      496
    6.185      352
    6.200      285
    6.215      247
    6.230      250
    6.245      202
    6.260      191
    6.275      194
    6.290      193
    6.305      205
    6.320      209
    6.335      179
    6.350      186
    6.365      194
    6.380      193
    6.395      184
    6.410      171
    6.425      193
    6.440      183
    6.455      184
    6.470      174
    6.485      174
    6.500      178
    6.515      199
    6.530      184
    6.545      179
    6.560      188
    6.575      177
    6.590      175
    6.605      176
    6.620      185
    6.635      184
    6.650      189
    6.665      168
    6.680      162
    6.695      179
    6.710      191
    6.725      189
    6.740      173
    6.755      157
    6.770      166
    6.785      175
    6.800      172
    6.815      179
    6.830      171
    6.845      172
    6.860      183
    6.875      160
    6.890      149
    6.905      156
    6.920      166
    6.935      176
    6.950      201
    6.965      175
    6.980      186
    6.995      189
    7.010      201
    7.025      183
    7.040      192
    7.055      167
    7.070      181
    7.085      197
    7.100      172
    7.115      167
    7.130      163
    7.145      176
    7.160      175
    7.175      176
    7.190      183
    7.205      177
    7.220      171
    7.235      207
    7.250      203
    7.265      198
    7.280      182
    7.295      177
    7.310      171
    7.325      170
    7.340      175
    7.355      178
    7.370      162
    7.385      188
    7.400      204
    7.415      165
    7.430      173
    7.445      173
    7.460      158
    7.475      167
    7.490      157
    7.505      150
    7.520      170
    7.535      184
    7.550      172
    7.565      160
    7.580      203
    7.595      185
    7.610      175
    7.625      176
    7.640      188
    7.655      190
    7.670      174
    7.685      181
    7.700      190
    7.715      184
    7.730      179
    7.745      170
    7.760      174
    7.775      190
    7.790      183
    7.805      176
    7.820      189
    7.835      181
    7.850      165
    7.865      151
    7.880      183
    7.895      167
    7.910      180
    7.925      184
    7.940      177
    7.955      178
    7.970      180
    7.985      179
    8.000      177
    8.015      189
    8.030      176
    8.045      181
    8.060      201
    8.075      184
    8.090      179
    8.105      185
    8.120      168
    8.135      173
    8.150      156
    8.165      175
    8.180      182
    8.195      187
    8.210      183
    8.225      184
    8.240      174
    8.255      174
    8.270      169
    8.285      195
    8.300      184
    8.315      170
    8.330      180
    8.345      185
    8.360      201
    8.375      176
    8.390      165
    8.405      180
    8.420      204
    8.435      189
    8.450      172
    8.465      167
    8.480      182
    8.495      192
    8.510      193
    8.525      184
    8.540      180
    8.555      173
    8.570      179
    8.585      183
    8.600      189
    8.615      184
    8.630      187
    8.645      179
    8.660      166
    8.675      171
    8.690      175
    8.705      170
    8.720      175
    8.735      182
    8.750      173
    8.765      190
    8.780      177
    8.795      153
    8.810      165
    8.825      185
    8.840      177
    8.855      185
    8.870      187
    8.885      181
    8.900      186
    8.915      185
    8.930      174
    8.945      188
    8.960      181
    8.975      184
    8.990      195
    9.005      183
    9.020      179
    9.035      173
    9.050      170
    9.065      164
    9.080      186
    9.095      179
    9.110      193
    9.125      188
    9.140      174
    9.155      177
    9.170      177
    9.185      170
    9.200      174
    9.215      180
    9.230      157
    9.245      168
    9.260      169
    9.275      179
    9.290      185
    9.305      165
    9.320      180
    9.335      177
    9.350      169
    9.365      167
    9.380      175
    9.395      187
    9.410      179
    9.425      174
    9.440      156
    9.455      194
    9.470      187
    9.485      185
    9.500      174
    9.515      184
    9.530      179
    9.545      179
    9.560      166
    9.575      182
    9.590      178
    9.605      182
    9.620      188
    9.635      175
    9.650      162
    9.665      188
    9.680      184
    9.695      163
    9.710      184
    9.725      188
    9.740      179
    9.755      198
    9.770      193
    9.785      176
    9.800      187
    9.815      185
    9.830      172
    9.845      171
    9.860      182
    9.875      184
    9.890      171
    9.905      189
    9.920      191
    9.935      181
    9.950      200
    9.965      186
    9.980      185
    9.995      183
   10.010      187
   10.025      170
   10.040      188
   10.055      181
   10.070      169
   10.085      168
   10.100      165
   10.115      173
   10.130      171
   10.145      183
   10.160      188
   10.175      187
   10.190      177
   10.205      181
   10.220      182
   10.235      189
   10.250      189
   10.265      181
   10.280      185
   10.295      187
   10.310      182
   10.325      187
   10.340      191
   10.355      197
   10.370      179
   10.385      175
   10.400      183
   10.415      192
   10.430      212
   10.445      192
   10.460      174
   10.475      163
   10.490      164
   10.505      181
   10.520      181
   10.535      190
   10.550      207
   10.565      193
   10.580      184
   10.595      199
   10.610      206
   10.625      206
   10.640      186
   10.655      168
   10.670      190
   10.685      186
   10.700      186
   10.715      192
   10.730      186
   10.745      186
   10.760      204
   10.775      171
   10.790      193
   10.805      202
   10.820      192
   10.835      192
   10.850      177
   10.865      180
   10.880      208
   10.895      208
   10.910      185
   10.925      190
   10.940      211
   10.955      208
   10.970      187
   10.985      206
   11.000      192
   11.015      200
   11.030      199
   11.045      181
   11.060      189
   11.075      213
   11.090      199
   11.105      187
   11.120      187
   11.135      187
   11.150      210
   11.165      205
   11.180      196
   11.195      212
   11.210      200
   11.225      211
   11.240      199
   11.255      211
   11.270      186
   11.285      176
   11.300      193
   11.315      196
   11.330      179
   11.345      197
   11.360      190
   11.375      180
   11.390      183
   11.405      196
   11.420      211
   11.435      202
   11.450      174
   11.465      203
   11.480      187
   11.495      176
   11.510      190
   11.525      182
   11.540      197
   11.555      204
   11.570      190
   11.585      189
   11.600      214
   11.615      208
   11.630      184
   11.645      181
   11.660      182
   11.675      190
   11.690      168
   11.705      189
   11.720      203
   11.735      203
   11.750      210
   11.765      183
   11.780      216
   11.795      206
   11.810      219
   11.825      196
   11.840      211
   11.855      209
   11.870      221
   11.885      234
   11.900      197
   11.915      210
   11.930      234
   11.945      235
   11.960      225
   11.975      219
   11.990      225
   12.005      245
   12.020      282
   12.035      286
   12.050      269
   12.065      320
   12.080      326
   12.095      346
   12.110      381
   12.125      459
   12.140      460
   12.155      550
   12.170      628
   12.185      720
   12.200      833
   12.215      901
   12.230     1005
   12.245     1067
   12.260     1129
   12.275     1142
   12.290     1251
   12.305     1280
   12.320     1281
   12.335     1131
   12.350      879
   12.365      639
   12.380      453
   12.395      396
   12.410      353
   12.425      321
   12.440      323
   12.455      304
   12.470      317
   12.485      298
   12.500      292
   12.515      300
   12.530      272
   12.545      289
   12.560      314
   12.575      269
   12.590      282
   12.605      260
   12.620      276
   12.635      271
   12.650      270
   12.665      265
   12.680      259
   12.695      283
   12.710      267
   12.725      260
   12.740      248
   12.755      260
   12.770      249
   12.785      256
   12.800      256
   12.815      278
   12.830      255
   12.845      266
   12.860      270
   12.875      265
   12.890      278
   12.905      261
   12.920      246
   12.935      268
   12.950      261
   12.965      246
   12.980      253
   12.995      241
   13.010      244
   13.025      246
   13.040      259
   13.055      263
   13.070      250
   13.085      246
   13.100      248
   13.115      245
   13.130      256
   13.145      263
   13.160      269
   13.175      266
   13.190      259
   13.205      267
   13.220      290
   13.235      271
   13.250      277
   13.265      279
   13.280      303
   13.295      308
   13.310      304
   13.325      330
   13.340      349
   13.355      345
   13.370      356
   13.385      375
   13.400      364
   13.415      366
   13.430      416
   13.445      350
   13.460      332
   13.475      310
   13.490      288
   13.505      283
   13.520      273
   13.535      261
   13.550      244
   13.565      255
   13.580      283
   13.595      274
   13.610      263
   13.625      256
   13.640      265
   13.655      247
   13.670      238
   13.685      255
   13.700      266
   13.715      225
   13.730      240
   13.745      234
   13.760      250
   13.775      239
   13.790      219
   13.805      221
   13.820      227
   13.835      223
   13.850      237
   13.865      250
   13.880      209
   13.895      215
   13.910      227
   13.925      223
   13.940      218
   13.955      225
   13.970      233
   13.985      230
   14.000      195
   14.015      202
   14.030      222
   14.045      219
   14.060      216
   14.075      237
   14.090      225
   14.105      225
   14.120      212
   14.135      212
   14.150      214
   14.165      228
   14.180      231
   14.195      225
   14.210      230
   14.225      220
   14.240      229
   14.255      206
   14.270      240
   14.285      212
   14.300      225
   14.315      228
   14.330      219
   14.345      209
   14.360      216
   14.375      222
   14.390      230
   14.405      217
   14.420      209
   14.435      211
   14.450      223
   14.465      213
   14.480      220
   14.495      231
   14.510      216
   14.525      228
   14.540      242
   14.555      207
   14.570      227
   14.585      221
   14.600      214
   14.615      213
   14.630      222
   14.645      220
   14.660      216
   14.675      220
   14.690      210
   14.705      191
   14.720      221
   14.735      198
   14.750      191
   14.765      236
   14.780      231
   14.795      212
   14.810      213
   14.825      199
   14.840      224
   14.855      199
   14.870      210
   14.885      219
   14.900      214
   14.915      217
   14.930      219
   14.945      227
   14.960      235
   14.975      234
   14.990      222
   15.005      217
   15.020      218
   15.035      211
   15.050      208
   15.065      211
   15.080      224
   15.095      212
   15.110      208
   15.125      231
   15.140      230
   15.155      203
   15.170      222
   15.185      215
   15.200      198
   15.215      225
   15.230      217
   15.245      200
   15.260      189
   15.275      206
   15.290      217
   15.305      220
   15.320      218
   15.335      211
   15.350      206
   15.365      191
   15.380      209
   15.395      222
   15.410      221
   15.425      215
   15.440      204
   15.455      209
   15.470      211
   15.485      226
   15.500      194
   15.515      211
   15.530      257
   15.545      208
   15.560      216
   15.575      217
   15.590      210
   15.605      204
   15.620      223
   15.635      216
   15.650      212
   15.665      228
   15.680      234
   15.695      210
   15.710      233
   15.725      219
   15.740      216
   15.755      207
   15.770      205
   15.785      193
   15.800      169
   15.815      184
   15.830      213
   15.845      238
   15.860      235
   15.875      219
   15.890      205
   15.905      219
   15.920      238
   15.935      219
   15.950      205
   15.965      209
   15.980      227
   15.995      233
   16.010      215
   16.025      214
   16.040      218
   16.055      232
   16.070      207
   16.085      216
   16.100      230
   16.115      204
   16.130      188
   16.145      210
   16.160      210
   16.175      201
   16.190      210
   16.205      224
   16.220      222
   16.235      246
   16.250      226
   16.265      244
   16.280      235
   16.295      253
   16.310      238
   16.325      214
   16.340      237
   16.355      215
   16.370      241
   16.385      243
   16.400      256
   16.415      232
   16.430      245
   16.445      251
   16.460      237
   16.475      239
   16.490      260
   16.505      230
   16.520      246
   16.535      252
   16.550      236
   16.565      235
   16.580      234
   16.595      248
   16.610      238
   16.625      231
   16.640      203
   16.655      236
   16.670      239
   16.685      226
   16.700      229
   16.715      214
   16.730      212
   16.745      223
   16.760      231
   16.775      226
   16.790      230
   16.805      237
   16.820      222
   16.835      235
   16.850      225
   16.865      229
   16.880      251
   16.895      254
   16.910      264
   16.925      215
   16.940      227
   16.955      235
   16.970      238
   16.985      230
   17.000      248
   17.015      243
   17.030      226
   17.045      213
   17.060      225
   17.075      224
   17.090      237
   17.105      232
   17.120      258
   17.135      222
   17.150      235
   17.165      227
   17.180      222
   17.195      232
   17.210      215
   17.225      218
   17.240      234
   17.255      222
   17.270      227
   17.285      224
   17.300      241
   17.315      247
   17.330      229
   17.345      221
   17.360      257
   17.375      245
   17.390      231
   17.405      204
   17.420      227
   17.435      218
   17.450      221
   17.465      231
   17.480      231
   17.495      239
   17.510      225
   17.525      230
   17.540      241
   17.555      241
   17.570      234
   17.585      219
   17.600      218
   17.615      222
   17.630      233
   17.645      254
   17.660      268
   17.675      254
   17.690      243
   17.705      212
   17.720      232
   17.735      226
   17.750      237
   17.765      224
   17.780      256
   17.795      260
   17.810      225
   17.825      233
   17.840      233
   17.855      245
   17.870      250
   17.885      255
   17.900      254
   17.915      226
   17.930      220
   17.945      229
   17.960      252
   17.975      244
   17.990      256
   18.005      271
   18.020      275
   18.035      271
   18.050      275
   18.065      280
   18.080      256
   18.095      284
   18.110      302
   18.125      264
   18.140      257
   18.155      270
   18.170      256
   18.185      265
   18.200      238
   18.215      236
   18.230      247
   18.245      242
   18.260      220
   18.275      214
   18.290      237
   18.305      227
   18.320      229
   18.335      249
   18.350      239
   18.365      236
   18.380      261
   18.395      256
   18.410      251
   18.425      260
   18.440      255
   18.455      253
   18.470      273
   18.485      270
   18.500      267
   18.515      274
   18.530      287
   18.545      279
   18.560      289
   18.575      287
   18.590      249
   18.605      228
   18.620      256
   18.635      233
   18.650      245
   18.665      209
   18.680      252
   18.695      261
   18.710      232
   18.725      247
   18.740      246
   18.755      246
   18.770      243
   18.785      258
   18.800      259
   18.815      259
   18.830      264
   18.845      233
   18.860      249
   18.875      251
   18.890      250
   18.905      242
   18.920      248
   18.935      261
   18.950      232
   18.965      234
   18.980      259
   18.995      231
   19.010      247
   19.025      254
   19.040      241
   19.055      249
   19.070      235
   19.085      212
   19.100      232
   19.115      242
   19.130      245
   19.145      256
   19.160      252
   19.175      243
   19.190      251
   19.205      259
   19.220      229
   19.235      231
   19.250      251
   19.265      238
   19.280      266
   19.295      247
   19.310      259
   19.325      272
   19.340      272
   19.355      290
   19.370      296
   19.385      299
   19.400      295
   19.415      261
   19.430      291
   19.445      283
   19.460      305
   19.475      309
   19.490      313
   19.505      321
   19.520      288
   19.535      286
   19.550      287
   19.565      273
   19.580      271
   19.595      302
   19.610      355
   19.625      330
   19.640      314
   19.655      297
   19.670      278
   19.685      248
   19.700      247
   19.715      253
   19.730      260
   19.745      252
   19.760      245
   19.775      281
   19.790      257
   19.805      230
   19.820      261
   19.835      258
   19.850      249
   19.865      253
   19.880      252
   19.895      250
   19.910      239
   19.925      249
   19.940      246
   19.955      241
   19.970      259
   19.985      234
   20.000      260
   20.015      265
   20.030      252
   20.045      262
   20.060      253
   20.075      250
   20.090      258
   20.105      244
   20.120      263
   20.135      263
   20.150      238
   20.165      229
   20.180      233
   20.195      237
   20.210      254
   20.225      256
   20.240      259
   20.255      237
   20.270      255
   20.285      242
   20.300      241
   20.315      250
   20.330      257
   20.345      259
   20.360      250
   20.375      223
   20.390      256
   20.405      255
   20.420      253
   20.435      241
   20.450      233
   20.465      239
   20.480      239
   20.495      237
   20.510      264
   20.525      237
   20.540      258
   20.555      259
   20.570      274
   20.585      264
   20.600      258
   20.615      256
   20.630      262
   20.645      250
   20.660      272
   20.675      264
   20.690      265
   20.705      239
   20.720      254
   20.735      254
   20.750      275
   20.765      263
   20.780      251
   20.795      267
   20.810      269
   20.825      261
   20.840      242
   20.855      249
   20.870      253
   20.885      265
   20.900      251
   20.915      250
   20.930      252
   20.945      263
   20.960      260
   20.975      261
   20.990      254
   21.005      233
   21.020      276
   21.035      270
   21.050      228
   21.065      246
   21.080      266
   21.095      249
   21.110      252
   21.125      268
   21.140      261
   21.155      266
   21.170      249
   21.185      276
   21.200      249
   21.215      260
   21.230      264
   21.245      267
   21.260      262
   21.275      257
   21.290      243
   21.305      294
   21.320      282
   21.335      264
   21.350      249
   21.365      228
   21.380      266
   21.395      275
   21.410      295
   21.425      264
   21.440      264
   21.455      269
   21.470      283
   21.485      269
   21.500      273
   21.515      294
   21.530      273
   21.545      275
   21.560      300
   21.575      283
   21.590      280
   21.605      280
   21.620      280
   21.635      284
   21.650      274
   21.665      290
   21.680      290
   21.695      275
   21.710      275
   21.725      267
   21.740      274
   21.755      260
   21.770      296
   21.785      275
   21.800      266
   21.815      271
   21.830      268
   21.845      275
   21.860      285
   21.875      275
   21.890      259
   21.905      279
   21.920      264
   21.935      288
   21.950      289
   21.965      259
   21.980      284
   21.995      284
   22.010      257
   22.025      279
   22.040      302
   22.055      298
   22.070      290
   22.085      299
   22.100      296
   22.115      303
   22.130      303
   22.145      294
   22.160      306
   22.175      308
   22.190      292
   22.205      296
   22.220      286
   22.235      275
   22.250      268
   22.265      273
   22.280      269
   22.295      269
   22.310      257
   22.325      273
   22.340      277
   22.355      247
   22.370      272
   22.385      281
   22.400      294
   22.415      262
   22.430      252
   22.445      252
   22.460      283
   22.475      281
   22.490      289
   22.505      262
   22.520      282
   22.535      278
   22.550      255
   22.565      267
   22.580      267
   22.595      269
   22.610      286
   22.625      279
   22.640      275
   22.655      281
   22.670      269
   22.685      267
   22.700      276
   22.715      279
   22.730      264
   22.745      257
   22.760      253
   22.775      272
   22.790      272
   22.805      281
   22.820      280
   22.835      293
   22.850      263
   22.865      271
   22.880      282
   22.895      254
   22.910      263
   22.925      266
   22.940      275
   22.955      300
   22.970      277
   22.985      265
   23.000      254
   23.015      279
   23.030      273
   23.045      281
   23.060      297
   23.075      282
   23.090      281
   23.105      280
   23.120      277
   23.135      282
   23.150      268
   23.165      293
   23.180      292
   23.195      294
   23.210      303
   23.225      293
   23.240      303
   23.255      283
   23.270      276
   23.285      302
   23.300      285
   23.315      278
   23.330      269
   23.345      297
   23.360      298
   23.375      286
   23.390      294
   23.405      302
   23.420      303
   23.435      292
   23.450      286
   23.465      296
   23.480      292
   23.495      287
   23.510      285
   23.525      306
   23.540      295
   23.555      292
   23.570      295
   23.585      294
   23.600      286
   23.615      300
   23.630      267
   23.645      269
   23.660      272
   23.675      273
   23.690      301
   23.705      281
   23.720      298
   23.735      305
   23.750      287
   23.765      260
   23.780      287
   23.795      288
   23.810      269
   23.825      252
   23.840      285
   23.855      284
   23.870      278
   23.885      280
   23.900      307
   23.915      264
   23.930      266
   23.945      276
   23.960      262
   23.975      296
   23.990      286
   24.005      261
   24.020      263
   24.035      258
   24.050      291
   24.065      299
   24.080      268
   24.095      304
   24.110      283
   24.125      277
   24.140      288
   24.155      279
   24.170      276
   24.185      266
   24.200      288
   24.215      290
   24.230      271
   24.245      267
   24.260      267
   24.275      249
   24.290      262
   24.305      294
   24.320      270
   24.335      243
   24.350      269
   24.365      270
   24.380      265
   24.395      254
   24.410      264
   24.425      286
   24.440      287
   24.455      301
   24.470      286
   24.485      292
   24.500      272
   24.515      269
   24.530      291
   24.545      304
   24.560      295
   24.575      299
   24.590      288
   24.605      295
   24.620      292
   24.635      284
   24.650      302
   24.665      328
   24.680      307
   24.695      302
   24.710      299
   24.725      323
   24.740      320
   24.755      322
   24.770      329
   24.785      335
   24.800      367
   24.815      328
   24.830      301
   24.845      304
   24.860      320
   24.875      316
   24.890      303
   24.905      306
   24.920      322
   24.935      317
   24.950      297
   24.965      280
   24.980      285
   24.995      312
   25.010      305
   25.025      315
   25.040      295
   25.055      309
   25.070      305
   25.085      283
   25.100      305
   25.115      326
   25.130      326
   25.145      307
   25.160      318
   25.175      313
   25.190      311
   25.205      324
   25.220      353
   25.235      350
   25.250      349
   25.265      312
   25.280      326
   25.295      302
   25.310      316
   25.325      319
   25.340      327
   25.355      333
   25.370      305
   25.385      323
   25.400      325
   25.415      303
   25.430      316
   25.445      337
   25.460      341
   25.475      294
   25.490      315
   25.505      315
   25.520      309
   25.535      324
   25.550      327
   25.565      326
   25.580      345
   25.595      363
   25.610      336
   25.625      322
   25.640      352
   25.655      359
   25.670      338
   25.685      372
   25.700      376
   25.715      406
   25.730      445
   25.745      455
   25.760      488
   25.775      486
   25.790      457
   25.805      493
   25.820      466
   25.835      487
   25.850      489
   25.865      441
   25.880      422
   25.895      419
   25.910      409
   25.925      405
   25.940      385
   25.955      382
   25.970      377
   25.985      364
   26.000      362
   26.015      400
   26.030      408
   26.045      376
   26.060      377
   26.075      372
   26.090      396
   26.105      389
   26.120      405
   26.135      410
   26.150      424
   26.165      420
   26.180      448
   26.195      441
   26.210      432
   26.225      439
   26.240      490
   26.255      525
   26.270      522
   26.285      524
   26.300      563
   26.315      539
   26.330      557
   26.345      580
   26.360      586
   26.375      545
   26.390      513
   26.405      539
   26.420      512
   26.435      525
   26.450      524
   26.465      477
   26.480      492
   26.495      507
   26.510      500
   26.525      471
   26.540      461
   26.555      475
   26.570      494
   26.585      481
   26.600      490
   26.615      502
   26.630      468
   26.645      473
   26.660      504
   26.675      493
   26.690      507
   26.705      514
   26.720      534
   26.735      545
   26.750      583
   26.765      545
   26.780      572
   26.795      561
   26.810      581
   26.825      620
   26.840      599
   26.855      574
   26.870      599
   26.885      557
   26.900      570
   26.915      532
   26.930      552
   26.945      559
   26.960      641
   26.975      610
   26.990      588
   27.005      645
   27.020      666
   27.035      681
   27.050      646
   27.065      669
   27.080      703
   27.095      720
   27.110      740
   27.125      739
   27.140      727
   27.155      786
   27.170      796
   27.185      706
   27.200      790
   27.215      742
   27.230      700
   27.245      687
   27.260      670
   27.275      692
   27.290      742
   27.305      707
   27.320      715
   27.335      721
   27.350      674
   27.365      647
   27.380      669
   27.395      718
   27.410      711
   27.425      702
   27.440      673
   27.455      671
   27.470      673
   27.485      686
   27.500      658
   27.515      706
   27.530      631
   27.545      669
   27.560      760
   27.575      737
   27.590      722
   27.605      689
   27.620      703
   27.635      717
   27.650      683
   27.665      743
   27.680      749
   27.695      818
   27.710      797
   27.725      754
   27.740      778
   27.755      803
   27.770      799
   27.785      837
   27.800      830
   27.815      849
   27.830      818
   27.845      855
   27.860      836
   27.875      740
   27.890      719
   27.905      696
   27.920      663
   27.935      659
   27.950      579
   27.965      572
   27.980      575
   27.995      505
   28.010      515
   28.025      541
   28.040      467
   28.055      504
   28.070      488
   28.085      455
   28.100      449
   28.115      429
   28.130      431
   28.145      428
   28.160      425
   28.175      418
   28.190      406
   28.205      401
   28.220      389
   28.235      387
   28.250      404
   28.265      353
   28.280      374
   28.295      368
   28.310      368
   28.325      389
   28.340      364
   28.355      335
   28.370      353
   28.385      350
   28.400      359
   28.415      361
   28.430      357
   28.445      348
   28.460      311
   28.475      355
   28.490      362
   28.505      326
   28.520      310
   28.535      332
   28.550      317
   28.565      323
   28.580      300
   28.595      311
   28.610      311
   28.625      301
   28.640      312
   28.655      302
   28.670      324
   28.685      307
   28.700      293
   28.715      284
   28.730      290
   28.745      296
   28.760      287
   28.775      326
   28.790      286
   28.805      297
   28.820      307
   28.835      315
   28.850      319
   28.865      307
   28.880      307
   28.895      292
   28.910      311
   28.925      283
   28.940      297
   28.955      292
   28.970      278
   28.985      283
   29.000      298
   29.015      293
   29.030      265
   29.045      277
   29.060      290
   29.075      257
   29.090      276
   29.105      293
   29.120      269
   29.135      248
   29.150      281
   29.165      296
   29.180      296
   29.195      299
   29.210      296
   29.225      287
   29.240      267
   29.255      246
   29.270      243
   29.285      252
   29.300      246
   29.315      258
   29.330      264
   29.345      266
   29.360      267
   29.375      264
   29.390      260
   29.405      248
   29.420      242
   29.435      241
   29.450      247
   29.465      264
   29.480      255
   29.495      246
   29.510      247
   29.525      265
   29.540      265
   29.555      238
   29.570      265
   29.585      245
   29.600      250
   29.615      273
   29.630      256
   29.645      253
   29.660      239
   29.675      245
   29.690      221
   29.705      238
   29.720      246
   29.735      264
   29.750      237
   29.765      241
   29.780      231
   29.795      251
   29.810      239
   29.825      222
   29.840      236
   29.855      253
   29.870      240
   29.885      235
   29.900      256
   29.915      248
   29.930      255
   29.945      247
   29.960      255
   29.975      245
   29.990      261
   30.005      265
   30.020      244
   30.035      262
   30.050      273
   30.065      280
   30.080      264
   30.095      281
   30.110      278
   30.125      238
   30.140      247
   30.155      271
   30.170      248
   30.185      261
   30.200      252
   30.215      245
   30.230      255
   30.245      239
   30.260      201
   30.275      237
   30.290      228
   30.305      228
   30.320      240
   30.335      259
   30.350      254
   30.365      239
   30.380      235
   30.395      219
   30.410      221
   30.425      222
   30.440      225
   30.455      225
   30.470      220
   30.485      227
   30.500      195
   30.515      216
   30.530      222
   30.545      227
   30.560      224
   30.575      231
   30.590      229
   30.605      230
   30.620      232
   30.635      237
   30.650      242
   30.665      247
   30.680      209
   30.695      239
   30.710      254
   30.725      257
   30.740      280
   30.755      248
   30.770      242
   30.785      242
   30.800      262
   30.815      253
   30.830      233
   30.845      242
   30.860      238
   30.875      228
   30.890      236
   30.905      252
   30.920      250
   30.935      261
   30.950      247
   30.965      243
   30.980      251
   30.995      236
   31.010      249
   31.025      264
   31.040      252
   31.055      276
   31.070      282
   31.085      296
   31.100      313
   31.115      315
   31.130      310
   31.145      325
   31.160      272
   31.175      279
   31.190      240
   31.205      229
   31.220      246
   31.235      226
   31.250      224
   31.265      231
   31.280      206
   31.295      236
   31.310      228
   31.325      209
   31.340      230
   31.355      208
   31.370      216
   31.385      219
   31.400      207
   31.415      203
   31.430      221
   31.445      192
   31.460      224
   31.475      227
   31.490      227
   31.505      222
   31.520      209
   31.535      198
   31.550      212
   31.565      217
   31.580      224
   31.595      229
   31.610      216
   31.625      203
   31.640      223
   31.655      201
   31.670      214
   31.685      202
   31.700      212
   31.715      221
   31.730      226
   31.745      221
   31.760      182
   31.775      187
   31.790      173
   31.805      181
   31.820      193
   31.835      215
   31.850      196
   31.865      200
   31.880      209
   31.895      183
   31.910      190
   31.925      187
   31.940      183
   31.955      188
   31.970      200
   31.985      204
   32.000      177
   32.015      190
   32.030      171
   32.045      184
   32.060      187
   32.075      195
   32.090      192
   32.105      193
   32.120      191
   32.135      187
   32.150      189
   32.165      184
   32.180      183
   32.195      189
   32.210      190
   32.225      191
   32.240      188
   32.255      195
   32.270      181
   32.285      196
   32.300      188
   32.315      183
   32.330      176
   32.345      177
   32.360      166
   32.375      177
   32.390      181
   32.405      174
   32.420      182
   32.435      171
   32.450      160
   32.465      181
   32.480      187
   32.495      187
   32.510      182
   32.525      183
   32.540      188
   32.555      168
   32.570      166
   32.585      175
   32.600      170
   32.615      194
   32.630      177
   32.645      174
   32.660      152
   32.675      142
   32.690      149
   32.705      160
   32.720      188
   32.735      189
   32.750      192
   32.765      167
   32.780      151
   32.795      172
   32.810      175
   32.825      178
   32.840      167
   32.855      200
   32.870      161
   32.885      173
   32.900      188
   32.915      205
   32.930      189
   32.945      183
   32.960      181
   32.975      171
   32.990      176
   33.005      156
   33.020      170
   33.035      177
   33.050      187
   33.065      164
   33.080      167
   33.095      170
   33.110      184
   33.125      188
   33.140      161
   33.155      187
   33.170      177
   33.185      179
   33.200      175
   33.215      205
   33.230      166
   33.245      155
   33.260      160
   33.275      186
   33.290      177
   33.305      170
   33.320      173
   33.335      166
   33.350      161
   33.365      177
   33.380      172
   33.395      180
   33.410      172
   33.425      172
   33.440      187
   33.455      179
   33.470      160
   33.485      166
   33.500      165
   33.515      155
   33.530      150
   33.545      181
   33.560      184
   33.575      172
   33.590      166
   33.605      172
   33.620      166
   33.635      189
   33.650      182
   33.665      201
   33.680      173
   33.695      178
   33.710      185
   33.725      173
   33.740      156
   33.755      196
   33.770      184
   33.785      175
   33.800      170
   33.815      169
   33.830      191
   33.845      164
   33.860      176
   33.875      204
   33.890      171
   33.905      185
   33.920      182
   33.935      180
   33.950      182
   33.965      176
   33.980      168
   33.995      168
   34.010      170
   34.025      176
   34.040      174
   34.055      169
   34.070      191
   34.085      168
   34.100      175
   34.115      155
   34.130      169
   34.145      176
   34.160      159
   34.175      158
   34.190      157
   34.205      158
   34.220      156
   34.235      155
   34.250      172
   34.265      158
   34.280      145
   34.295      155
   34.310      153
   34.325      175
   34.340      172
   34.355      158
   34.370      171
   34.385      165
   34.400      168
   34.415      158
   34.430      145
   34.445      159
   34.460      146
   34.475      159
   34.490      177
   34.505      175
   34.520      159
   34.535      152
   34.550      168
   34.565      174
   34.580      155
   34.595      151
   34.610      150
   34.625      162
   34.640      159
   34.655      168
   34.670      177
   34.685      146
   34.700      152
   34.715      162
   34.730      143
   34.745      145
   34.760      151
   34.775      166
   34.790      156
   34.805      152
   34.820      157
   34.835      167
   34.850      146
   34.865      159
   34.880      146
   34.895      143
   34.910      156
   34.925      154
   34.940      166
   34.955      152
   34.970      138
   34.985      137
   35.000      155
   35.015      137
   35.030      151
   35.045      146
   35.060      159
   35.075      172
   35.090      145
   35.105      143
   35.120      139
   35.135      159
   35.150      144
   35.165      140
   35.180      137
   35.195      154
   35.210      137
   35.225      134
   35.240      141
   35.255      159
   35.270      145
   35.285      142
   35.300      137
   35.315      152
   35.330      136
   35.345      139
   35.360      138
   35.375      136
   35.390      149
   35.405      150
   35.420      147
   35.435      157
   35.450      138
   35.465      132
   35.480      123
   35.495      129
   35.510      133
   35.525      138
   35.540      153
   35.555      136
   35.570      149
   35.585      137
   35.600      124
   35.615      140
   35.630      143
   35.645      144
   35.660      153
   35.675      148
   35.690      137
   35.705      147
   35.720      142
   35.735      137
   35.750      131
   35.765      131
   35.780      142
   35.795      133
   35.810      129
   35.825      154
   35.840      157
   35.855      149
   35.870      138
   35.885      134
   35.900      126
   35.915      143
   35.930      123
   35.945      133
   35.960      142
   35.975      145
   35.990      140
   36.005      140
   36.020      133
   36.035      137
   36.050      126
   36.065      127
   36.080      137
   36.095      149
   36.110      144
   36.125      127
   36.140      130
   36.155      141
   36.170      131
   36.185      133
   36.200      136
   36.215      134
   36.230      123
   36.245      137
   36.260      138
   36.275      120
   36.290      132
   36.305      133
   36.320      143
   36.335      137
   36.350      137
   36.365      114
   36.380      120
   36.395      132
   36.410      134
   36.425      144
   36.440      132
   36.455      136
   36.470      128
   36.485      138
   36.500      126
   36.515      124
   36.530      144
   36.545      121
   36.560      129
   36.575      118
   36.590      134
   36.605      130
   36.620      129
   36.635      142
   36.650      119
   36.665      116
   36.680      117
   36.695      134
   36.710      131
   36.725      130
   36.740      142
   36.755      144
   36.770      108
   36.785      120
   36.800      139
   36.815      123
   36.830      121
   36.845      122
   36.860      133
   36.875      118
   36.890      122
   36.905      138
   36.920      128
   36.935      125
   36.950      125
   36.965      120
   36.980      131
   36.995      118
   37.010      133
   37.025      130
   37.040      123
   37.055      128
   37.070      137
   37.085      148
   37.100      136
   37.115      136
   37.130      130
   37.145      125
   37.160      112
   37.175      127
   37.190      141
   37.205      104
   37.220      122
   37.235      127
   37.250      124
   37.265      114
   37.280      127
   37.295      127
   37.310      125
   37.325      108
   37.340      124
   37.355      116
   37.370      121
   37.385      124
   37.400      119
   37.415      135
   37.430      129
   37.445      123
   37.460      132
   37.475      134
   37.490      135
   37.505      140
   37.520      145
   37.535      148
   37.550      142
   37.565      147
   37.580      145
   37.595      137
   37.610      136
   37.625      132
   37.640      146
   37.655      124
   37.670      115
   37.685      108
   37.700      127
   37.715      116
   37.730      140
   37.745      119
   37.760      118
   37.775      118
   37.790      114
   37.805      129
   37.820      109
   37.835      116
   37.850      109
   37.865      118
   37.880      125
   37.895      114
   37.910      113
   37.925      121
   37.940      124
   37.955      138
   37.970      128
   37.985      133
   38.000      137
   38.015      111
   38.030      120
   38.045      123
   38.060      136
   38.075      143
   38.090      136
   38.105      125
   38.120      118
   38.135      120
   38.150      127
   38.165      117
   38.180      108
   38.195      119
   38.210      109
   38.225      113
   38.240      105
   38.255      115
   38.270      122
   38.285      117
   38.300      120
   38.315      116
   38.330      113
   38.345      135
   38.360      141
   38.375      120
   38.390      127
   38.405      143
   38.420      134
   38.435      116
   38.450      121
   38.465      122
   38.480      124
   38.495      127
   38.510      117
   38.525      115
   38.540      112
   38.555      118
   38.570      112
   38.585      114
   38.600      115
   38.615      127
   38.630      118
   38.645      119
   38.660      110
   38.675      121
   38.690      107
   38.705      107
   38.720      131
   38.735      129
   38.750      118
   38.765      116
   38.780      123
   38.795       98
   38.810      117
   38.825       90
   38.840      110
   38.855      123
   38.870      127
   38.885      107
   38.900      112
   38.915      133
   38.930      121
   38.945      117
   38.960      120
   38.975      108
   38.990      110
   39.005      118
   39.020      115
   39.035      111
   39.050      110
   39.065      103
   39.080      113
   39.095      119
   39.110      111
   39.125      119
   39.140      133
   39.155      126
   39.170      129
   39.185      129
   39.200      133
   39.215      104
   39.230      100
   39.245      117
   39.260      119
   39.275      116
   39.290      113
   39.305      110
   39.320      110
   39.335      108
   39.350      120
   39.365      121
   39.380      121
   39.395      128
   39.410      131
   39.425      114
   39.440      107
   39.455      111
   39.470      114
   39.485      108
   39.500      109
   39.515      115
   39.530      131
   39.545      109
   39.560      109
   39.575      125
   39.590      154
   39.605      131
   39.620      123
   39.635      110
   39.650      107
   39.665      110
   39.680      112
   39.695      123
   39.710      100
   39.725      108
   39.740      119
   39.755      130
   39.770      132
   39.785      123
   39.800      123
   39.815      107
   39.830      109
   39.845      118
   39.860      123
   39.875      119
   39.890      117
   39.905      129
   39.920      140
   39.935      125
   39.950      130
   39.965      115
   39.980      117
   39.995      111
   40.010      119
   40.025      111
   40.040      112
   40.055      121
   40.070      107
   40.085      118
   40.100      122
   40.115      119
   40.130      115
   40.145      115
   40.160      123
   40.175      126
   40.190      117
   40.205      138
   40.220      115
   40.235      117
   40.250      131
   40.265      109
   40.280      109
   40.295      128
   40.310      131
   40.325      134
   40.340      137
   40.355      127
   40.370      116
   40.385      117
   40.400      129
   40.415      126
   40.430      121
   40.445      125
   40.460      122
   40.475      136
   40.490      126
   40.505      129
   40.520      135
   40.535      113
   40.550      126
   40.565      136
   40.580      132
   40.595      145
   40.610      135
   40.625      129
   40.640      121
   40.655      126
   40.670      123
   40.685      123
   40.700      111
   40.715      117
   40.730      114
   40.745      122
   40.760      129
   40.775      128
   40.790      130
   40.805      116
   40.820      120
   40.835      123
   40.850      128
   40.865      118
   40.880      132
   40.895      133
   40.910      120
   40.925      122
   40.940      137
   40.955      118
   40.970      130
   40.985      139
   41.000      128
   41.015      136
   41.030      120
   41.045      132
   41.060      119
   41.075      124
   41.090      124
   41.105      127
   41.120      127
   41.135      137
   41.150      154
   41.165      137
   41.180      130
   41.195      127
   41.210      129
   41.225      125
   41.240      124
   41.255      125
   41.270      134
   41.285      126
   41.300      122
   41.315      132
   41.330      126
   41.345      123
   41.360      117
   41.375      120
   41.390      127
   41.405      123
   41.420      149
   41.435      132
   41.450      114
   41.465      118
   41.480      110
   41.495      104
   41.510      107
   41.525      125
   41.540      128
   41.555      113
   41.570      123
   41.585      124
   41.600      121
   41.615      120
   41.630      120
   41.645      104
   41.660      105
   41.675      132
   41.690      122
   41.705      136
   41.720      124
   41.735      110
   41.750      111
   41.765      125
   41.780      118
   41.795      123
   41.810      120
   41.825      116
   41.840      105
   41.855      117
   41.870      127
   41.885      111
   41.900      116
   41.915      126
   41.930       97
   41.945      129
   41.960      132
   41.975      125
   41.990      116
   42.005      122
   42.020      110
   42.035      126
   42.050      102
   42.065      101
   42.080      126
   42.095      116
   42.110      125
   42.125      120
   42.140      119
   42.155      119
   42.170      110
   42.185      108
   42.200      116
   42.215      108
   42.230      115
   42.245      109
   42.260      134
   42.275      121
   42.290      109
   42.305      128
   42.320      135
   42.335      118
   42.350      128
   42.365      109
   42.380      111
   42.395      114
   42.410      121
   42.425      136
   42.440      120
   42.455      103
   42.470      109
   42.485      119
   42.500      124
   42.515      114
   42.530      122
   42.545      123
   42.560      113
   42.575      115
   42.590      124
   42.605      113
   42.620      110
   42.635      116
   42.650      104
   42.665      120
   42.680      116
   42.695      107
   42.710      136
   42.725      151
   42.740      131
   42.755      132
   42.770      124
   42.785      120
   42.800      117
   42.815      127
   42.830      129
   42.845      118
   42.860      132
   42.875      136
   42.890      122
   42.905      108
   42.920      121
   42.935      113
   42.950      107
   42.965      128
   42.980      122
   42.995      122
   43.010      114
   43.025      109
   43.040      129
   43.055      113
   43.070      107
   43.085      126
   43.100      110
   43.115      113
   43.130      117
   43.145      122
   43.160      128
   43.175      130
   43.190      119
   43.205      106
   43.220      125
   43.235      122
   43.250      124
   43.265      115
   43.280      123
   43.295      108
   43.310      128
   43.325      116
   43.340      112
   43.355      101
   43.370      109
   43.385      107
   43.400      117
   43.415      127
   43.430      123
   43.445      109
   43.460      107
   43.475      121
   43.490      105
   43.505       93
   43.520      109
   43.535      119
   43.550      121
   43.565      118
   43.580      107
   43.595      126
   43.610      138
   43.625      121
   43.640      107
   43.655      115
   43.670      118
   43.685      110
   43.700      130
   43.715      116
   43.730      111
   43.745      128
   43.760      125
   43.775      123
   43.790      113
   43.805      119
   43.820      121
   43.835      120
   43.850      122
   43.865      120
   43.880      135
   43.895      112
   43.910      116
   43.925      129
   43.940      126
   43.955      111
   43.970      120
   43.985      111
   44.000      120
   44.015      115
   44.030      123
   44.045      136
   44.060      126
   44.075      135
   44.090      133
   44.105      138
   44.120      118
   44.135      125
   44.150      125
   44.165      125
   44.180      125
   44.195      129
   44.210      131
   44.225      125
   44.240      124
   44.255      121
   44.270      126
   44.285      119
   44.300      108
   44.315      129
   44.330      131
   44.345      134
   44.360      129
   44.375      136
   44.390      140
   44.405      116
   44.420      136
   44.435      137
   44.450      114
   44.465      128
   44.480      125
   44.495      122
   44.510      127
   44.525      107
   44.540      114
   44.555      111
   44.570      134
   44.585      133
   44.600      133
   44.615      134
   44.630      125
   44.645      131
   44.660      117
   44.675      113
   44.690      102
   44.705      104
   44.720      112
   44.735      116
   44.750      115
   44.765      110
   44.780      134
   44.795      121
   44.810      118
   44.825      116
   44.840      124
   44.855      136
   44.870      113
   44.885      119
   44.900      115
   44.915      130
   44.930      118
   44.945      126
   44.960      116
   44.975      109
   44.990      129
   45.005      141
   45.020      118
   45.035      104
   45.050      107
   45.065      122
   45.080      127
   45.095      129
   45.110      123
   45.125      124
   45.140      111
   45.155      101
   45.170      111
   45.185      105
   45.200      100
   45.215      126
   45.230      110
   45.245      111
   45.260      107
   45.275      115
   45.290      125
   45.305      124
   45.320      130
   45.335      113
   45.350      109
   45.365      109
   45.380       96
   45.395       96
   45.410      129
   45.425      117
   45.440      105
   45.455       98
   45.470       93
   45.485      103
   45.500       93
   45.515      113
   45.530      112
   45.545      131
   45.560      123
   45.575      117
   45.590       99
   45.605      105
   45.620      139
   45.635      118
   45.650      115
   45.665      119
   45.680      105
   45.695      109
   45.710      102
   45.725      114
   45.740      129
   45.755      107
   45.770      116
   45.785      128
   45.800      113
   45.815      108
   45.830      109
   45.845      128
   45.860      112
   45.875      100
   45.890      113
   45.905      122
   45.920      109
   45.935      115
   45.950      119
   45.965      117
   45.980      110
   45.995      110
   46.010      110
   46.025      111
   46.040      115
   46.055      108
   46.070      123
   46.085      109
   46.100       99
   46.115       92
   46.130      122
   46.145      119
   46.160      112
   46.175      118
   46.190      132
   46.205      111
   46.220      112
   46.235      117
   46.250      122
   46.265      116
   46.280      105
   46.295      118
   46.310      126
   46.325      105
   46.340      111
   46.355      119
   46.370      116
   46.385      120
   46.400      106
   46.415      100
   46.430      114
   46.445      110
   46.460      121
   46.475      116
   46.490      121
   46.505      110
   46.520      111
   46.535      110
   46.550      110
   46.565       99
   46.580      107
   46.595      109
   46.610      107
   46.625      105
   46.640      111
   46.655      115
   46.670      114
   46.685      123
   46.700      124
   46.715      127
   46.730      121
   46.745      125
   46.760      109
   46.775      112
   46.790      120
   46.805      118
   46.820      124
   46.835      135
   46.850      120
   46.865      111
   46.880      128
   46.895      126
   46.910      115
   46.925      111
   46.940      119
   46.955      126
   46.970      123
   46.985      113
   47.000      116
   47.015      108
   47.030      111
   47.045      118
   47.060      144
   47.075      115
   47.090      104
   47.105      112
   47.120       96
   47.135      106
   47.150      100
   47.165      100
   47.180      112
   47.195      114
   47.210      110
   47.225      115
   47.240      111
   47.255      114
   47.270      110
   47.285      105
   47.300      104
   47.315       84
   47.330      115
   47.345      112
   47.360      113
   47.375      107
   47.390      109
   47.405      109
   47.420      100
   47.435       99
   47.450      102
   47.465      115
   47.480      117
   47.495      129
   47.510      111
   47.525      113
   47.540      112
   47.555      110
   47.570      107
   47.585      104
   47.600      101
   47.615       95
   47.630      102
   47.645      104
   47.660       94
   47.675      108
   47.690      111
   47.705      111
   47.720      109
   47.735      108
   47.750      117
   47.765      112
   47.780       97
   47.795      110
   47.810       95
   47.825       97
   47.840      100
   47.855      122
   47.870      113
   47.885       91
   47.900      100
   47.915      116
   47.930      111
   47.945      122
   47.960       98
   47.975       85
   47.990      100
   48.005      101
   48.020      106
   48.035      101
   48.050      113
   48.065       96
   48.080       98
   48.095       98
   48.110      106
   48.125       94
   48.140       98
   48.155       99
   48.170      114
   48.185       92
   48.200      108
   48.215      104
   48.230       92
   48.245      110
   48.260      100
   48.275      120
   48.290      104
   48.305      101
   48.320      100
   48.335      101
   48.350       97
   48.365       93
   48.380       91
   48.395      101
   48.410      116
   48.425      102
   48.440       90
   48.455       87
   48.470       93
   48.485       96
   48.500      102
   48.515      111
   48.530      102
   48.545      100
   48.560       97
   48.575      102
   48.590      103
   48.605       98
   48.620       99
   48.635       94
   48.650       93
   48.665      119
   48.680      103
   48.695      110
   48.710      103
   48.725       90
   48.740      103
   48.755      110
   48.770      103
   48.785       86
   48.800       89
   48.815       86
   48.830       91
   48.845       85
   48.860       93
   48.875      105
   48.890      109
   48.905      103
   48.920       97
   48.935       86
   48.950      108
   48.965       92
   48.980       87
   48.995      110
   49.010      108
   49.025      116
   49.040      107
   49.055      103
   49.070      110
   49.085      119
   49.100      113
   49.115      108
   49.130       96
   49.145       96
   49.160      103
   49.175      109
   49.190       98
   49.205      104
   49.220      102
   49.235      113
   49.250      111
   49.265      124
   49.280      109
   49.295      107
   49.310       97
   49.325      103
   49.340      116
   49.355      129
   49.370      112
   49.385      104
   49.400      109
   49.415       92
   49.430      111
   49.445       98
   49.460       90
   49.475       97
   49.490      104
   49.505      111
   49.520      109
   49.535      112
   49.550      124
   49.565       96
   49.580       92
   49.595      119
   49.610      111
   49.625      107
   49.640      114
   49.655      106
   49.670      116
   49.685      107
   49.700       98
   49.715      111
   49.730       98
   49.745      100
   49.760      101
   49.775       92
   49.790       97
   49.805      103
   49.820       95
   49.835      105
   49.850       93
   49.865       87
   49.880      105
   49.895      103
   49.910       96
   49.925       89
   49.940       87
   49.955       91
   49.970      109
   49.985       95
   50.000       85
   50.015      103
   50.030       98
   50.045       98
   50.060      125
   50.075      103
   50.090       98
   50.105      105
   50.120       98
   50.135      102
   50.150       99
   50.165      103
   50.180      108
   50.195      122
   50.210      104
   50.225       97
   50.240      106
   50.255       94
   50.270       92
   50.285       98
   50.300       95
   50.315       98
   50.330       93
   50.345      101
   50.360       98
   50.375      101
   50.390       99
   50.405       95
   50.420      102
   50.435       91
   50.450       91
   50.465       93
   50.480       98
   50.495      115
   50.510      120
   50.525       98
   50.540       99
   50.555       92
   50.570       95
   50.585       94
   50.600       87
   50.615       80
   50.630       83
   50.645      114
   50.660       98
   50.675      104
   50.690      102
   50.705       96
   50.720       94
   50.735       92
   50.750       99
   50.765       89
   50.780       96
   50.795       93
   50.810      100
   50.825      101
   50.840      102
   50.855       95
   50.870       87
   50.885       94
   50.900       93
   50.915      108
   50.930      109
   50.945      100
   50.960       90
   50.975       93
   50.990      112
   51.005       97
   51.020      106
   51.035       96
   51.050      105
   51.065      103
   51.080       93
   51.095       91
   51.110       89
   51.125      100
   51.140      100
   51.155      114
   51.170       92
   51.185      105
   51.200      102
   51.215       94
   51.230      110
   51.245      102
   51.260      104
   51.275       87
   51.290      102
   51.305       95
   51.320      104
   51.335      104
   51.350       95
   51.365       99
   51.380       88
   51.395      116
   51.410      110
   51.425       99
   51.440       97
   51.455      106
   51.470      110
   51.485       97
   51.500       96
   51.515      101
   51.530      102
   51.545      102
   51.560       83
   51.575       93
   51.590       85
   51.605       96
   51.620       99
   51.635       89
   51.650       79
   51.665       96
   51.680      104
   51.695       89
   51.710      101
   51.725      102
   51.740      113
   51.755       93
   51.770       91
   51.785       93
   51.800       89
   51.815      111
   51.830      100
   51.845       93
   51.860       97
   51.875      105
   51.890      108
   51.905       93
   51.920      101
   51.935      102
   51.950       84
   51.965      101
   51.980      103
   51.995      113
   52.010      102
   52.025       96
   52.040      110
   52.055      110
   52.070       96
   52.085      112
   52.100      123
   52.115      119
   52.130       93
   52.145      111
   52.160      108
   52.175      108
   52.190       97
   52.205       93
   52.220       94
   52.235      103
   52.250       95
   52.265       99
   52.280       89
   52.295      106
   52.310      103
   52.325       91
   52.340       93
   52.355       97
   52.370       89
   52.385       90
   52.400       95
   52.415       95
   52.430      101
   52.445       94
   52.460       96
   52.475       96
   52.490       93
   52.505       93
   52.520       96
   52.535       93
   52.550      103
   52.565      102
   52.580       81
   52.595       94
   52.610      111
   52.625       88
   52.640      100
   52.655       88
   52.670       84
   52.685       90
   52.700      102
   52.715      100
   52.730      106
   52.745       97
   52.760       91
   52.775       96
   52.790       95
   52.805      106
   52.820      110
   52.835       96
   52.850       94
   52.865      102
   52.880      102
   52.895       83
   52.910       86
   52.925       97
   52.940       92
   52.955       85
   52.970      109
   52.985       82
   53.000       91
   53.015      102
   53.030       97
   53.045      101
   53.060       97
   53.075       98
   53.090      111
   53.105      101
   53.120      101
   53.135      105
   53.150      109
   53.165       91
   53.180      104
   53.195      102
   53.210       98
   53.225       89
   53.240       89
   53.255       98
   53.270      106
   53.285      122
   53.300      101
   53.315       92
   53.330      101
   53.345      110
   53.360      109
   53.375      102
   53.390      100
   53.405      104
   53.420      110
   53.435      113
   53.450      107
   53.465       88
   53.480       85
   53.495       86
   53.510       86
   53.525      104
   53.540       97
   53.555       91
   53.570       95
   53.585       98
   53.600       86
   53.615      104
   53.630      113
   53.645      109
   53.660       97
   53.675       93
   53.690      100
   53.705      106
   53.720      115
   53.735       96
   53.750       94
   53.765       92
   53.780       99
   53.795       96
   53.810      107
   53.825       97
   53.840       86
   53.855       92
   53.870       81
   53.885      104
   53.900      105
   53.915      102
   53.930      108
   53.945       91
   53.960       94
   53.975       89
   53.990       92
   54.005      103
   54.020      105
   54.035       92
   54.050      104
   54.065      106
   54.080       93
   54.095       99
   54.110       99
   54.125       81
   54.140       87
   54.155      104
   54.170      117
   54.185      116
   54.200      106
   54.215      103
   54.230       92
   54.245       91
   54.260       89
   54.275       85
   54.290       96
   54.305       88
   54.320      102
   54.335      102
   54.350      107
   54.365       93
   54.380       99
   54.395      102
   54.410       99
   54.425       99
   54.440       97
   54.455       93
   54.470       86
   54.485       92
   54.500       88
   54.515       89
   54.530       94
   54.545       83
   54.560      109
   54.575      102
   54.590      103
   54.605      111
   54.620      116
   54.635      111
   54.650       96
   54.665       98
   54.680       97
   54.695       94
   54.710       89
   54.725       96
   54.740      101
   54.755      100
   54.770      120
   54.785      113
   54.800      124
   54.815      120
   54.830      110
   54.845      119
   54.860      108
   54.875       90
   54.890       99
   54.905      109
   54.920       96
   54.935      100
   54.950      118
   54.965       91
   54.980      101
   54.995      111
   55.010      111
   55.025      114
   55.040      101
   55.055      111
   55.070      105
   55.085       87
   55.100       96
   55.115      103
   55.130       89
   55.145       93
   55.160      100
   55.175      104
   55.190      104
   55.205       94
   55.220      100
   55.235      104
   55.250      107
   55.265      105
   55.280      105
   55.295      103
   55.310       99
   55.325       86
   55.340      102
   55.355       97
   55.370      103
   55.385       84
   55.400       99
   55.415       97
   55.430       89
   55.445       95
   55.460      104
   55.475      101
   55.490       96
   55.505       81
   55.520       73
   55.535       94
   55.550      102
   55.565       93
   55.580      110
   55.595      103
   55.610      107
   55.625      100
   55.640       93
   55.655      103
   55.670      105
   55.685       93
   55.700      100
   55.715      110
   55.730       93
   55.745       99
   55.760      120
   55.775      106
   55.790      102
   55.805      113
   55.820       89
   55.835       97
   55.850       88
   55.865       89
   55.880       92
   55.895       92
   55.910      109
   55.925       91
   55.940      100
   55.955       98
   55.970      107
   55.985       90
   56.000       83
   56.015      106
   56.030      103
   56.045       91
   56.060      102
   56.075       99
   56.090       93
   56.105       99
   56.120       89
   56.135       99
   56.150      115
   56.165      124
   56.180      109
   56.195      101
   56.210       94
   56.225       92
   56.240       92
   56.255       98
   56.270       97
   56.285       79
   56.300       84
   56.315      102
   56.330       98
   56.345      103
   56.360       99
   56.375      104
   56.390       83
   56.405       89
   56.420       95
   56.435       98
   56.450       99
   56.465      101
   56.480      102
   56.495       95
   56.510      105
   56.525      111
   56.540      108
   56.555      109
   56.570      106
   56.585      121
   56.600       94
   56.615       96
   56.630       96
   56.645       83
   56.660       82
   56.675      108
   56.690      108
   56.705      106
   56.720       95
   56.735      103
   56.750      107
   56.765       94
   56.780      101
   56.795      106
   56.810       92
   56.825      106
   56.840       98
   56.855      105
   56.870      100
   56.885       87
   56.900       87
   56.915      103
   56.930      104
   56.945      109
   56.960      114
   56.975      105
   56.990      103
   57.005      101
   57.020      105
   57.035      109
   57.050       95
   57.065       89
   57.080       88
   57.095       95
   57.110      115
   57.125      106
   57.140      104
   57.155       90
   57.170       87
   57.185       98
   57.200      104
   57.215       87
   57.230       87
   57.245       98
   57.260       98
   57.275      116
   57.290       96
   57.305      105
   57.320       93
   57.335      100
   57.350       92
   57.365       99
   57.380      109
   57.395      108
   57.410      106
   57.425      102
   57.440       94
   57.455       99
   57.470       97
   57.485      107
   57.500       90
   57.515       86
   57.530       95
   57.545      104
   57.560      104
   57.575       92
   57.590      107
   57.605      104
   57.620       93
   57.635       79
   57.650       93
   57.665       87
   57.680       84
   57.695      101
   57.710       92
   57.725       89
   57.740       93
   57.755      103
   57.770      101
   57.785       90
   57.800       82
   57.815       95
   57.830       74
   57.845      103
   57.860       96
   57.875       88
   57.890       93
   57.905       92
   57.920       85
   57.935       90
   57.950       87
   57.965      106
   57.980      102
   57.995       88
   58.010       83
   58.025       88
   58.040       85
   58.055       87
   58.070       81
   58.085       88
   58.100       75
   58.115       80
   58.130       78
   58.145       85
   58.160       77
   58.175       84
   58.190       98
   58.205       83
   58.220       88
   58.235       82
   58.250       84
   58.265       96
   58.280      101
   58.295       83
   58.310       81
   58.325      104
   58.340       90
   58.355       88
   58.370       83
   58.385       88
   58.400       75
   58.415       77
   58.430       90
   58.445       86
   58.460       77
   58.475       84
   58.490       91
   58.505       87
   58.520      102
   58.535      101
   58.550       88
   58.565       87
   58.580       91
   58.595       84
   58.610       88
   58.625       85
   58.640       86
   58.655       90
   58.670       92
   58.685       95
   58.700       80
   58.715       79
   58.730       90
   58.745       73
   58.760       92
   58.775       86
   58.790       79
   58.805       67
   58.820       70
   58.835       81
   58.850       82
   58.865       83
   58.880       82
   58.895       71
   58.910       74
   58.925       76
   58.940       91
   58.955       80
   58.970       86
   58.985       79
   59.000      103
   59.015       93
   59.030       93
   59.045       86
   59.060       84
   59.075      101
   59.090       86
   59.105       88
   59.120       88
   59.135       86
   59.150       87
   59.165       93
   59.180       87
   59.195       87
   59.210       76
   59.225       90
   59.240       80
   59.255       80
   59.270       89
   59.285       73
   59.300       87
   59.315       86
   59.330       94
   59.345       90
   59.360       85
   59.375       94
   59.390       82
   59.405       81
   59.420      106
   59.435       98
   59.450       83
   59.465       82
   59.480       86
   59.495       83
   59.510       87
   59.525       86
   59.540       85
   59.555       85
   59.570       82
   59.585       83
   59.600       81
   59.615       80
   59.630       72
   59.645       85
   59.660       78
   59.675       76
   59.690       80
   59.705       88
   59.720       93
   59.735       78
   59.750       78
   59.765       82
   59.780       73
   59.795       78
   59.810       75
   59.825       84
   59.840       85
   59.855       84
   59.870       92
   59.885       80
   59.900       83
   59.915       90
   59.930       89
   59.945       83
   59.960      101
   59.975       82
   59.990       74
   60.005       79
   60.020       80
   60.035       89
   60.050       79
   60.065       77
   60.080       76
   60.095       97
   60.110       83
   60.125       85
   60.140       84
   60.155      102
   60.170       77
   60.185       81
   60.200       75
   60.215       78
   60.230       72
   60.245       80
   60.260       86
   60.275       93
   60.290       93
   60.305       69
   60.320       81
   60.335       78
   60.350       83
   60.365       74
   60.380       79
   60.395       75
   60.410       81
   60.425       88
   60.440       87
   60.455       81
   60.470       92
   60.485       89
   60.500       77
   60.515       87
   60.530       84
   60.545       69
   60.560       85
   60.575       84
   60.590       86
   60.605       75
   60.620       79
   60.635       84
   60.650       74
   60.665       82
   60.680       88
   60.695       78
   60.710       94
   60.725       87
   60.740       78
   60.755       82
   60.770       81
   60.785       77
   60.800       92
   60.815       85
   60.830       75
   60.845       72
   60.860       75
   60.875       78
   60.890       78
   60.905       85
   60.920       82
   60.935       87
   60.950       89
   60.965       85
   60.980       78
   60.995       73
   61.010       85
   61.025       80
   61.040       78
   61.055       76
   61.070       81
   61.085       70
   61.100       76
   61.115       81
   61.130       83
   61.145       88
   61.160       80
   61.175       72
   61.190       78
   61.205       73
   61.220       79
   61.235       78
   61.250       86
   61.265       77
   61.280       91
   61.295       77
   61.310       81
   61.325       77
   61.340       78
   61.355       79
   61.370       75
   61.385       82
   61.400       70
   61.415       74
   61.430       76
   61.445       73
   61.460       71
   61.475       77
   61.490       78
   61.505       87
   61.520       76
   61.535       89
   61.550       70
   61.565       81
   61.580       80
   61.595       82
   61.610       81
   61.625       66
   61.640       72
   61.655       81
   61.670       75
   61.685       68
   61.700       74
   61.715       79
   61.730       75
   61.745       83
   61.760       73
   61.775       83
   61.790       87
   61.805       86
   61.820       79
   61.835       85
   61.850       89
   61.865       77
   61.880       80
   61.895       77
   61.910       67
   61.925       79
   61.940       75
   61.955       71
   61.970       84
   61.985       88
