2.0 1071.0
2.015 1099.0
2.03 1118.0
2.045 1065.0
2.06 1112.0
2.075 1091.0
2.09 1174.0
2.105 1083.0
2.12 1116.0
2.135 1103.0
2.15 1131.0
2.165 1122.0
2.18 1128.0
2.195 1130.0
2.21 1095.0
2.225 1089.0
2.24 1009.0
2.255 998.0
2.27 988.0
2.285 937.0
2.3 932.0
2.315 953.0
2.33 875.0
2.345 837.0
2.36 826.0
2.375 772.0
2.39 743.0
2.405 739.0
2.42 692.0
2.435 683.0
2.45 641.0
2.465 637.0
2.48 628.0
2.495 587.0
2.51 529.0
2.525 556.0
2.54 532.0
2.555 493.0
2.57 502.0
2.585 497.0
2.6 481.0
2.615 441.0
2.63 458.0
2.645 430.0
2.66 404.0
2.675 467.0
2.69 437.0
2.705 419.0
2.72 406.0
2.735 393.0
2.75 376.0
2.765 387.0
2.78 380.0
2.795 420.0
2.81 404.0
2.825 386.0
2.84 370.0
2.855 369.0
2.87 366.0
2.885 353.0
2.9 349.0
2.915 352.0
2.93 340.0
2.945 331.0
2.96 350.0
2.975 339.0
2.99 343.0
3.005 358.0
3.02 312.0
3.035 330.0
3.05 338.0
3.065 335.0
3.08 297.0
3.095 338.0
3.11 327.0
3.125 322.0
3.14 325.0
3.155 316.0
3.17 310.0
3.185 321.0
3.2 305.0
3.215 345.0
3.23 327.0
3.245 311.0
3.26 293.0
3.275 318.0
3.29 301.0
3.305 318.0
3.32 307.0
3.335 296.0
3.35 296.0
3.365 296.0
3.38 299.0
3.395 304.0
3.41 296.0
3.425 289.0
3.44 310.0
3.455 307.0
3.47 287.0
3.485 278.0
3.5 307.0
3.515 303.0
3.53 295.0
3.545 267.0
3.56 280.0
3.575 315.0
3.59 291.0
3.605 298.0
3.62 294.0
3.635 289.0
3.65 288.0
3.665 268.0
3.68 275.0
3.695 312.0
3.71 293.0
3.725 299.0
3.74 278.0
3.755 290.0
3.77 262.0
3.785 282.0
3.8 281.0
3.815 304.0
3.83 272.0
3.845 286.0
3.86 270.0
3.875 257.0
3.89 254.0
3.905 276.0
3.92 266.0
3.935 271.0
3.95 267.0
3.965 255.0
3.98 272.0
3.995 295.0
4.01 267.0
4.025 259.0
4.04 258.0
4.055 249.0
4.07 273.0
4.085 277.0
4.1 275.0
4.115 251.0
4.13 247.0
4.145 262.0
4.16 254.0
4.175 247.0
4.19 253.0
4.205 254.0
4.22 257.0
4.235 265.0
4.25 279.0
4.265 264.0
4.28 243.0
4.295 245.0
4.31 255.0
4.325 273.0
4.34 284.0
4.355 264.0
4.37 245.0
4.385 244.0
4.4 244.0
4.415 253.0
4.43 276.0
4.445 255.0
4.46 234.0
4.475 239.0
4.49 239.0
4.505 250.0
4.52 237.0
4.535 239.0
4.55 247.0
4.565 242.0
4.58 215.0
4.595 247.0
4.61 245.0
4.625 253.0
4.64 221.0
4.655 243.0
4.67 237.0
4.685 223.0
4.7 246.0
4.715 230.0
4.73 241.0
4.745 254.0
4.76 226.0
4.775 231.0
4.79 235.0
4.805 232.0
4.82 216.0
4.835 232.0
4.85 221.0
4.865 231.0
4.88 223.0
4.895 228.0
4.91 243.0
4.925 244.0
4.94 242.0
4.955 237.0
4.97 228.0
4.985 211.0
5.0 235.0
5.015 248.0
5.03 229.0
5.045 230.0
5.06 232.0
5.075 222.0
5.09 228.0
5.105 216.0
5.12 206.0
5.135 218.0
5.15 241.0
5.165 230.0
5.18 210.0
5.195 220.0
5.21 229.0
5.225 217.0
5.24 239.0
5.255 218.0
5.27 228.0
5.285 242.0
5.3 226.0
5.315 229.0
5.33 202.0
5.345 207.0
5.36 225.0
5.375 219.0
5.39 238.0
5.405 235.0
5.42 229.0
5.435 226.0
5.45 210.0
5.465 207.0
5.48 211.0
5.495 220.0
5.51 243.0
5.525 230.0
5.54 222.0
5.555 211.0
5.57 226.0
5.585 219.0
5.6 211.0
5.615 218.0
5.63 214.0
5.645 238.0
5.66 225.0
5.675 222.0
5.69 216.0
5.705 220.0
5.72 228.0
5.735 211.0
5.75 238.0
5.765 225.0
5.78 233.0
5.795 214.0
5.81 198.0
5.825 196.0
5.84 236.0
5.855 232.0
5.87 231.0
5.885 223.0
5.9 213.0
5.915 230.0
5.93 246.0
5.945 209.0
5.96 224.0
5.975 236.0
5.99 241.0
6.005 233.0
6.02 226.0
6.035 231.0
6.05 229.0
6.065 204.0
6.08 213.0
6.095 220.0
6.11 235.0
6.125 238.0
6.14 216.0
6.155 204.0
6.17 230.0
6.185 201.0
6.2 200.0
6.215 200.0
6.23 224.0
6.245 237.0
6.26 247.0
6.275 235.0
6.29 223.0
6.305 221.0
6.32 226.0
6.335 232.0
6.35 224.0
6.365 205.0
6.38 207.0
6.395 227.0
6.41 217.0
6.425 224.0
6.44 210.0
6.455 228.0
6.47 240.0
6.485 229.0
6.5 226.0
6.515 249.0
6.53 210.0
6.545 215.0
6.56 228.0
6.575 223.0
6.59 211.0
6.605 238.0
6.62 225.0
6.635 214.0
6.65 232.0
6.665 248.0
6.68 220.0
6.695 233.0
6.71 238.0
6.725 228.0
6.74 247.0
6.755 252.0
6.77 221.0
6.785 208.0
6.8 240.0
6.815 237.0
6.83 222.0
6.845 246.0
6.86 234.0
6.875 208.0
6.89 244.0
6.905 252.0
6.92 251.0
6.935 253.0
6.95 230.0
6.965 230.0
6.98 221.0
6.995 229.0
7.01 247.0
7.025 250.0
7.04 228.0
7.055 219.0
7.07 254.0
7.085 245.0
7.1 245.0
7.115 228.0
7.13 230.0
7.145 201.0
7.16 217.0
7.175 208.0
7.19 220.0
7.205 230.0
7.22 240.0
7.235 220.0
7.25 236.0
7.265 229.0
7.28 233.0
7.295 227.0
7.31 205.0
7.325 230.0
7.34 238.0
7.355 237.0
7.37 211.0
7.385 222.0
7.4 235.0
7.415 238.0
7.43 207.0
7.445 202.0
7.46 240.0
7.475 253.0
7.49 246.0
7.505 243.0
7.52 241.0
7.535 234.0
7.55 232.0
7.565 221.0
7.58 220.0
7.595 206.0
7.61 212.0
7.625 248.0
7.64 238.0
7.655 217.0
7.67 237.0
7.685 234.0
7.7 232.0
7.715 229.0
7.73 218.0
7.745 233.0
7.76 245.0
7.775 231.0
7.79 236.0
7.805 249.0
7.82 239.0
7.835 240.0
7.85 231.0
7.865 235.0
7.88 230.0
7.895 220.0
7.91 227.0
7.925 226.0
7.94 249.0
7.955 248.0
7.97 240.0
7.985 242.0
8.0 244.0
8.015 240.0
8.03 234.0
8.045 214.0
8.06 219.0
8.075 241.0
8.09 236.0
8.105 230.0
8.12 248.0
8.135 219.0
8.15 216.0
8.165 228.0
8.18 248.0
8.195 244.0
8.21 232.0
8.225 224.0
8.24 231.0
8.255 244.0
8.27 219.0
8.285 214.0
8.3 231.0
8.315 229.0
8.33 219.0
8.345 229.0
8.36 230.0
8.375 226.0
8.39 231.0
8.405 252.0
8.42 249.0
8.435 245.0
8.45 254.0
8.465 246.0
8.48 232.0
8.495 234.0
8.51 255.0
8.525 247.0
8.54 243.0
8.555 231.0
8.57 234.0
8.585 251.0
8.6 231.0
8.615 237.0
8.63 223.0
8.645 232.0
8.66 227.0
8.675 222.0
8.69 247.0
8.705 254.0
8.72 239.0
8.735 257.0
8.75 246.0
8.765 237.0
8.78 211.0
8.795 225.0
8.81 239.0
8.825 242.0
8.84 238.0
8.855 240.0
8.87 239.0
8.885 240.0
8.9 211.0
8.915 213.0
8.93 234.0
8.945 238.0
8.96 241.0
8.975 243.0
8.99 238.0
9.005 234.0
9.02 224.0
9.035 250.0
9.05 230.0
9.065 249.0
9.08 250.0
9.095 241.0
9.11 240.0
9.125 236.0
9.14 223.0
9.155 241.0
9.17 226.0
9.185 224.0
9.2 229.0
9.215 249.0
9.23 249.0
9.245 238.0
9.26 232.0
9.275 268.0
9.29 261.0
9.305 220.0
9.32 226.0
9.335 238.0
9.35 221.0
9.365 245.0
9.38 237.0
9.395 239.0
9.41 242.0
9.425 242.0
9.44 247.0
9.455 238.0
9.47 244.0
9.485 229.0
9.5 241.0
9.515 238.0
9.53 252.0
9.545 240.0
9.56 254.0
9.575 220.0
9.59 226.0
9.605 229.0
9.62 234.0
9.635 245.0
9.65 248.0
9.665 240.0
9.68 229.0
9.695 259.0
9.71 239.0
9.725 252.0
9.74 242.0
9.755 242.0
9.77 230.0
9.785 247.0
9.8 227.0
9.815 227.0
9.83 233.0
9.845 225.0
9.86 242.0
9.875 235.0
9.89 262.0
9.905 236.0
9.92 230.0
9.935 225.0
9.95 231.0
9.965 230.0
9.98 248.0
9.995 287.0
10.01 251.0
10.025 256.0
10.04 232.0
10.055 225.0
10.07 251.0
10.085 255.0
10.1 247.0
10.115 257.0
10.13 249.0
10.145 243.0
10.16 232.0
10.175 237.0
10.19 259.0
10.205 252.0
10.22 243.0
10.235 255.0
10.25 257.0
10.265 269.0
10.28 265.0
10.295 238.0
10.31 238.0
10.325 252.0
10.34 234.0
10.355 267.0
10.37 275.0
10.385 268.0
10.4 257.0
10.415 250.0
10.43 259.0
10.445 248.0
10.46 270.0
10.475 263.0
10.49 280.0
10.505 260.0
10.52 271.0
10.535 276.0
10.55 253.0
10.565 247.0
10.58 244.0
10.595 232.0
10.61 237.0
10.625 257.0
10.64 259.0
10.655 254.0
10.67 241.0
10.685 261.0
10.7 274.0
10.715 271.0
10.73 255.0
10.745 257.0
10.76 237.0
10.775 241.0
10.79 245.0
10.805 251.0
10.82 271.0
10.835 292.0
10.85 262.0
10.865 244.0
10.88 242.0
10.895 257.0
10.91 281.0
10.925 267.0
10.94 245.0
10.955 267.0
10.97 283.0
10.985 270.0
11.0 252.0
11.015 265.0
11.03 265.0
11.045 282.0
11.06 262.0
11.075 279.0
11.09 269.0
11.105 250.0
11.12 285.0
11.135 248.0
11.15 250.0
11.165 267.0
11.18 276.0
11.195 271.0
11.21 255.0
11.225 267.0
11.24 272.0
11.255 250.0
11.27 299.0
11.285 283.0
11.3 266.0
11.315 263.0
11.33 275.0
11.345 278.0
11.36 274.0
11.375 262.0
11.39 242.0
11.405 270.0
11.42 245.0
11.435 244.0
11.45 281.0
11.465 254.0
11.48 241.0
11.495 269.0
11.51 279.0
11.525 289.0
11.54 258.0
11.555 269.0
11.57 275.0
11.585 284.0
11.6 265.0
11.615 279.0
11.63 263.0
11.645 267.0
11.66 270.0
11.675 274.0
11.69 274.0
11.705 263.0
11.72 260.0
11.735 268.0
11.75 281.0
11.765 288.0
11.78 284.0
11.795 277.0
11.81 269.0
11.825 269.0
11.84 271.0
11.855 282.0
11.87 267.0
11.885 272.0
11.9 267.0
11.915 257.0
11.93 251.0
11.945 270.0
11.96 262.0
11.975 267.0
11.99 299.0
12.005 265.0
12.02 263.0
12.035 301.0
12.05 264.0
12.065 267.0
12.08 261.0
12.095 292.0
12.11 311.0
12.125 309.0
12.14 314.0
12.155 294.0
12.17 280.0
12.185 278.0
12.2 265.0
12.215 279.0
12.23 266.0
12.245 287.0
12.26 301.0
12.275 298.0
12.29 296.0
12.305 279.0
12.32 292.0
12.335 293.0
12.35 289.0
12.365 303.0
12.38 298.0
12.395 276.0
12.41 273.0
12.425 294.0
12.44 297.0
12.455 268.0
12.47 285.0
12.485 278.0
12.5 291.0
12.515 282.0
12.53 284.0
12.545 273.0
12.56 317.0
12.575 311.0
12.59 304.0
12.605 286.0
12.62 290.0
12.635 308.0
12.65 321.0
12.665 327.0
12.68 326.0
12.695 322.0
12.71 306.0
12.725 303.0
12.74 283.0
12.755 312.0
12.77 322.0
12.785 338.0
12.8 336.0
12.815 315.0
12.83 342.0
12.845 301.0
12.86 328.0
12.875 346.0
12.89 298.0
12.905 317.0
12.92 336.0
12.935 322.0
12.95 310.0
12.965 287.0
12.98 292.0
12.995 300.0
13.01 345.0
13.025 323.0
13.04 300.0
13.055 333.0
13.07 317.0
13.085 346.0
13.1 310.0
13.115 310.0
13.13 330.0
13.145 317.0
13.16 303.0
13.175 327.0
13.19 318.0
13.205 330.0
13.22 332.0
13.235 347.0
13.25 345.0
13.265 301.0
13.28 304.0
13.295 331.0
13.31 295.0
13.325 304.0
13.34 338.0
13.355 321.0
13.37 346.0
13.385 351.0
13.4 331.0
13.415 317.0
13.43 329.0
13.445 371.0
13.46 343.0
13.475 319.0
13.49 342.0
13.505 354.0
13.52 342.0
13.535 324.0
13.55 325.0
13.565 320.0
13.58 352.0
13.595 346.0
13.61 330.0
13.625 340.0
13.64 343.0
13.655 348.0
13.67 363.0
13.685 369.0
13.7 350.0
13.715 341.0
13.73 344.0
13.745 341.0
13.76 325.0
13.775 342.0
13.79 349.0
13.805 349.0
13.82 359.0
13.835 364.0
13.85 354.0
13.865 342.0
13.88 336.0
13.895 304.0
13.91 322.0
13.925 328.0
13.94 356.0
13.955 346.0
13.97 367.0
13.985 374.0
14.0 360.0
14.015 344.0
14.03 367.0
14.045 360.0
14.06 346.0
14.075 342.0
14.09 327.0
14.105 326.0
14.12 353.0
14.135 335.0
14.15 358.0
14.165 364.0
14.18 354.0
14.195 367.0
14.21 380.0
14.225 357.0
14.24 370.0
14.255 363.0
14.27 359.0
14.285 380.0
14.3 382.0
14.315 380.0
14.33 369.0
14.345 359.0
14.36 396.0
14.375 396.0
14.39 372.0
14.405 365.0
14.42 349.0
14.435 365.0
14.45 385.0
14.465 355.0
14.48 357.0
14.495 360.0
14.51 385.0
14.525 360.0
14.54 320.0
14.555 342.0
14.57 371.0
14.585 376.0
14.6 358.0
14.615 349.0
14.63 351.0
14.645 367.0
14.66 355.0
14.675 346.0
14.69 367.0
14.705 386.0
14.72 375.0
14.735 366.0
14.75 395.0
14.765 351.0
14.78 356.0
14.795 364.0
14.81 375.0
14.825 353.0
14.84 376.0
14.855 345.0
14.87 340.0
14.885 338.0
14.9 380.0
14.915 351.0
14.93 332.0
14.945 348.0
14.96 343.0
14.975 357.0
14.99 357.0
15.005 325.0
15.02 353.0
15.035 370.0
15.05 372.0
15.065 352.0
15.08 355.0
15.095 390.0
15.11 370.0
15.125 352.0
15.14 381.0
15.155 385.0
15.17 356.0
15.185 359.0
15.2 370.0
15.215 363.0
15.23 384.0
15.245 373.0
15.26 364.0
15.275 373.0
15.29 347.0
15.305 344.0
15.32 364.0
15.335 373.0
15.35 384.0
15.365 371.0
15.38 362.0
15.395 370.0
15.41 383.0
15.425 373.0
15.44 388.0
15.455 368.0
15.47 367.0
15.485 396.0
15.5 356.0
15.515 361.0
15.53 351.0
15.545 402.0
15.56 375.0
15.575 360.0
15.59 398.0
15.605 391.0
15.62 376.0
15.635 394.0
15.65 367.0
15.665 386.0
15.68 398.0
15.695 385.0
15.71 390.0
15.725 407.0
15.74 389.0
15.755 400.0
15.77 365.0
15.785 366.0
15.8 386.0
15.815 399.0
15.83 347.0
15.845 404.0
15.86 407.0
15.875 412.0
15.89 401.0
15.905 395.0
15.92 413.0
15.935 410.0
15.95 386.0
15.965 404.0
15.98 413.0
15.995 402.0
16.01 408.0
16.025 422.0
16.04 419.0
16.055 389.0
16.07 403.0
16.085 430.0
16.1 423.0
16.115 399.0
16.13 424.0
16.145 390.0
16.16 393.0
16.175 388.0
16.19 381.0
16.205 384.0
16.22 395.0
16.235 392.0
16.25 388.0
16.265 407.0
16.28 391.0
16.295 357.0
16.31 387.0
16.325 397.0
16.34 413.0
16.355 385.0
16.37 369.0
16.385 388.0
16.4 402.0
16.415 412.0
16.43 399.0
16.445 393.0
16.46 410.0
16.475 418.0
16.49 419.0
16.505 397.0
16.52 386.0
16.535 402.0
16.55 362.0
16.565 368.0
16.58 397.0
16.595 409.0
16.61 387.0
16.625 424.0
16.64 393.0
16.655 402.0
16.67 449.0
16.685 411.0
16.7 429.0
16.715 394.0
16.73 409.0
16.745 383.0
16.76 397.0
16.775 385.0
16.79 369.0
16.805 388.0
16.82 430.0
16.835 399.0
16.85 397.0
16.865 393.0
16.88 394.0
16.895 408.0
16.91 390.0
16.925 373.0
16.94 381.0
16.955 381.0
16.97 379.0
16.985 397.0
17.0 404.0
17.015 431.0
17.03 427.0
17.045 432.0
17.06 437.0
17.075 445.0
17.09 429.0
17.105 410.0
17.12 413.0
17.135 429.0
17.15 379.0
17.165 423.0
17.18 419.0
17.195 390.0
17.21 389.0
17.225 416.0
17.24 431.0
17.255 401.0
17.27 398.0
17.285 405.0
17.3 406.0
17.315 402.0
17.33 380.0
17.345 383.0
17.36 383.0
17.375 396.0
17.39 407.0
17.405 432.0
17.42 413.0
17.435 423.0
17.45 417.0
17.465 413.0
17.48 430.0
17.495 432.0
17.51 428.0
17.525 421.0
17.54 416.0
17.555 384.0
17.57 407.0
17.585 445.0
17.6 421.0
17.615 399.0
17.63 419.0
17.645 429.0
17.66 419.0
17.675 391.0
17.69 413.0
17.705 422.0
17.72 414.0
17.735 404.0
17.75 409.0
17.765 394.0
17.78 381.0
17.795 414.0
17.81 412.0
17.825 450.0
17.84 434.0
17.855 414.0
17.87 434.0
17.885 415.0
17.9 404.0
17.915 434.0
17.93 447.0
17.945 420.0
17.96 400.0
17.975 409.0
17.99 425.0
18.005 437.0
18.02 440.0
18.035 449.0
18.05 425.0
18.065 405.0
18.08 427.0
18.095 437.0
18.11 420.0
18.125 427.0
18.14 436.0
18.155 458.0
18.17 417.0
18.185 440.0
18.2 481.0
18.215 428.0
18.23 448.0
18.245 433.0
18.26 437.0
18.275 440.0
18.29 425.0
18.305 410.0
18.32 409.0
18.335 443.0
18.35 439.0
18.365 446.0
18.38 468.0
18.395 482.0
18.41 461.0
18.425 487.0
18.44 502.0
18.455 501.0
18.47 497.0
18.485 515.0
18.5 521.0
18.515 523.0
18.53 538.0
18.545 571.0
18.56 560.0
18.575 552.0
18.59 610.0
18.605 610.0
18.62 650.0
18.635 647.0
18.65 650.0
18.665 686.0
18.68 630.0
18.695 650.0
18.71 636.0
18.725 695.0
18.74 671.0
18.755 634.0
18.77 625.0
18.785 655.0
18.8 626.0
18.815 653.0
18.83 572.0
18.845 551.0
18.86 580.0
18.875 548.0
18.89 582.0
18.905 555.0
18.92 550.0
18.935 559.0
18.95 531.0
18.965 524.0
18.98 517.0
18.995 495.0
19.01 501.0
19.025 520.0
19.04 473.0
19.055 454.0
19.07 476.0
19.085 472.0
19.1 464.0
19.115 481.0
19.13 482.0
19.145 488.0
19.16 475.0
19.175 464.0
19.19 465.0
19.205 462.0
19.22 406.0
19.235 415.0
19.25 434.0
19.265 465.0
19.28 438.0
19.295 448.0
19.31 429.0
19.325 441.0
19.34 440.0
19.355 453.0
19.37 442.0
19.385 450.0
19.4 459.0
19.415 458.0
19.43 428.0
19.445 421.0
19.46 442.0
19.475 449.0
19.49 433.0
19.505 430.0
19.52 443.0
19.535 424.0
19.55 426.0
19.565 433.0
19.58 453.0
19.595 446.0
19.61 444.0
19.625 454.0
19.64 447.0
19.655 427.0
19.67 482.0
19.685 487.0
19.7 466.0
19.715 449.0
19.73 451.0
19.745 457.0
19.76 441.0
19.775 461.0
19.79 455.0
19.805 450.0
19.82 444.0
19.835 434.0
19.85 440.0
19.865 450.0
19.88 481.0
19.895 464.0
19.91 479.0
19.925 458.0
19.94 431.0
19.955 453.0
19.97 439.0
19.985 435.0
20.0 449.0
20.015 471.0
20.03 423.0
20.045 425.0
20.06 472.0
20.075 448.0
20.09 463.0
20.105 465.0
20.12 480.0
20.135 448.0
20.15 449.0
20.165 454.0
20.18 434.0
20.195 459.0
20.21 446.0
20.225 476.0
20.24 484.0
20.255 480.0
20.27 457.0
20.285 451.0
20.3 419.0
20.315 418.0
20.33 440.0
20.345 436.0
20.36 461.0
20.375 434.0
20.39 441.0
20.405 420.0
20.42 441.0
20.435 442.0
20.45 453.0
20.465 449.0
20.48 456.0
20.495 449.0
20.51 436.0
20.525 450.0
20.54 460.0
20.555 459.0
20.57 466.0
20.585 460.0
20.6 418.0
20.615 451.0
20.63 452.0
20.645 434.0
20.66 469.0
20.675 454.0
20.69 448.0
20.705 465.0
20.72 448.0
20.735 445.0
20.75 462.0
20.765 451.0
20.78 429.0
20.795 409.0
20.81 462.0
20.825 494.0
20.84 464.0
20.855 453.0
20.87 426.0
20.885 446.0
20.9 439.0
20.915 446.0
20.93 489.0
20.945 437.0
20.96 470.0
20.975 475.0
20.99 481.0
21.005 432.0
21.02 431.0
21.035 449.0
21.05 426.0
21.065 444.0
21.08 466.0
21.095 471.0
21.11 435.0
21.125 464.0
21.14 453.0
21.155 436.0
21.17 471.0
21.185 444.0
21.2 439.0
21.215 450.0
21.23 494.0
21.245 439.0
21.26 479.0
21.275 438.0
21.29 448.0
21.305 483.0
21.32 472.0
21.335 457.0
21.35 456.0
21.365 451.0
21.38 431.0
21.395 463.0
21.41 422.0
21.425 455.0
21.44 456.0
21.455 467.0
21.47 430.0
21.485 471.0
21.5 459.0
21.515 429.0
21.53 457.0
21.545 488.0
21.56 442.0
21.575 451.0
21.59 452.0
21.605 445.0
21.62 469.0
21.635 454.0
21.65 447.0
21.665 453.0
21.68 480.0
21.695 454.0
21.71 454.0
21.725 442.0
21.74 459.0
21.755 454.0
21.77 452.0
21.785 452.0
21.8 482.0
21.815 465.0
21.83 455.0
21.845 490.0
21.86 490.0
21.875 482.0
21.89 518.0
21.905 487.0
21.92 458.0
21.935 497.0
21.95 450.0
21.965 481.0
21.98 485.0
21.995 489.0
22.01 478.0
22.025 485.0
22.04 492.0
22.055 516.0
22.07 474.0
22.085 462.0
22.1 509.0
22.115 495.0
22.13 488.0
22.145 455.0
22.16 447.0
22.175 475.0
22.19 485.0
22.205 470.0
22.22 459.0
22.235 478.0
22.25 465.0
22.265 489.0
22.28 456.0
22.295 449.0
22.31 460.0
22.325 432.0
22.34 481.0
22.355 469.0
22.37 444.0
22.385 464.0
22.4 480.0
22.415 493.0
22.43 493.0
22.445 477.0
22.46 497.0
22.475 469.0
22.49 460.0
22.505 505.0
22.52 509.0
22.535 468.0
22.55 450.0
22.565 469.0
22.58 459.0
22.595 457.0
22.61 499.0
22.625 533.0
22.64 463.0
22.655 477.0
22.67 513.0
22.685 487.0
22.7 461.0
22.715 477.0
22.73 465.0
22.745 470.0
22.76 471.0
22.775 464.0
22.79 479.0
22.805 483.0
22.82 477.0
22.835 491.0
22.85 488.0
22.865 471.0
22.88 443.0
22.895 503.0
22.91 484.0
22.925 497.0
22.94 480.0
22.955 489.0
22.97 495.0
22.985 483.0
23.0 450.0
23.015 446.0
23.03 465.0
23.045 472.0
23.06 477.0
23.075 479.0
23.09 449.0
23.105 468.0
23.12 462.0
23.135 475.0
23.15 517.0
23.165 482.0
23.18 476.0
23.195 512.0
23.21 468.0
23.225 513.0
23.24 472.0
23.255 507.0
23.27 479.0
23.285 488.0
23.3 463.0
23.315 457.0
23.33 493.0
23.345 481.0
23.36 467.0
23.375 493.0
23.39 538.0
23.405 477.0
23.42 499.0
23.435 508.0
23.45 488.0
23.465 493.0
23.48 491.0
23.495 492.0
23.51 483.0
23.525 486.0
23.54 508.0
23.555 478.0
23.57 517.0
23.585 491.0
23.6 483.0
23.615 505.0
23.63 497.0
23.645 514.0
23.66 496.0
23.675 559.0
23.69 518.0
23.705 450.0
23.72 489.0
23.735 503.0
23.75 509.0
23.765 543.0
23.78 503.0
23.795 486.0
23.81 510.0
23.825 543.0
23.84 550.0
23.855 531.0
23.87 523.0
23.885 572.0
23.9 554.0
23.915 548.0
23.93 557.0
23.945 524.0
23.96 530.0
23.975 554.0
23.99 587.0
24.005 595.0
24.02 593.0
24.035 613.0
24.05 604.0
24.065 626.0
24.08 614.0
24.095 623.0
24.11 657.0
24.125 631.0
24.14 636.0
24.155 709.0
24.17 732.0
24.185 714.0
24.2 724.0
24.215 727.0
24.23 758.0
24.245 736.0
24.26 753.0
24.275 802.0
24.29 763.0
24.305 799.0
24.32 803.0
24.335 820.0
24.35 782.0
24.365 808.0
24.38 799.0
24.395 800.0
24.41 787.0
24.425 739.0
24.44 754.0
24.455 779.0
24.47 747.0
24.485 752.0
24.5 754.0
24.515 722.0
24.53 713.0
24.545 709.0
24.56 647.0
24.575 658.0
24.59 641.0
24.605 626.0
24.62 639.0
24.635 641.0
24.65 620.0
24.665 622.0
24.68 586.0
24.695 586.0
24.71 549.0
24.725 571.0
24.74 565.0
24.755 568.0
24.77 566.0
24.785 572.0
24.8 539.0
24.815 563.0
24.83 533.0
24.845 544.0
24.86 526.0
24.875 517.0
24.89 511.0
24.905 527.0
24.92 545.0
24.935 535.0
24.95 510.0
24.965 487.0
24.98 508.0
24.995 540.0
25.01 541.0
25.025 470.0
25.04 491.0
25.055 549.0
25.07 531.0
25.085 536.0
25.1 525.0
25.115 513.0
25.13 526.0
25.145 484.0
25.16 487.0
25.175 491.0
25.19 467.0
25.205 485.0
25.22 502.0
25.235 532.0
25.25 509.0
25.265 506.0
25.28 467.0
25.295 486.0
25.31 486.0
25.325 505.0
25.34 504.0
25.355 520.0
25.37 504.0
25.385 480.0
25.4 487.0
25.415 499.0
25.43 481.0
25.445 486.0
25.46 459.0
25.475 434.0
25.49 471.0
25.505 490.0
25.52 488.0
25.535 525.0
25.55 472.0
25.565 452.0
25.58 467.0
25.595 499.0
25.61 489.0
25.625 480.0
25.64 442.0
25.655 469.0
25.67 496.0
25.685 500.0
25.7 501.0
25.715 473.0
25.73 487.0
25.745 498.0
25.76 474.0
25.775 476.0
25.79 475.0
25.805 470.0
25.82 463.0
25.835 502.0
25.85 505.0
25.865 485.0
25.88 499.0
25.895 476.0
25.91 476.0
25.925 447.0
25.94 460.0
25.955 478.0
25.97 484.0
25.985 500.0
26.0 453.0
26.015 492.0
26.03 498.0
26.045 508.0
26.06 486.0
26.075 470.0
26.09 462.0
26.105 471.0
26.12 500.0
26.135 507.0
26.15 490.0
26.165 495.0
26.18 482.0
26.195 470.0
26.21 439.0
26.225 466.0
26.24 477.0
26.255 482.0
26.27 489.0
26.285 486.0
26.3 502.0
26.315 463.0
26.33 442.0
26.345 458.0
26.36 470.0
26.375 468.0
26.39 462.0
26.405 448.0
26.42 456.0
26.435 437.0
26.45 469.0
26.465 449.0
26.48 481.0
26.495 475.0
26.51 467.0
26.525 472.0
26.54 489.0
26.555 483.0
26.57 468.0
26.585 485.0
26.6 463.0
26.615 482.0
26.63 499.0
26.645 462.0
26.66 452.0
26.675 502.0
26.69 465.0
26.705 475.0
26.72 476.0
26.735 457.0
26.75 464.0
26.765 463.0
26.78 478.0
26.795 453.0
26.81 451.0
26.825 459.0
26.84 457.0
26.855 465.0
26.87 472.0
26.885 450.0
26.9 509.0
26.915 462.0
26.93 447.0
26.945 459.0
26.96 514.0
26.975 480.0
26.99 490.0
27.005 468.0
27.02 470.0
27.035 476.0
27.05 478.0
27.065 445.0
27.08 454.0
27.095 460.0
27.11 463.0
27.125 463.0
27.14 470.0
27.155 477.0
27.17 479.0
27.185 504.0
27.2 456.0
27.215 464.0
27.23 476.0
27.245 443.0
27.26 485.0
27.275 453.0
27.29 447.0
27.305 472.0
27.32 475.0
27.335 459.0
27.35 462.0
27.365 447.0
27.38 468.0
27.395 474.0
27.41 481.0
27.425 487.0
27.44 485.0
27.455 477.0
27.47 481.0
27.485 444.0
27.5 477.0
27.515 512.0
27.53 502.0
27.545 518.0
27.56 487.0
27.575 476.0
27.59 512.0
27.605 514.0
27.62 528.0
27.635 559.0
27.65 552.0
27.665 549.0
27.68 575.0
27.695 604.0
27.71 613.0
27.725 625.0
27.74 642.0
27.755 691.0
27.77 686.0
27.785 757.0
27.8 749.0
27.815 815.0
27.83 847.0
27.845 873.0
27.86 867.0
27.875 909.0
27.89 960.0
27.905 1012.0
27.92 1066.0
27.935 1118.0
27.95 1087.0
27.965 1059.0
27.98 1056.0
27.995 1020.0
28.01 1068.0
28.025 928.0
28.04 826.0
28.055 788.0
28.07 709.0
28.085 666.0
28.1 642.0
28.115 604.0
28.13 559.0
28.145 554.0
28.16 564.0
28.175 523.0
28.19 508.0
28.205 467.0
28.22 498.0
28.235 486.0
28.25 471.0
28.265 452.0
28.28 486.0
28.295 477.0
28.31 495.0
28.325 469.0
28.34 449.0
28.355 481.0
28.37 460.0
28.385 467.0
28.4 465.0
28.415 469.0
28.43 457.0
28.445 453.0
28.46 419.0
28.475 458.0
28.49 493.0
28.505 470.0
28.52 471.0
28.535 415.0
28.55 395.0
28.565 434.0
28.58 427.0
28.595 435.0
28.61 454.0
28.625 429.0
28.64 423.0
28.655 428.0
28.67 425.0
28.685 432.0
28.7 450.0
28.715 446.0
28.73 446.0
28.745 448.0
28.76 444.0
28.775 445.0
28.79 452.0
28.805 447.0
28.82 411.0
28.835 405.0
28.85 398.0
28.865 442.0
28.88 424.0
28.895 417.0
28.91 429.0
28.925 425.0
28.94 408.0
28.955 422.0
28.97 402.0
28.985 399.0
29.0 390.0
29.015 396.0
29.03 419.0
29.045 430.0
29.06 426.0
29.075 431.0
29.09 442.0
29.105 420.0
29.12 429.0
29.135 445.0
29.15 441.0
29.165 417.0
29.18 429.0
29.195 384.0
29.21 412.0
29.225 443.0
29.24 421.0
29.255 418.0
29.27 428.0
29.285 412.0
29.3 404.0
29.315 404.0
29.33 414.0
29.345 420.0
29.36 370.0
29.375 412.0
29.39 419.0
29.405 421.0
29.42 375.0
29.435 415.0
29.45 404.0
29.465 415.0
29.48 396.0
29.495 394.0
29.51 404.0
29.525 401.0
29.54 401.0
29.555 425.0
29.57 407.0
29.585 414.0
29.6 414.0
29.615 435.0
29.63 421.0
29.645 443.0
29.66 435.0
29.675 409.0
29.69 421.0
29.705 427.0
29.72 415.0
29.735 393.0
29.75 394.0
29.765 405.0
29.78 420.0
29.795 432.0
29.81 412.0
29.825 389.0
29.84 413.0
29.855 417.0
29.87 401.0
29.885 385.0
29.9 405.0
29.915 400.0
29.93 387.0
29.945 379.0
29.96 412.0
29.975 436.0
29.99 433.0
30.005 402.0
30.02 401.0
30.035 409.0
30.05 381.0
30.065 374.0
30.08 413.0
30.095 417.0
30.11 421.0
30.125 403.0
30.14 378.0
30.155 393.0
30.17 419.0
30.185 434.0
30.2 408.0
30.215 394.0
30.23 391.0
30.245 381.0
30.26 397.0
30.275 412.0
30.29 419.0
30.305 402.0
30.32 407.0
30.335 427.0
30.35 446.0
30.365 420.0
30.38 414.0
30.395 433.0
30.41 396.0
30.425 413.0
30.44 418.0
30.455 442.0
30.47 432.0
30.485 436.0
30.5 426.0
30.515 426.0
30.53 461.0
30.545 448.0
30.56 436.0
30.575 440.0
30.59 458.0
30.605 444.0
30.62 396.0
30.635 437.0
30.65 426.0
30.665 405.0
30.68 410.0
30.695 438.0
30.71 454.0
30.725 439.0
30.74 434.0
30.755 398.0
30.77 431.0
30.785 425.0
30.8 419.0
30.815 431.0
30.83 420.0
30.845 422.0
30.86 442.0
30.875 423.0
30.89 417.0
30.905 431.0
30.92 404.0
30.935 397.0
30.95 424.0
30.965 403.0
30.98 402.0
30.995 406.0
31.01 416.0
31.025 424.0
31.04 410.0
31.055 409.0
31.07 429.0
31.085 404.0
31.1 387.0
31.115 395.0
31.13 413.0
31.145 407.0
31.16 374.0
31.175 379.0
31.19 342.0
31.205 356.0
31.22 373.0
31.235 377.0
31.25 390.0
31.265 411.0
31.28 383.0
31.295 381.0
31.31 379.0
31.325 396.0
31.34 385.0
31.355 363.0
31.37 378.0
31.385 361.0
31.4 366.0
31.415 369.0
31.43 372.0
31.445 354.0
31.46 397.0
31.475 380.0
31.49 360.0
31.505 352.0
31.52 343.0
31.535 405.0
31.55 345.0
31.565 378.0
31.58 367.0
31.595 375.0
31.61 367.0
31.625 356.0
31.64 360.0
31.655 391.0
31.67 364.0
31.685 344.0
31.7 373.0
31.715 385.0
31.73 379.0
31.745 342.0
31.76 329.0
31.775 393.0
31.79 382.0
31.805 364.0
31.82 352.0
31.835 337.0
31.85 343.0
31.865 333.0
31.88 367.0
31.895 351.0
31.91 317.0
31.925 334.0
31.94 347.0
31.955 337.0
31.97 357.0
31.985 382.0
32.0 372.0
32.015 343.0
32.03 354.0
32.045 332.0
32.06 332.0
32.075 323.0
32.09 353.0
32.105 334.0
32.12 349.0
32.135 352.0
32.15 353.0
32.165 358.0
32.18 356.0
32.195 366.0
32.21 362.0
32.225 369.0
32.24 347.0
32.255 350.0
32.27 330.0
32.285 362.0
32.3 387.0
32.315 381.0
32.33 324.0
32.345 336.0
32.36 329.0
32.375 379.0
32.39 381.0
32.405 322.0
32.42 341.0
32.435 332.0
32.45 338.0
32.465 346.0
32.48 363.0
32.495 377.0
32.51 359.0
32.525 323.0
32.54 334.0
32.555 353.0
32.57 329.0
32.585 343.0
32.6 333.0
32.615 343.0
32.63 331.0
32.645 339.0
32.66 370.0
32.675 354.0
32.69 362.0
32.705 374.0
32.72 352.0
32.735 342.0
32.75 338.0
32.765 350.0
32.78 350.0
32.795 351.0
32.81 348.0
32.825 336.0
32.84 347.0
32.855 334.0
32.87 316.0
32.885 369.0
32.9 389.0
32.915 316.0
32.93 364.0
32.945 354.0
32.96 362.0
32.975 328.0
32.99 359.0
33.005 366.0
33.02 372.0
33.035 353.0
33.05 301.0
33.065 301.0
33.08 345.0
33.095 365.0
33.11 341.0
33.125 330.0
33.14 328.0
33.155 368.0
33.17 365.0
33.185 365.0
33.2 351.0
33.215 360.0
33.23 318.0
33.245 300.0
33.26 316.0
33.275 334.0
33.29 334.0
33.305 332.0
33.32 360.0
33.335 337.0
33.35 315.0
33.365 296.0
33.38 317.0
33.395 307.0
33.41 308.0
33.425 341.0
33.44 348.0
33.455 325.0
33.47 298.0
33.485 314.0
33.5 299.0
33.515 311.0
33.53 306.0
33.545 306.0
33.56 325.0
33.575 320.0
33.59 308.0
33.605 314.0
33.62 316.0
33.635 338.0
33.65 324.0
33.665 320.0
33.68 336.0
33.695 329.0
33.71 315.0
33.725 315.0
33.74 317.0
33.755 341.0
33.77 312.0
33.785 292.0
33.8 296.0
33.815 327.0
33.83 300.0
33.845 317.0
33.86 324.0
33.875 317.0
33.89 319.0
33.905 327.0
33.92 306.0
33.935 313.0
33.95 320.0
33.965 302.0
33.98 309.0
33.995 318.0
34.01 302.0
34.025 319.0
34.04 310.0
34.055 294.0
34.07 314.0
34.085 303.0
34.1 274.0
34.115 299.0
34.13 277.0
34.145 305.0
34.16 325.0
34.175 335.0
34.19 335.0
34.205 295.0
34.22 296.0
34.235 289.0
34.25 275.0
34.265 316.0
34.28 343.0
34.295 324.0
34.31 324.0
34.325 305.0
34.34 285.0
34.355 314.0
34.37 311.0
34.385 321.0
34.4 317.0
34.415 302.0
34.43 306.0
34.445 298.0
34.46 311.0
34.475 278.0
34.49 283.0
34.505 312.0
34.52 313.0
34.535 285.0
34.55 308.0
34.565 312.0
34.58 307.0
34.595 314.0
34.61 306.0
34.625 308.0
34.64 300.0
34.655 305.0
34.67 284.0
34.685 288.0
34.7 294.0
34.715 303.0
34.73 295.0
34.745 285.0
34.76 294.0
34.775 277.0
34.79 316.0
34.805 316.0
34.82 302.0
34.835 285.0
34.85 306.0
34.865 306.0
34.88 330.0
34.895 301.0
34.91 298.0
34.925 300.0
34.94 309.0
34.955 302.0
34.97 284.0
34.985 286.0
35.0 290.0
35.015 298.0
35.03 288.0
35.045 323.0
35.06 307.0
35.075 309.0
35.09 300.0
35.105 286.0
35.12 300.0
35.135 303.0
35.15 325.0
35.165 311.0
35.18 295.0
35.195 312.0
35.21 306.0
35.225 299.0
35.24 267.0
35.255 300.0
35.27 277.0
35.285 284.0
35.3 288.0
35.315 320.0
35.33 301.0
35.345 287.0
35.36 286.0
35.375 293.0
35.39 288.0
35.405 292.0
35.42 272.0
35.435 301.0
35.45 292.0
35.465 291.0
35.48 305.0
35.495 285.0
35.51 264.0
35.525 303.0
35.54 292.0
35.555 298.0
35.57 288.0
35.585 283.0
35.6 301.0
35.615 293.0
35.63 298.0
35.645 269.0
35.66 329.0
35.675 283.0
35.69 262.0
35.705 269.0
35.72 288.0
35.735 279.0
35.75 281.0
35.765 296.0
35.78 295.0
35.795 297.0
35.81 291.0
35.825 303.0
35.84 308.0
35.855 298.0
35.87 308.0
35.885 288.0
35.9 276.0
35.915 285.0
35.93 306.0
35.945 289.0
35.96 285.0
35.975 296.0
35.99 272.0
36.005 264.0
36.02 297.0
36.035 286.0
36.05 285.0
36.065 268.0
36.08 314.0
36.095 296.0
36.11 292.0
36.125 272.0
36.14 291.0
36.155 291.0
36.17 266.0
36.185 280.0
36.2 287.0
36.215 313.0
36.23 280.0
36.245 261.0
36.26 269.0
36.275 274.0
36.29 299.0
36.305 281.0
36.32 278.0
36.335 286.0
36.35 274.0
36.365 272.0
36.38 282.0
36.395 285.0
36.41 276.0
36.425 263.0
36.44 265.0
36.455 287.0
36.47 286.0
36.485 291.0
36.5 278.0
36.515 270.0
36.53 279.0
36.545 266.0
36.56 276.0
36.575 290.0
36.59 314.0
36.605 285.0
36.62 279.0
36.635 284.0
36.65 264.0
36.665 265.0
36.68 242.0
36.695 260.0
36.71 277.0
36.725 291.0
36.74 269.0
36.755 280.0
36.77 275.0
36.785 277.0
36.8 295.0
36.815 263.0
36.83 263.0
36.845 282.0
36.86 286.0
36.875 268.0
36.89 290.0
36.905 273.0
36.92 273.0
36.935 280.0
36.95 291.0
36.965 277.0
36.98 253.0
36.995 266.0
37.01 262.0
37.025 276.0
37.04 252.0
37.055 268.0
37.07 296.0
37.085 288.0
37.1 282.0
37.115 257.0
37.13 247.0
37.145 258.0
37.16 258.0
37.175 257.0
37.19 282.0
37.205 253.0
37.22 259.0
37.235 261.0
37.25 269.0
37.265 277.0
37.28 261.0
37.295 252.0
37.31 274.0
37.325 278.0
37.34 259.0
37.355 267.0
37.37 262.0
37.385 262.0
37.4 251.0
37.415 263.0
37.43 280.0
37.445 267.0
37.46 262.0
37.475 264.0
37.49 281.0
37.505 277.0
37.52 286.0
37.535 307.0
37.55 292.0
37.565 254.0
37.58 252.0
37.595 265.0
37.61 279.0
37.625 273.0
37.64 289.0
37.655 275.0
37.67 265.0
37.685 259.0
37.7 253.0
37.715 256.0
37.73 278.0
37.745 256.0
37.76 257.0
37.775 265.0
37.79 246.0
37.805 252.0
37.82 253.0
37.835 274.0
37.85 266.0
37.865 251.0
37.88 264.0
37.895 255.0
37.91 257.0
37.925 278.0
37.94 259.0
37.955 265.0
37.97 274.0
37.985 268.0
38.0 260.0
38.015 257.0
38.03 260.0
38.045 246.0
38.06 266.0
38.075 271.0
38.09 282.0
38.105 268.0
38.12 273.0
38.135 293.0
38.15 262.0
38.165 260.0
38.18 242.0
38.195 260.0
38.21 253.0
38.225 269.0
38.24 249.0
38.255 270.0
38.27 274.0
38.285 286.0
38.3 275.0
38.315 259.0
38.33 241.0
38.345 270.0
38.36 262.0
38.375 264.0
38.39 265.0
38.405 255.0
38.42 268.0
38.435 289.0
38.45 246.0
38.465 262.0
38.48 297.0
38.495 266.0
38.51 274.0
38.525 263.0
38.54 275.0
38.555 269.0
38.57 262.0
38.585 240.0
38.6 255.0
38.615 265.0
38.63 255.0
38.645 226.0
38.66 264.0
38.675 262.0
38.69 249.0
38.705 260.0
38.72 262.0
38.735 268.0
38.75 253.0
38.765 248.0
38.78 236.0
38.795 250.0
38.81 272.0
38.825 243.0
38.84 252.0
38.855 255.0
38.87 246.0
38.885 259.0
38.9 268.0
38.915 245.0
38.93 270.0
38.945 256.0
38.96 241.0
38.975 285.0
38.99 284.0
39.005 268.0
39.02 273.0
39.035 267.0
39.05 253.0
39.065 239.0
39.08 267.0
39.095 291.0
39.11 254.0
39.125 280.0
39.14 278.0
39.155 272.0
39.17 261.0
39.185 285.0
39.2 272.0
39.215 246.0
39.23 254.0
39.245 281.0
39.26 274.0
39.275 266.0
39.29 266.0
39.305 273.0
39.32 260.0
39.335 266.0
39.35 283.0
39.365 276.0
39.38 240.0
39.395 269.0
39.41 256.0
39.425 246.0
39.44 227.0
39.455 264.0
39.47 254.0
39.485 270.0
39.5 267.0
39.515 253.0
39.53 272.0
39.545 259.0
39.56 246.0
39.575 255.0
39.59 268.0
39.605 243.0
39.62 268.0
39.635 264.0
39.65 255.0
39.665 244.0
39.68 282.0
39.695 285.0
39.71 284.0
39.725 289.0
39.74 279.0
39.755 277.0
39.77 287.0
39.785 257.0
39.8 243.0
39.815 242.0
39.83 257.0
39.845 291.0
39.86 255.0
39.875 253.0
39.89 263.0
39.905 262.0
39.92 268.0
39.935 264.0
39.95 279.0
39.965 255.0
39.98 260.0
39.995 255.0
40.01 278.0
40.025 258.0
40.04 240.0
40.055 254.0
40.07 274.0
40.085 260.0
40.1 268.0
40.115 261.0
40.13 270.0
40.145 270.0
40.16 252.0
40.175 241.0
40.19 263.0
40.205 256.0
40.22 250.0
40.235 251.0
40.25 262.0
40.265 252.0
40.28 247.0
40.295 249.0
40.31 248.0
40.325 251.0
40.34 254.0
40.355 268.0
40.37 250.0
40.385 246.0
40.4 243.0
40.415 233.0
40.43 240.0
40.445 259.0
40.46 281.0
40.475 276.0
40.49 280.0
40.505 275.0
40.52 269.0
40.535 286.0
40.55 256.0
40.565 264.0
40.58 266.0
40.595 267.0
40.61 293.0
40.625 262.0
40.64 234.0
40.655 250.0
40.67 245.0
40.685 261.0
40.7 261.0
40.715 257.0
40.73 243.0
40.745 268.0
40.76 283.0
40.775 267.0
40.79 252.0
40.805 252.0
40.82 263.0
40.835 275.0
40.85 282.0
40.865 268.0
40.88 256.0
40.895 266.0
40.91 266.0
40.925 247.0
40.94 284.0
40.955 279.0
40.97 275.0
40.985 290.0
41.0 247.0
41.015 255.0
41.03 276.0
41.045 260.0
41.06 259.0
41.075 265.0
41.09 284.0
41.105 261.0
41.12 259.0
41.135 275.0
41.15 245.0
41.165 279.0
41.18 280.0
41.195 282.0
41.21 278.0
41.225 299.0
41.24 281.0
41.255 254.0
41.27 261.0
41.285 267.0
41.3 264.0
41.315 256.0
41.33 251.0
41.345 260.0
41.36 250.0
41.375 267.0
41.39 238.0
41.405 274.0
41.42 291.0
41.435 267.0
41.45 245.0
41.465 261.0
41.48 263.0
41.495 263.0
41.51 268.0
41.525 267.0
41.54 262.0
41.555 266.0
41.57 284.0
41.585 237.0
41.6 281.0
41.615 270.0
41.63 280.0
41.645 274.0
41.66 275.0
41.675 269.0
41.69 273.0
41.705 253.0
41.72 256.0
41.735 277.0
41.75 287.0
41.765 261.0
41.78 261.0
41.795 279.0
41.81 260.0
41.825 260.0
41.84 265.0
41.855 264.0
41.87 271.0
41.885 257.0
41.9 256.0
41.915 270.0
41.93 270.0
41.945 275.0
41.96 265.0
41.975 254.0
41.99 256.0
42.005 265.0
42.02 271.0
42.035 274.0
42.05 276.0
42.065 287.0
42.08 268.0
42.095 288.0
42.11 288.0
42.125 285.0
42.14 272.0
42.155 271.0
42.17 276.0
42.185 275.0
42.2 262.0
42.215 260.0
42.23 266.0
42.245 282.0
42.26 257.0
42.275 276.0
42.29 298.0
42.305 254.0
42.32 271.0
42.335 260.0
42.35 257.0
42.365 282.0
42.38 282.0
42.395 258.0
42.41 280.0
42.425 303.0
42.44 271.0
42.455 259.0
42.47 261.0
42.485 275.0
42.5 277.0
42.515 265.0
42.53 256.0
42.545 274.0
42.56 269.0
42.575 241.0
42.59 258.0
42.605 249.0
42.62 288.0
42.635 300.0
42.65 267.0
42.665 268.0
42.68 260.0
42.695 269.0
42.71 281.0
42.725 281.0
42.74 251.0
42.755 248.0
42.77 263.0
42.785 279.0
42.8 252.0
42.815 277.0
42.83 276.0
42.845 271.0
42.86 287.0
42.875 277.0
42.89 312.0
42.905 294.0
42.92 260.0
42.935 265.0
42.95 256.0
42.965 252.0
42.98 262.0
42.995 254.0
43.01 283.0
43.025 282.0
43.04 271.0
43.055 247.0
43.07 255.0
43.085 262.0
43.1 283.0
43.115 232.0
43.13 258.0
43.145 245.0
43.16 258.0
43.175 275.0
43.19 289.0
43.205 262.0
43.22 272.0
43.235 279.0
43.25 287.0
43.265 270.0
43.28 270.0
43.295 286.0
43.31 291.0
43.325 251.0
43.34 264.0
43.355 296.0
43.37 291.0
43.385 294.0
43.4 286.0
43.415 279.0
43.43 291.0
43.445 297.0
43.46 292.0
43.475 277.0
43.49 285.0
43.505 298.0
43.52 292.0
43.535 278.0
43.55 276.0
43.565 279.0
43.58 278.0
43.595 304.0
43.61 272.0
43.625 285.0
43.64 302.0
43.655 283.0
43.67 279.0
43.685 267.0
43.7 291.0
43.715 272.0
43.73 281.0
43.745 273.0
43.76 253.0
43.775 262.0
43.79 278.0
43.805 290.0
43.82 285.0
43.835 281.0
43.85 269.0
43.865 269.0
43.88 268.0
43.895 271.0
43.91 279.0
43.925 281.0
43.94 273.0
43.955 278.0
43.97 278.0
43.985 260.0
44.0 290.0
44.015 299.0
44.03 304.0
44.045 296.0
44.06 294.0
44.075 263.0
44.09 253.0
44.105 268.0
44.12 261.0
44.135 272.0
44.15 270.0
44.165 282.0
44.18 261.0
44.195 258.0
44.21 272.0
44.225 273.0
44.24 285.0
44.255 287.0
44.27 293.0
44.285 252.0
44.3 263.0
44.315 267.0
44.33 248.0
44.345 257.0
44.36 273.0
44.375 263.0
44.39 276.0
44.405 276.0
44.42 251.0
44.435 268.0
44.45 276.0
44.465 245.0
44.48 255.0
44.495 278.0
44.51 272.0
44.525 270.0
44.54 293.0
44.555 286.0
44.57 290.0
44.585 265.0
44.6 269.0
44.615 262.0
44.63 257.0
44.645 256.0
44.66 268.0
44.675 270.0
44.69 259.0
44.705 275.0
44.72 249.0
44.735 274.0
44.75 282.0
44.765 258.0
44.78 259.0
44.795 260.0
44.81 256.0
44.825 272.0
44.84 282.0
44.855 281.0
44.87 270.0
44.885 298.0
44.9 278.0
44.915 271.0
44.93 281.0
44.945 258.0
44.96 258.0
44.975 265.0
44.99 251.0
45.005 287.0
45.02 269.0
45.035 284.0
45.05 266.0
45.065 247.0
45.08 271.0
45.095 280.0
45.11 269.0
45.125 277.0
45.14 241.0
45.155 260.0
45.17 244.0
45.185 260.0
45.2 252.0
45.215 260.0
45.23 252.0
45.245 289.0
45.26 288.0
45.275 267.0
45.29 279.0
45.305 266.0
45.32 274.0
45.335 276.0
45.35 275.0
45.365 261.0
45.38 274.0
45.395 279.0
45.41 248.0
45.425 249.0
45.44 239.0
45.455 265.0
45.47 257.0
45.485 249.0
45.5 230.0
45.515 227.0
45.53 276.0
45.545 256.0
45.56 264.0
45.575 240.0
45.59 271.0
45.605 262.0
45.62 268.0
45.635 263.0
45.65 266.0
45.665 253.0
45.68 247.0
45.695 248.0
45.71 249.0
45.725 272.0
45.74 251.0
45.755 252.0
45.77 270.0
45.785 253.0
45.8 255.0
45.815 268.0
45.83 259.0
45.845 255.0
45.86 257.0
45.875 250.0
45.89 252.0
45.905 270.0
45.92 300.0
45.935 268.0
45.95 247.0
45.965 283.0
45.98 284.0
45.995 286.0
46.01 281.0
46.025 262.0
46.04 250.0
46.055 264.0
46.07 275.0
46.085 252.0
46.1 266.0
46.115 254.0
46.13 263.0
46.145 282.0
46.16 262.0
46.175 256.0
46.19 255.0
46.205 268.0
46.22 265.0
46.235 250.0
46.25 274.0
46.265 254.0
46.28 287.0
46.295 264.0
46.31 252.0
46.325 267.0
46.34 286.0
46.355 231.0
46.37 256.0
46.385 272.0
46.4 266.0
46.415 261.0
46.43 238.0
46.445 246.0
46.46 252.0
46.475 258.0
46.49 237.0
46.505 265.0
46.52 261.0
46.535 280.0
46.55 273.0
46.565 270.0
46.58 263.0
46.595 258.0
46.61 274.0
46.625 290.0
46.64 271.0
46.655 269.0
46.67 249.0
46.685 259.0
46.7 250.0
46.715 274.0
46.73 256.0
46.745 264.0
46.76 261.0
46.775 246.0
46.79 260.0
46.805 280.0
46.82 249.0
46.835 252.0
46.85 271.0
46.865 252.0
46.88 246.0
46.895 231.0
46.91 250.0
46.925 249.0
46.94 251.0
46.955 247.0
46.97 252.0
46.985 268.0
47.0 260.0
47.015 269.0
47.03 262.0
47.045 248.0
47.06 247.0
47.075 276.0
47.09 264.0
47.105 231.0
47.12 255.0
47.135 257.0
47.15 265.0
47.165 244.0
47.18 242.0
47.195 258.0
47.21 245.0
47.225 224.0
47.24 265.0
47.255 247.0
47.27 234.0
47.285 258.0
47.3 257.0
47.315 285.0
47.33 243.0
47.345 245.0
47.36 248.0
47.375 238.0
47.39 235.0
47.405 266.0
47.42 257.0
47.435 258.0
47.45 251.0
47.465 266.0
47.48 257.0
47.495 260.0
47.51 249.0
47.525 249.0
47.54 238.0
47.555 237.0
47.57 261.0
47.585 244.0
47.6 254.0
47.615 266.0
47.63 239.0
47.645 243.0
47.66 259.0
47.675 250.0
47.69 260.0
47.705 228.0
47.72 234.0
47.735 251.0
47.75 269.0
47.765 245.0
47.78 233.0
47.795 262.0
47.81 271.0
47.825 238.0
47.84 239.0
47.855 266.0
47.87 253.0
47.885 240.0
47.9 236.0
47.915 247.0
47.93 265.0
47.945 260.0
47.96 267.0
47.975 252.0
47.99 261.0
48.005 249.0
48.02 248.0
48.035 251.0
48.05 248.0
48.065 298.0
48.08 255.0
48.095 259.0
48.11 248.0
48.125 239.0
48.14 237.0
48.155 247.0
48.17 236.0
48.185 243.0
48.2 233.0
48.215 263.0
48.23 256.0
48.245 247.0
48.26 266.0
48.275 248.0
48.29 243.0
48.305 227.0
48.32 262.0
48.335 255.0
48.35 246.0
48.365 229.0
48.38 229.0
48.395 234.0
48.41 255.0
48.425 269.0
48.44 252.0
48.455 233.0
48.47 221.0
48.485 246.0
48.5 231.0
48.515 234.0
48.53 250.0
48.545 227.0
48.56 230.0
48.575 239.0
48.59 251.0
48.605 241.0
48.62 226.0
48.635 246.0
48.65 243.0
48.665 241.0
48.68 255.0
48.695 261.0
48.71 275.0
48.725 254.0
48.74 240.0
48.755 255.0
48.77 235.0
48.785 241.0
48.8 254.0
48.815 258.0
48.83 267.0
48.845 258.0
48.86 258.0
48.875 267.0
48.89 265.0
48.905 265.0
48.92 252.0
48.935 240.0
48.95 257.0
48.965 243.0
48.98 257.0
48.995 264.0
49.01 242.0
49.025 254.0
49.04 255.0
49.055 240.0
49.07 254.0
49.085 257.0
49.1 245.0
49.115 238.0
49.13 263.0
49.145 231.0
49.16 239.0
49.175 240.0
49.19 243.0
49.205 237.0
49.22 235.0
49.235 245.0
49.25 232.0
49.265 244.0
49.28 260.0
49.295 260.0
49.31 248.0
49.325 251.0
49.34 265.0
49.355 260.0
49.37 232.0
49.385 248.0
49.4 245.0
49.415 247.0
49.43 239.0
49.445 237.0
49.46 256.0
49.475 241.0
49.49 240.0
49.505 228.0
49.52 248.0
49.535 224.0
49.55 224.0
49.565 233.0
49.58 236.0
49.595 266.0
49.61 256.0
49.625 218.0
49.64 233.0
49.655 256.0
49.67 259.0
49.685 247.0
49.7 244.0
49.715 251.0
49.73 248.0
49.745 229.0
49.76 229.0
49.775 230.0
49.79 232.0
49.805 255.0
49.82 247.0
49.835 243.0
49.85 217.0
49.865 226.0
49.88 244.0
49.895 257.0
49.91 229.0
49.925 241.0
49.94 239.0
49.955 246.0
49.97 240.0
49.985 250.0
50.0 239.0
50.015 240.0
50.03 231.0
50.045 233.0
50.06 237.0
50.075 266.0
50.09 239.0
50.105 231.0
50.12 235.0
50.135 227.0
50.15 231.0
50.165 238.0
50.18 233.0
50.195 236.0
50.21 224.0
50.225 221.0
50.24 232.0
50.255 236.0
50.27 248.0
50.285 238.0
50.3 247.0
50.315 234.0
50.33 235.0
50.345 235.0
50.36 252.0
50.375 249.0
50.39 236.0
50.405 237.0
50.42 233.0
50.435 223.0
50.45 232.0
50.465 256.0
50.48 248.0
50.495 248.0
50.51 244.0
50.525 238.0
50.54 241.0
50.555 236.0
50.57 249.0
50.585 250.0
50.6 246.0
50.615 247.0
50.63 232.0
50.645 230.0
50.66 222.0
50.675 218.0
50.69 245.0
50.705 232.0
50.72 230.0
50.735 240.0
50.75 236.0
50.765 244.0
50.78 249.0
50.795 275.0
50.81 259.0
50.825 235.0
50.84 268.0
50.855 233.0
50.87 267.0
50.885 249.0
50.9 236.0
50.915 237.0
50.93 237.0
50.945 240.0
50.96 235.0
50.975 214.0
50.99 215.0
51.005 236.0
51.02 241.0
51.035 257.0
51.05 238.0
51.065 262.0
51.08 255.0
51.095 269.0
51.11 246.0
51.125 248.0
51.14 265.0
51.155 239.0
51.17 237.0
51.185 200.0
51.2 216.0
51.215 262.0
51.23 229.0
51.245 222.0
51.26 238.0
51.275 239.0
51.29 244.0
51.305 235.0
51.32 211.0
51.335 220.0
51.35 246.0
51.365 218.0
51.38 228.0
51.395 227.0
51.41 253.0
51.425 226.0
51.44 220.0
51.455 222.0
51.47 251.0
51.485 241.0
51.5 249.0
51.515 237.0
51.53 228.0
51.545 229.0
51.56 234.0
51.575 239.0
51.59 249.0
51.605 247.0
51.62 246.0
51.635 255.0
51.65 253.0
51.665 237.0
51.68 262.0
51.695 263.0
51.71 250.0
51.725 231.0
51.74 249.0
51.755 224.0
51.77 250.0
51.785 210.0
51.8 214.0
51.815 216.0
51.83 234.0
51.845 236.0
51.86 229.0
51.875 227.0
51.89 220.0
51.905 238.0
51.92 243.0
51.935 248.0
51.95 236.0
51.965 217.0
51.98 235.0
51.995 241.0
52.01 247.0
52.025 258.0
52.04 236.0
52.055 242.0
52.07 234.0
52.085 220.0
52.1 222.0
52.115 226.0
52.13 222.0
52.145 242.0
52.16 241.0
52.175 231.0
52.19 238.0
52.205 236.0
52.22 236.0
52.235 212.0
52.25 244.0
52.265 230.0
52.28 232.0
52.295 243.0
52.31 222.0
52.325 207.0
52.34 238.0
52.355 223.0
52.37 212.0
52.385 225.0
52.4 224.0
52.415 240.0
52.43 214.0
52.445 221.0
52.46 236.0
52.475 241.0
52.49 218.0
52.505 224.0
52.52 238.0
52.535 247.0
52.55 213.0
52.565 207.0
52.58 251.0
52.595 234.0
52.61 223.0
52.625 236.0
52.64 228.0
52.655 212.0
52.67 254.0
52.685 249.0
52.7 235.0
52.715 235.0
52.73 235.0
52.745 232.0
52.76 221.0
52.775 231.0
52.79 226.0
52.805 244.0
52.82 239.0
52.835 224.0
52.85 246.0
52.865 226.0
52.88 233.0
52.895 235.0
52.91 226.0
52.925 221.0
52.94 230.0
52.955 225.0
52.97 212.0
52.985 207.0
53.0 219.0
53.015 257.0
53.03 230.0
53.045 236.0
53.06 250.0
53.075 235.0
53.09 236.0
53.105 234.0
53.12 216.0
53.135 232.0
53.15 242.0
53.165 239.0
53.18 220.0
53.195 240.0
53.21 246.0
53.225 251.0
53.24 232.0
53.255 243.0
53.27 235.0
53.285 240.0
53.3 217.0
53.315 223.0
53.33 221.0
53.345 252.0
53.36 253.0
53.375 203.0
53.39 231.0
53.405 233.0
53.42 232.0
53.435 226.0
53.45 230.0
53.465 245.0
53.48 220.0
53.495 212.0
53.51 242.0
53.525 225.0
53.54 243.0
53.555 225.0
53.57 220.0
53.585 248.0
53.6 228.0
53.615 232.0
53.63 232.0
53.645 221.0
53.66 231.0
53.675 232.0
53.69 224.0
53.705 219.0
53.72 244.0
53.735 226.0
53.75 228.0
53.765 209.0
53.78 217.0
53.795 244.0
53.81 225.0
53.825 218.0
53.84 228.0
53.855 234.0
53.87 202.0
53.885 210.0
53.9 217.0
53.915 229.0
53.93 221.0
53.945 228.0
53.96 235.0
53.975 236.0
53.99 230.0
54.005 233.0
54.02 232.0
54.035 217.0
54.05 206.0
54.065 196.0
54.08 228.0
54.095 240.0
54.11 241.0
54.125 239.0
54.14 237.0
54.155 224.0
54.17 216.0
54.185 231.0
54.2 224.0
54.215 235.0
54.23 216.0
54.245 226.0
54.26 209.0
54.275 189.0
54.29 216.0
54.305 233.0
54.32 211.0
54.335 217.0
54.35 209.0
54.365 213.0
54.38 224.0
54.395 224.0
54.41 225.0
54.425 232.0
54.44 228.0
54.455 218.0
54.47 218.0
54.485 219.0
54.5 209.0
54.515 229.0
54.53 230.0
54.545 245.0
54.56 223.0
54.575 232.0
54.59 232.0
54.605 214.0
54.62 226.0
54.635 220.0
54.65 236.0
54.665 237.0
54.68 226.0
54.695 222.0
54.71 216.0
54.725 246.0
54.74 241.0
54.755 231.0
54.77 215.0
54.785 225.0
54.8 222.0
54.815 217.0
54.83 225.0
54.845 211.0
54.86 235.0
54.875 231.0
54.89 229.0
54.905 219.0
54.92 246.0
54.935 234.0
54.95 221.0
54.965 227.0
54.98 208.0
54.995 212.0
55.01 229.0
55.025 209.0
55.04 206.0
55.055 218.0
55.07 224.0
55.085 218.0
55.1 203.0
55.115 227.0
55.13 231.0
55.145 206.0
55.16 213.0
55.175 225.0
55.19 229.0
55.205 222.0
55.22 237.0
55.235 210.0
55.25 217.0
55.265 214.0
55.28 232.0
55.295 224.0
55.31 226.0
55.325 218.0
55.34 225.0
55.355 233.0
55.37 218.0
55.385 205.0
55.4 212.0
55.415 221.0
55.43 218.0
55.445 213.0
55.46 216.0
55.475 221.0
55.49 216.0
55.505 230.0
55.52 210.0
55.535 204.0
55.55 214.0
55.565 211.0
55.58 219.0
55.595 220.0
55.61 214.0
55.625 222.0
55.64 229.0
55.655 222.0
55.67 214.0
55.685 213.0
55.7 221.0
55.715 226.0
55.73 202.0
55.745 214.0
55.76 219.0
55.775 194.0
55.79 207.0
55.805 211.0
55.82 217.0
55.835 205.0
55.85 211.0
55.865 195.0
55.88 211.0
55.895 237.0
55.91 207.0
55.925 207.0
55.94 204.0
55.955 223.0
55.97 210.0
55.985 210.0
56.0 214.0
56.015 206.0
56.03 215.0
56.045 231.0
56.06 227.0
56.075 206.0
56.09 206.0
56.105 209.0
56.12 191.0
56.135 226.0
56.15 217.0
56.165 208.0
56.18 234.0
56.195 222.0
56.21 206.0
56.225 234.0
56.24 217.0
56.255 188.0
56.27 200.0
56.285 217.0
56.3 230.0
56.315 196.0
56.33 214.0
56.345 217.0
56.36 203.0
56.375 215.0
56.39 220.0
56.405 214.0
56.42 224.0
56.435 212.0
56.45 213.0
56.465 220.0
56.48 218.0
56.495 221.0
56.51 194.0
56.525 223.0
56.54 223.0
56.555 205.0
56.57 200.0
56.585 190.0
56.6 203.0
56.615 201.0
56.63 214.0
56.645 216.0
56.66 231.0
56.675 210.0
56.69 217.0
56.705 217.0
56.72 214.0
56.735 198.0
56.75 193.0
56.765 188.0
56.78 204.0
56.795 220.0
56.81 219.0
56.825 216.0
56.84 222.0
56.855 208.0
56.87 201.0
56.885 210.0
56.9 218.0
56.915 215.0
56.93 220.0
56.945 230.0
56.96 238.0
56.975 227.0
56.99 198.0
57.005 212.0
57.02 224.0
57.035 194.0
57.05 200.0
57.065 193.0
57.08 215.0
57.095 221.0
57.11 214.0
57.125 212.0
57.14 196.0
57.155 192.0
57.17 196.0
57.185 192.0
57.2 193.0
57.215 208.0
57.23 204.0
57.245 219.0
57.26 208.0
57.275 211.0
57.29 220.0
57.305 206.0
57.32 233.0
57.335 213.0
57.35 219.0
57.365 205.0
57.38 214.0
57.395 212.0
57.41 210.0
57.425 191.0
57.44 204.0
57.455 208.0
57.47 217.0
57.485 204.0
57.5 209.0
57.515 217.0
57.53 226.0
57.545 220.0
57.56 195.0
57.575 219.0
57.59 221.0
57.605 212.0
57.62 214.0
57.635 222.0
57.65 238.0
57.665 243.0
57.68 216.0
57.695 230.0
57.71 228.0
57.725 208.0
57.74 214.0
57.755 237.0
57.77 240.0
57.785 240.0
57.8 205.0
57.815 232.0
57.83 211.0
57.845 187.0
57.86 197.0
57.875 188.0
57.89 195.0
57.905 220.0
57.92 229.0
57.935 232.0
57.95 224.0
57.965 238.0
57.98 222.0
57.995 211.0
58.01 228.0
58.025 215.0
58.04 203.0
58.055 208.0
58.07 213.0
58.085 222.0
58.1 207.0
58.115 216.0
58.13 197.0
58.145 223.0
58.16 224.0
58.175 223.0
58.19 203.0
58.205 213.0
58.22 214.0
58.235 205.0
58.25 210.0
58.265 198.0
58.28 189.0
58.295 192.0
58.31 183.0
58.325 198.0
58.34 200.0
58.355 220.0
58.37 202.0
58.385 200.0
58.4 221.0
58.415 221.0
58.43 229.0
58.445 218.0
58.46 190.0
58.475 206.0
58.49 210.0
58.505 222.0
58.52 205.0
58.535 199.0
58.55 188.0
58.565 217.0
58.58 199.0
58.595 208.0
58.61 211.0
58.625 200.0
58.64 186.0
58.655 178.0
58.67 210.0
58.685 198.0
58.7 213.0
58.715 216.0
58.73 216.0
58.745 195.0
58.76 188.0
58.775 178.0
58.79 189.0
58.805 198.0
58.82 205.0
58.835 189.0
58.85 198.0
58.865 196.0
58.88 226.0
58.895 220.0
58.91 208.0
58.925 182.0
58.94 197.0
58.955 194.0
58.97 196.0
58.985 193.0
59.0 201.0
59.015 188.0
59.03 195.0
59.045 213.0
59.06 204.0
59.075 197.0
59.09 206.0
59.105 200.0
59.12 196.0
59.135 213.0
59.15 208.0
59.165 213.0
59.18 193.0
59.195 209.0
59.21 192.0
59.225 218.0
59.24 203.0
59.255 202.0
59.27 203.0
59.285 187.0
59.3 195.0
59.315 191.0
59.33 173.0
59.345 204.0
59.36 211.0
59.375 208.0
59.39 206.0
59.405 183.0
59.42 194.0
59.435 196.0
59.45 211.0
59.465 203.0
59.48 197.0
59.495 209.0
59.51 214.0
59.525 200.0
59.54 213.0
59.555 199.0
59.57 200.0
59.585 203.0
59.6 194.0
59.615 191.0
59.63 189.0
59.645 193.0
59.66 217.0
59.675 211.0
59.69 187.0
59.705 192.0
59.72 192.0
59.735 193.0
59.75 196.0
59.765 185.0
59.78 195.0
59.795 204.0
59.81 186.0
59.825 193.0
59.84 187.0
59.855 196.0
59.87 207.0
59.885 201.0
59.9 199.0
59.915 199.0
59.93 215.0
59.945 199.0
59.96 190.0
59.975 197.0
59.99 221.0
60.005 183.0
60.02 184.0
60.035 218.0
60.05 217.0
60.065 186.0
60.08 202.0
60.095 195.0
60.11 180.0
60.125 191.0
60.14 206.0
60.155 198.0
60.17 177.0
60.185 181.0
60.2 200.0
60.215 183.0
60.23 206.0
60.245 199.0
60.26 193.0
60.275 193.0
60.29 188.0
60.305 179.0
60.32 177.0
60.335 182.0
60.35 195.0
60.365 198.0
60.38 186.0
60.395 211.0
60.41 201.0
60.425 183.0
60.44 181.0
60.455 193.0
60.47 199.0
60.485 194.0
60.5 166.0
60.515 177.0
60.53 193.0
60.545 196.0
60.56 207.0
60.575 208.0
60.59 208.0
60.605 200.0
60.62 202.0
60.635 222.0
60.65 208.0
60.665 193.0
60.68 193.0
60.695 203.0
60.71 198.0
60.725 184.0
60.74 180.0
60.755 191.0
60.77 188.0
60.785 194.0
60.8 196.0
60.815 214.0
60.83 185.0
60.845 206.0
60.86 192.0
60.875 189.0
60.89 199.0
60.905 222.0
60.92 210.0
60.935 174.0
60.95 212.0
60.965 217.0
60.98 192.0
60.995 186.0
61.01 177.0
61.025 185.0
61.04 197.0
61.055 180.0
61.07 189.0
61.085 198.0
61.1 197.0
61.115 199.0
61.13 202.0
61.145 189.0
61.16 180.0
61.175 182.0
61.19 194.0
61.205 188.0
61.22 195.0
61.235 192.0
61.25 191.0
61.265 182.0
61.28 190.0
61.295 202.0
61.31 192.0
61.325 199.0
61.34 191.0
61.355 179.0
61.37 174.0
61.385 193.0
61.4 176.0
61.415 198.0
61.43 193.0
61.445 207.0
61.46 179.0
61.475 180.0
61.49 189.0
61.505 190.0
61.52 173.0
61.535 196.0
61.55 193.0
61.565 215.0
61.58 185.0
61.595 210.0
61.61 200.0
61.625 184.0
61.64 173.0
61.655 196.0
61.67 196.0
61.685 192.0
61.7 171.0
61.715 215.0
61.73 184.0
61.745 193.0
61.76 213.0
61.775 205.0
61.79 206.0
61.805 193.0
61.82 194.0
61.835 189.0
61.85 202.0
61.865 182.0
61.88 208.0
61.895 211.0
61.91 216.0
61.925 208.0
61.94 183.0
61.955 189.0
61.97 190.0
61.985 180.0
