2.00000 5.000
2.01500 3.000
2.03000 7.000
2.04500 3.000
2.06000 5.000
2.07500 3.000
2.09000 2.000
2.10500 2.000
2.12000 4.000
2.13500 2.000
2.15000 3.000
2.16500 6.000
2.18000 3.000
2.19500 2.000
2.21000 4.000
2.22500 2.000
2.24000 0.000
2.25500 2.000
2.27000 2.000
2.28500 5.000
2.30000 2.000
2.31500 1.000
2.33000 4.000
2.34500 5.000
2.36000 4.000
2.37500 2.000
2.39000 4.000
2.40500 4.000
2.42000 5.000
2.43500 1.000
2.45000 1.000
2.46500 7.000
2.48000 4.000
2.49500 5.000
2.51000 4.000
2.52500 4.000
2.54000 4.000
2.55500 5.000
2.57000 3.000
2.58500 4.000
2.60000 6.000
2.61500 3.000
2.63000 4.000
2.64500 5.000
2.66000 6.000
2.67500 3.000
2.69000 2.000
2.70500 3.000
2.72000 4.000
2.73500 4.000
2.75000 5.000
2.76500 3.000
2.78000 2.000
2.79500 2.000
2.81000 3.000
2.82500 3.000
2.84000 3.000
2.85500 2.000
2.87000 4.000
2.88500 2.000
2.90000 2.000
2.91500 3.000
2.93000 4.000
2.94500 3.000
2.96000 5.000
2.97500 6.000
2.99000 3.000
3.00500 3.000
3.02000 5.000
3.03500 6.000
3.05000 7.000
3.06500 6.000
3.08000 6.000
3.09500 5.000
3.11000 3.000
3.12500 3.000
3.14000 5.000
3.15500 8.000
3.17000 17.000
3.18500 22.000
3.20000 25.000
3.21500 37.000
3.23000 75.000
3.24500 100.000
3.26000 136.000
3.27500 189.000
3.29000 217.000
3.30500 245.000
3.32000 310.000
3.33500 339.000
3.35000 346.000
3.36500 388.000
3.38000 396.000
3.39500 381.000
3.41000 388.000
3.42500 369.000
3.44000 412.000
3.45500 408.000
3.47000 388.000
3.48500 393.000
3.50000 351.000
3.51500 362.000
3.53000 385.000
3.54500 370.000
3.56000 384.000
3.57500 388.000
3.59000 388.000
3.60500 407.000
3.62000 359.000
3.63500 392.000
3.65000 398.000
3.66500 366.000
3.68000 368.000
3.69500 354.000
3.71000 357.000
3.72500 383.000
3.74000 380.000
3.75500 364.000
3.77000 344.000
3.78500 370.000
3.80000 347.000
3.81500 369.000
3.83000 334.000
3.84500 352.000
3.86000 335.000
3.87500 360.000
3.89000 370.000
3.90500 366.000
3.92000 359.000
3.93500 338.000
3.95000 327.000
3.96500 335.000
3.98000 339.000
3.99500 346.000
4.01000 368.000
4.02500 396.000
4.04000 353.000
4.05500 364.000
4.07000 368.000
4.08500 348.000
4.10000 322.000
4.11500 346.000
4.13000 333.000
4.14500 351.000
4.16000 339.000
4.17500 336.000
4.19000 365.000
4.20500 337.000
4.22000 329.000
4.23500 329.000
4.25000 350.000
4.26500 345.000
4.28000 365.000
4.29500 367.000
4.31000 339.000
4.32500 361.000
4.34000 356.000
4.35500 357.000
4.37000 333.000
4.38500 368.000
4.40000 383.000
4.41500 363.000
4.43000 350.000
4.44500 350.000
4.46000 343.000
4.47500 339.000
4.49000 352.000
4.50500 353.000
4.52000 348.000
4.53500 345.000
4.55000 359.000
4.56500 365.000
4.58000 352.000
4.59500 361.000
4.61000 358.000
4.62500 358.000
4.64000 363.000
4.65500 369.000
4.67000 345.000
4.68500 356.000
4.70000 364.000
4.71500 362.000
4.73000 381.000
4.74500 348.000
4.76000 357.000
4.77500 357.000
4.79000 375.000
4.80500 341.000
4.82000 342.000
4.83500 339.000
4.85000 383.000
4.86500 362.000
4.88000 347.000
4.89500 370.000
4.91000 366.000
4.92500 347.000
4.94000 371.000
4.95500 370.000
4.97000 361.000
4.98500 366.000
5.00000 359.000
5.01500 373.000
5.03000 383.000
5.04500 387.000
5.06000 395.000
5.07500 378.000
5.09000 386.000
5.10500 376.000
5.12000 385.000
5.13500 392.000
5.15000 367.000
5.16500 383.000
5.18000 374.000
5.19500 367.000
5.21000 373.000
5.22500 400.000
5.24000 404.000
5.25500 354.000
5.27000 328.000
5.28500 360.000
5.30000 381.000
5.31500 359.000
5.33000 363.000
5.34500 374.000
5.36000 370.000
5.37500 409.000
5.39000 405.000
5.40500 402.000
5.42000 393.000
5.43500 391.000
5.45000 373.000
5.46500 380.000
5.48000 339.000
5.49500 342.000
5.51000 364.000
5.52500 371.000
5.54000 395.000
5.55500 399.000
5.57000 388.000
5.58500 398.000
5.60000 352.000
5.61500 400.000
5.63000 403.000
5.64500 382.000
5.66000 364.000
5.67500 401.000
5.69000 408.000
5.70500 369.000
5.72000 390.000
5.73500 409.000
5.75000 389.000
5.76500 401.000
5.78000 371.000
5.79500 345.000
5.81000 368.000
5.82500 382.000
5.84000 401.000
5.85500 385.000
5.87000 426.000
5.88500 416.000
5.90000 410.000
5.91500 379.000
5.93000 381.000
5.94500 355.000
5.96000 397.000
5.97500 399.000
5.99000 388.000
6.00500 367.000
6.02000 398.000
6.03500 404.000
6.05000 393.000
6.06500 386.000
6.08000 362.000
6.09500 374.000
6.11000 388.000
6.12500 403.000
6.14000 350.000
6.15500 357.000
6.17000 391.000
6.18500 376.000
6.20000 395.000
6.21500 424.000
6.23000 430.000
6.24500 394.000
6.26000 392.000
6.27500 413.000
6.29000 382.000
6.30500 420.000
6.32000 419.000
6.33500 394.000
6.35000 403.000
6.36500 384.000
6.38000 398.000
6.39500 369.000
6.41000 385.000
6.42500 405.000
6.44000 394.000
6.45500 382.000
6.47000 409.000
6.48500 410.000
6.50000 397.000
6.51500 399.000
6.53000 383.000
6.54500 399.000
6.56000 378.000
6.57500 400.000
6.59000 392.000
6.60500 374.000
6.62000 406.000
6.63500 411.000
6.65000 423.000
6.66500 427.000
6.68000 387.000
6.69500 405.000
6.71000 402.000
6.72500 416.000
6.74000 388.000
6.75500 407.000
6.77000 413.000
6.78500 401.000
6.80000 412.000
6.81500 409.000
6.83000 411.000
6.84500 440.000
6.86000 386.000
6.87500 386.000
6.89000 403.000
6.90500 399.000
6.92000 412.000
6.93500 413.000
6.95000 394.000
6.96500 415.000
6.98000 412.000
6.99500 375.000
7.01000 412.000
7.02500 411.000
7.04000 415.000
7.05500 422.000
7.07000 418.000
7.08500 395.000
7.10000 412.000
7.11500 414.000
7.13000 427.000
7.14500 428.000
7.16000 413.000
7.17500 436.000
7.19000 400.000
7.20500 420.000
7.22000 407.000
7.23500 431.000
7.25000 403.000
7.26500 406.000
7.28000 416.000
7.29500 410.000
7.31000 411.000
7.32500 410.000
7.34000 415.000
7.35500 426.000
7.37000 427.000
7.38500 396.000
7.40000 394.000
7.41500 398.000
7.43000 439.000
7.44500 392.000
7.46000 416.000
7.47500 392.000
7.49000 414.000
7.50500 415.000
7.52000 421.000
7.53500 408.000
7.55000 379.000
7.56500 434.000
7.58000 421.000
7.59500 413.000
7.61000 459.000
7.62500 420.000
7.64000 403.000
7.65500 412.000
7.67000 444.000
7.68500 398.000
7.70000 404.000
7.71500 409.000
7.73000 420.000
7.74500 416.000
7.76000 427.000
7.77500 450.000
7.79000 437.000
7.80500 421.000
7.82000 404.000
7.83500 415.000
7.85000 400.000
7.86500 391.000
7.88000 426.000
7.89500 439.000
7.91000 436.000
7.92500 422.000
7.94000 425.000
7.95500 426.000
7.97000 392.000
7.98500 407.000
8.00000 397.000
8.01500 439.000
8.03000 436.000
8.04500 404.000
8.06000 412.000
8.07500 451.000
8.09000 422.000
8.10500 416.000
8.12000 450.000
8.13500 429.000
8.15000 436.000
8.16500 445.000
8.18000 414.000
8.19500 445.000
8.21000 447.000
8.22500 453.000
8.24000 407.000
8.25500 424.000
8.27000 442.000
8.28500 428.000
8.30000 395.000
8.31500 414.000
8.33000 433.000
8.34500 436.000
8.36000 426.000
8.37500 446.000
8.39000 444.000
8.40500 458.000
8.42000 443.000
8.43500 423.000
8.45000 432.000
8.46500 425.000
8.48000 451.000
8.49500 434.000
8.51000 438.000
8.52500 419.000
8.54000 413.000
8.55500 434.000
8.57000 420.000
8.58500 420.000
8.60000 430.000
8.61500 424.000
8.63000 443.000
8.64500 432.000
8.66000 397.000
8.67500 437.000
8.69000 455.000
8.70500 429.000
8.72000 457.000
8.73500 448.000
8.75000 416.000
8.76500 433.000
8.78000 457.000
8.79500 425.000
8.81000 420.000
8.82500 409.000
8.84000 423.000
8.85500 414.000
8.87000 431.000
8.88500 459.000
8.90000 448.000
8.91500 422.000
8.93000 418.000
8.94500 442.000
8.96000 422.000
8.97500 443.000
8.99000 437.000
9.00500 425.000
9.02000 442.000
9.03500 421.000
9.05000 420.000
9.06500 433.000
9.08000 414.000
9.09500 431.000
9.11000 453.000
9.12500 437.000
9.14000 458.000
9.15500 458.000
9.17000 478.000
9.18500 444.000
9.20000 463.000
9.21500 468.000
9.23000 453.000
9.24500 431.000
9.26000 427.000
9.27500 423.000
9.29000 447.000
9.30500 427.000
9.32000 418.000
9.33500 404.000
9.35000 414.000
9.36500 421.000
9.38000 453.000
9.39500 468.000
9.41000 441.000
9.42500 447.000
9.44000 410.000
9.45500 437.000
9.47000 453.000
9.48500 439.000
9.50000 425.000
9.51500 452.000
9.53000 426.000
9.54500 400.000
9.56000 440.000
9.57500 423.000
9.59000 417.000
9.60500 460.000
9.62000 444.000
9.63500 419.000
9.65000 427.000
9.66500 420.000
9.68000 425.000
9.69500 444.000
9.71000 442.000
9.72500 463.000
9.74000 436.000
9.75500 439.000
9.77000 449.000
9.78500 445.000
9.80000 461.000
9.81500 450.000
9.83000 462.000
9.84500 425.000
9.86000 435.000
9.87500 447.000
9.89000 425.000
9.90500 436.000
9.92000 422.000
9.93500 426.000
9.95000 443.000
9.96500 422.000
9.98000 425.000
9.99500 400.000
10.01000 440.000
10.02500 419.000
10.04000 456.000
10.05500 419.000
10.07000 421.000
10.08500 485.000
10.10000 463.000
10.11500 453.000
10.13000 435.000
10.14500 430.000
10.16000 465.000
10.17500 464.000
10.19000 466.000
10.20500 423.000
10.22000 427.000
10.23500 419.000
10.25000 448.000
10.26500 421.000
10.28000 435.000
10.29500 469.000
10.31000 461.000
10.32500 425.000
10.34000 428.000
10.35500 399.000
10.37000 408.000
10.38500 425.000
10.40000 483.000
10.41500 459.000
10.43000 439.000
10.44500 435.000
10.46000 429.000
10.47500 458.000
10.49000 420.000
10.50500 430.000
10.52000 451.000
10.53500 457.000
10.55000 448.000
10.56500 461.000
10.58000 427.000
10.59500 467.000
10.61000 449.000
10.62500 421.000
10.64000 427.000
10.65500 434.000
10.67000 427.000
10.68500 410.000
10.70000 442.000
10.71500 434.000
10.73000 446.000
10.74500 427.000
10.76000 423.000
10.77500 425.000
10.79000 451.000
10.80500 452.000
10.82000 429.000
10.83500 401.000
10.85000 419.000
10.86500 453.000
10.88000 427.000
10.89500 434.000
10.91000 447.000
10.92500 431.000
10.94000 426.000
10.95500 456.000
10.97000 438.000
10.98500 450.000
11.00000 441.000
11.01500 413.000
11.03000 438.000
11.04500 421.000
11.06000 464.000
11.07500 467.000
11.09000 428.000
11.10500 454.000
11.12000 443.000
11.13500 440.000
11.15000 431.000
11.16500 447.000
11.18000 461.000
11.19500 436.000
11.21000 445.000
11.22500 472.000
11.24000 431.000
11.25500 439.000
11.27000 406.000
11.28500 467.000
11.30000 462.000
11.31500 431.000
11.33000 424.000
11.34500 433.000
11.36000 430.000
11.37500 439.000
11.39000 418.000
11.40500 439.000
11.42000 463.000
11.43500 449.000
11.45000 453.000
11.46500 451.000
11.48000 401.000
11.49500 440.000
11.51000 421.000
11.52500 441.000
11.54000 429.000
11.55500 445.000
11.57000 430.000
11.58500 460.000
11.60000 433.000
11.61500 438.000
11.63000 446.000
11.64500 422.000
11.66000 443.000
11.67500 459.000
11.69000 458.000
11.70500 434.000
11.72000 457.000
11.73500 469.000
11.75000 495.000
11.76500 452.000
11.78000 440.000
11.79500 445.000
11.81000 482.000
11.82500 422.000
11.84000 414.000
11.85500 466.000
11.87000 457.000
11.88500 468.000
11.90000 448.000
11.91500 451.000
11.93000 451.000
11.94500 453.000
11.96000 453.000
11.97500 452.000
11.99000 426.000
12.00500 442.000
12.02000 435.000
12.03500 466.000
12.05000 415.000
12.06500 422.000
12.08000 469.000
12.09500 438.000
12.11000 445.000
12.12500 470.000
12.14000 463.000
12.15500 458.000
12.17000 447.000
12.18500 431.000
12.20000 441.000
12.21500 435.000
12.23000 447.000
12.24500 450.000
12.26000 434.000
12.27500 452.000
12.29000 435.000
12.30500 440.000
12.32000 448.000
12.33500 442.000
12.35000 426.000
12.36500 413.000
12.38000 416.000
12.39500 421.000
12.41000 442.000
12.42500 449.000
12.44000 431.000
12.45500 412.000
12.47000 433.000
12.48500 408.000
12.50000 455.000
12.51500 468.000
12.53000 470.000
12.54500 462.000
12.56000 452.000
12.57500 441.000
12.59000 469.000
12.60500 411.000
12.62000 440.000
12.63500 425.000
12.65000 459.000
12.66500 485.000
12.68000 466.000
12.69500 460.000
12.71000 420.000
12.72500 451.000
12.74000 454.000
12.75500 445.000
12.77000 448.000
12.78500 463.000
12.80000 459.000
12.81500 457.000
12.83000 427.000
12.84500 415.000
12.86000 467.000
12.87500 425.000
12.89000 439.000
12.90500 493.000
12.92000 447.000
12.93500 424.000
12.95000 418.000
12.96500 418.000
12.98000 434.000
12.99500 451.000
13.01000 447.000
13.02500 416.000
13.04000 426.000
13.05500 449.000
13.07000 432.000
13.08500 435.000
13.10000 477.000
13.11500 467.000
13.13000 435.000
13.14500 468.000
13.16000 473.000
13.17500 433.000
13.19000 457.000
13.20500 458.000
13.22000 455.000
13.23500 452.000
13.25000 463.000
13.26500 446.000
13.28000 438.000
13.29500 436.000
13.31000 438.000
13.32500 425.000
13.34000 418.000
13.35500 427.000
13.37000 410.000
13.38500 426.000
13.40000 429.000
13.41500 448.000
13.43000 423.000
13.44500 434.000
13.46000 454.000
13.47500 424.000
13.49000 430.000
13.50500 429.000
13.52000 458.000
13.53500 426.000
13.55000 420.000
13.56500 440.000
13.58000 451.000
13.59500 456.000
13.61000 403.000
13.62500 445.000
13.64000 437.000
13.65500 480.000
13.67000 468.000
13.68500 428.000
13.70000 450.000
13.71500 439.000
13.73000 463.000
13.74500 463.000
13.76000 435.000
13.77500 442.000
13.79000 415.000
13.80500 442.000
13.82000 437.000
13.83500 441.000
13.85000 441.000
13.86500 450.000
13.88000 447.000
13.89500 462.000
13.91000 452.000
13.92500 441.000
13.94000 444.000
13.95500 416.000
13.97000 425.000
13.98500 461.000
14.00000 457.000
14.01500 421.000
14.03000 403.000
14.04500 438.000
14.06000 424.000
14.07500 438.000
14.09000 438.000
14.10500 448.000
14.12000 457.000
14.13500 435.000
14.15000 411.000
14.16500 421.000
14.18000 442.000
14.19500 441.000
14.21000 426.000
14.22500 425.000
14.24000 435.000
14.25500 447.000
14.27000 438.000
14.28500 430.000
14.30000 421.000
14.31500 421.000
14.33000 447.000
14.34500 444.000
14.36000 457.000
14.37500 457.000
14.39000 459.000
14.40500 462.000
14.42000 456.000
14.43500 434.000
14.45000 429.000
14.46500 425.000
14.48000 441.000
14.49500 439.000
14.51000 418.000
14.52500 467.000
14.54000 460.000
14.55500 442.000
14.57000 435.000
14.58500 440.000
14.60000 431.000
14.61500 417.000
14.63000 464.000
14.64500 446.000
14.66000 450.000
14.67500 462.000
14.69000 452.000
14.70500 472.000
14.72000 463.000
14.73500 464.000
14.75000 433.000
14.76500 415.000
14.78000 432.000
14.79500 431.000
14.81000 468.000
14.82500 462.000
14.84000 458.000
14.85500 455.000
14.87000 476.000
14.88500 467.000
14.90000 479.000
14.91500 462.000
14.93000 447.000
14.94500 426.000
14.96000 466.000
14.97500 441.000
14.99000 444.000
15.00500 426.000
15.02000 468.000
15.03500 431.000
15.05000 430.000
15.06500 429.000
15.08000 436.000
15.09500 464.000
15.11000 455.000
15.12500 471.000
15.14000 437.000
15.15500 426.000
15.17000 409.000
15.18500 409.000
15.20000 429.000
15.21500 421.000
15.23000 443.000
15.24500 465.000
15.26000 443.000
15.27500 433.000
15.29000 449.000
15.30500 445.000
15.32000 425.000
15.33500 446.000
15.35000 462.000
15.36500 438.000
15.38000 418.000
15.39500 441.000
15.41000 423.000
15.42500 415.000
15.44000 452.000
15.45500 449.000
15.47000 488.000
15.48500 454.000
15.50000 457.000
15.51500 442.000
15.53000 449.000
15.54500 469.000
15.56000 442.000
15.57500 422.000
15.59000 410.000
15.60500 414.000
15.62000 445.000
15.63500 474.000
15.65000 447.000
15.66500 446.000
15.68000 442.000
15.69500 424.000
15.71000 452.000
15.72500 444.000
15.74000 458.000
15.75500 432.000
15.77000 433.000
15.78500 450.000
15.80000 444.000
15.81500 456.000
15.83000 439.000
15.84500 444.000
15.86000 446.000
15.87500 448.000
15.89000 475.000
15.90500 475.000
15.92000 434.000
15.93500 466.000
15.95000 451.000
15.96500 438.000
15.98000 470.000
15.99500 466.000
16.01000 439.000
16.02500 470.000
16.04000 463.000
16.05500 439.000
16.07000 444.000
16.08500 471.000
16.10000 452.000
16.11500 434.000
16.13000 433.000
16.14500 446.000
16.16000 442.000
16.17500 456.000
16.19000 433.000
16.20500 461.000
16.22000 505.000
16.23500 469.000
16.25000 445.000
16.26500 459.000
16.28000 458.000
16.29500 438.000
16.31000 449.000
16.32500 461.000
16.34000 471.000
16.35500 459.000
16.37000 455.000
16.38500 435.000
16.40000 472.000
16.41500 462.000
16.43000 452.000
16.44500 436.000
16.46000 430.000
16.47500 425.000
16.49000 430.000
16.50500 442.000
16.52000 435.000
16.53500 447.000
16.55000 465.000
16.56500 447.000
16.58000 447.000
16.59500 478.000
16.61000 450.000
16.62500 427.000
16.64000 429.000
16.65500 454.000
16.67000 429.000
16.68500 457.000
16.70000 487.000
16.71500 459.000
16.73000 448.000
16.74500 459.000
16.76000 462.000
16.77500 432.000
16.79000 452.000
16.80500 465.000
16.82000 447.000
16.83500 427.000
16.85000 475.000
16.86500 449.000
16.88000 445.000
16.89500 448.000
16.91000 467.000
16.92500 453.000
16.94000 462.000
16.95500 457.000
16.97000 487.000
16.98500 497.000
17.00000 472.000
17.01500 465.000
17.03000 443.000
17.04500 452.000
17.06000 458.000
17.07500 448.000
17.09000 448.000
17.10500 440.000
17.12000 450.000
17.13500 466.000
17.15000 465.000
17.16500 478.000
17.18000 469.000
17.19500 465.000
17.21000 470.000
17.22500 457.000
17.24000 479.000
17.25500 455.000
17.27000 469.000
17.28500 430.000
17.30000 467.000
17.31500 460.000
17.33000 466.000
17.34500 464.000
17.36000 473.000
17.37500 469.000
17.39000 490.000
17.40500 462.000
17.42000 460.000
17.43500 458.000
17.45000 471.000
17.46500 512.000
17.48000 478.000
17.49500 459.000
17.51000 470.000
17.52500 462.000
17.54000 466.000
17.55500 478.000
17.57000 455.000
17.58500 478.000
17.60000 459.000
17.61500 461.000
17.63000 484.000
17.64500 453.000
17.66000 501.000
17.67500 470.000
17.69000 463.000
17.70500 451.000
17.72000 472.000
17.73500 473.000
17.75000 466.000
17.76500 464.000
17.78000 476.000
17.79500 491.000
17.81000 465.000
17.82500 437.000
17.84000 445.000
17.85500 453.000
17.87000 490.000
17.88500 475.000
17.90000 502.000
17.91500 469.000
17.93000 464.000
17.94500 481.000
17.96000 467.000
17.97500 455.000
17.99000 465.000
18.00500 464.000
18.02000 445.000
18.03500 435.000
18.05000 452.000
18.06500 473.000
18.08000 499.000
18.09500 478.000
18.11000 455.000
18.12500 477.000
18.14000 468.000
18.15500 447.000
18.17000 489.000
18.18500 442.000
18.20000 458.000
18.21500 490.000
18.23000 455.000
18.24500 487.000
18.26000 488.000
18.27500 479.000
18.29000 483.000
18.30500 478.000
18.32000 470.000
18.33500 485.000
18.35000 519.000
18.36500 476.000
18.38000 441.000
18.39500 467.000
18.41000 489.000
18.42500 485.000
18.44000 483.000
18.45500 461.000
18.47000 499.000
18.48500 507.000
18.50000 480.000
18.51500 473.000
18.53000 470.000
18.54500 459.000
18.56000 457.000
18.57500 444.000
18.59000 470.000
18.60500 458.000
18.62000 461.000
18.63500 434.000
18.65000 447.000
18.66500 469.000
18.68000 504.000
18.69500 514.000
18.71000 505.000
18.72500 487.000
18.74000 494.000
18.75500 501.000
18.77000 488.000
18.78500 476.000
18.80000 499.000
18.81500 489.000
18.83000 482.000
18.84500 472.000
18.86000 474.000
18.87500 492.000
18.89000 465.000
18.90500 497.000
18.92000 479.000
18.93500 516.000
18.95000 476.000
18.96500 486.000
18.98000 494.000
18.99500 500.000
19.01000 491.000
19.02500 478.000
19.04000 468.000
19.05500 495.000
19.07000 478.000
19.08500 504.000
19.10000 486.000
19.11500 485.000
19.13000 492.000
19.14500 499.000
19.16000 463.000
19.17500 508.000
19.19000 496.000
19.20500 488.000
19.22000 509.000
19.23500 513.000
19.25000 487.000
19.26500 503.000
19.28000 488.000
19.29500 475.000
19.31000 472.000
19.32500 480.000
19.34000 470.000
19.35500 494.000
19.37000 479.000
19.38500 513.000
19.40000 474.000
19.41500 516.000
19.43000 479.000
19.44500 486.000
19.46000 486.000
19.47500 479.000
19.49000 518.000
19.50500 486.000
19.52000 500.000
19.53500 479.000
19.55000 475.000
19.56500 459.000
19.58000 486.000
19.59500 473.000
19.61000 500.000
19.62500 484.000
19.64000 453.000
19.65500 458.000
19.67000 487.000
19.68500 487.000
19.70000 487.000
19.71500 487.000
19.73000 481.000
19.74500 513.000
19.76000 500.000
19.77500 495.000
19.79000 492.000
19.80500 470.000
19.82000 530.000
19.83500 482.000
19.85000 479.000
19.86500 471.000
19.88000 460.000
19.89500 493.000
19.91000 481.000
19.92500 460.000
19.94000 482.000
19.95500 516.000
19.97000 486.000
19.98500 460.000
20.00000 492.000
20.01500 517.000
20.03000 466.000
20.04500 514.000
20.06000 475.000
20.07500 497.000
20.09000 525.000
20.10500 489.000
20.12000 496.000
20.13500 454.000
20.15000 483.000
20.16500 505.000
20.18000 474.000
20.19500 482.000
20.21000 495.000
20.22500 463.000
20.24000 495.000
20.25500 514.000
20.27000 480.000
20.28500 488.000
20.30000 494.000
20.31500 479.000
20.33000 483.000
20.34500 513.000
20.36000 511.000
20.37500 487.000
20.39000 473.000
20.40500 501.000
20.42000 523.000
20.43500 513.000
20.45000 505.000
20.46500 488.000
20.48000 483.000
20.49500 500.000
20.51000 505.000
20.52500 532.000
20.54000 511.000
20.55500 501.000
20.57000 488.000
20.58500 499.000
20.60000 503.000
20.61500 506.000
20.63000 479.000
20.64500 459.000
20.66000 499.000
20.67500 492.000
20.69000 484.000
20.70500 514.000
20.72000 491.000
20.73500 505.000
20.75000 490.000
20.76500 486.000
20.78000 497.000
20.79500 508.000
20.81000 496.000
20.82500 499.000
20.84000 498.000
20.85500 484.000
20.87000 492.000
20.88500 494.000
20.90000 519.000
20.91500 494.000
20.93000 493.000
20.94500 485.000
20.96000 517.000
20.97500 515.000
20.99000 525.000
21.00500 509.000
21.02000 497.000
21.03500 536.000
21.05000 491.000
21.06500 471.000
21.08000 459.000
21.09500 452.000
21.11000 495.000
21.12500 525.000
21.14000 488.000
21.15500 498.000
21.17000 503.000
21.18500 531.000
21.20000 497.000
21.21500 488.000
21.23000 532.000
21.24500 537.000
21.26000 509.000
21.27500 507.000
21.29000 533.000
21.30500 545.000
21.32000 507.000
21.33500 503.000
21.35000 521.000
21.36500 462.000
21.38000 506.000
21.39500 493.000
21.41000 512.000
21.42500 526.000
21.44000 524.000
21.45500 483.000
21.47000 500.000
21.48500 536.000
21.50000 543.000
21.51500 567.000
21.53000 511.000
21.54500 535.000
21.56000 526.000
21.57500 531.000
21.59000 534.000
21.60500 532.000
21.62000 522.000
21.63500 537.000
21.65000 493.000
21.66500 485.000
21.68000 520.000
21.69500 555.000
21.71000 528.000
21.72500 523.000
21.74000 493.000
21.75500 522.000
21.77000 520.000
21.78500 494.000
21.80000 496.000
21.81500 513.000
21.83000 500.000
21.84500 492.000
21.86000 475.000
21.87500 511.000
21.89000 515.000
21.90500 492.000
21.92000 529.000
21.93500 526.000
21.95000 502.000
21.96500 507.000
21.98000 545.000
21.99500 530.000
22.01000 522.000
22.02500 516.000
22.04000 533.000
22.05500 520.000
22.07000 511.000
22.08500 534.000
22.10000 531.000
22.11500 525.000
22.13000 520.000
22.14500 515.000
22.16000 514.000
22.17500 539.000
22.19000 522.000
22.20500 502.000
22.22000 530.000
22.23500 514.000
22.25000 501.000
22.26500 503.000
22.28000 513.000
22.29500 527.000
22.31000 541.000
22.32500 498.000
22.34000 536.000
22.35500 551.000
22.37000 515.000
22.38500 568.000
22.40000 522.000
22.41500 477.000
22.43000 521.000
22.44500 523.000
22.46000 542.000
22.47500 567.000
22.49000 544.000
22.50500 512.000
22.52000 533.000
22.53500 552.000
22.55000 537.000
22.56500 530.000
22.58000 479.000
22.59500 510.000
22.61000 527.000
22.62500 547.000
22.64000 551.000
22.65500 557.000
22.67000 536.000
22.68500 529.000
22.70000 520.000
22.71500 555.000
22.73000 545.000
22.74500 481.000
22.76000 491.000
22.77500 494.000
22.79000 515.000
22.80500 491.000
22.82000 498.000
22.83500 552.000
22.85000 550.000
22.86500 536.000
22.88000 529.000
22.89500 538.000
22.91000 537.000
22.92500 560.000
22.94000 530.000
22.95500 544.000
22.97000 534.000
22.98500 547.000
23.00000 517.000
23.01500 530.000
23.03000 546.000
23.04500 555.000
23.06000 530.000
23.07500 524.000
23.09000 516.000
23.10500 576.000
23.12000 554.000
23.13500 510.000
23.15000 544.000
23.16500 559.000
23.18000 530.000
23.19500 550.000
23.21000 516.000
23.22500 514.000
23.24000 550.000
23.25500 539.000
23.27000 502.000
23.28500 515.000
23.30000 539.000
23.31500 530.000
23.33000 543.000
23.34500 576.000
23.36000 545.000
23.37500 523.000
23.39000 524.000
23.40500 528.000
23.42000 513.000
23.43500 533.000
23.45000 509.000
23.46500 541.000
23.48000 591.000
23.49500 546.000
23.51000 516.000
23.52500 544.000
23.54000 520.000
23.55500 526.000
23.57000 530.000
23.58500 557.000
23.60000 532.000
23.61500 578.000
23.63000 539.000
23.64500 547.000
23.66000 544.000
23.67500 544.000
23.69000 551.000
23.70500 499.000
23.72000 526.000
23.73500 531.000
23.75000 533.000
23.76500 510.000
23.78000 543.000
23.79500 555.000
23.81000 540.000
23.82500 547.000
23.84000 550.000
23.85500 560.000
23.87000 530.000
23.88500 554.000
23.90000 585.000
23.91500 581.000
23.93000 566.000
23.94500 532.000
23.96000 558.000
23.97500 554.000
23.99000 552.000
24.00500 539.000
24.02000 534.000
24.03500 549.000
24.05000 555.000
24.06500 585.000
24.08000 575.000
24.09500 559.000
24.11000 556.000
24.12500 549.000
24.14000 532.000
24.15500 561.000
24.17000 519.000
24.18500 488.000
24.20000 500.000
24.21500 513.000
24.23000 556.000
24.24500 562.000
24.26000 553.000
24.27500 516.000
24.29000 555.000
24.30500 561.000
24.32000 553.000
24.33500 560.000
24.35000 568.000
24.36500 543.000
24.38000 541.000
24.39500 568.000
24.41000 566.000
24.42500 538.000
24.44000 559.000
24.45500 575.000
24.47000 551.000
24.48500 547.000
24.50000 584.000
24.51500 561.000
24.53000 565.000
24.54500 531.000
24.56000 575.000
24.57500 608.000
24.59000 568.000
24.60500 548.000
24.62000 578.000
24.63500 554.000
24.65000 586.000
24.66500 600.000
24.68000 576.000
24.69500 572.000
24.71000 551.000
24.72500 580.000
24.74000 526.000
24.75500 573.000
24.77000 571.000
24.78500 541.000
24.80000 572.000
24.81500 567.000
24.83000 568.000
24.84500 572.000
24.86000 564.000
24.87500 560.000
24.89000 600.000
24.90500 591.000
24.92000 550.000
24.93500 545.000
24.95000 577.000
24.96500 571.000
24.98000 600.000
24.99500 622.000
25.01000 568.000
25.02500 561.000
25.04000 607.000
25.05500 582.000
25.07000 567.000
25.08500 589.000
25.10000 589.000
25.11500 577.000
25.13000 568.000
25.14500 572.000
25.16000 577.000
25.17500 612.000
25.19000 581.000
25.20500 571.000
25.22000 587.000
25.23500 580.000
25.25000 578.000
25.26500 575.000
25.28000 585.000
25.29500 595.000
25.31000 561.000
25.32500 575.000
25.34000 611.000
25.35500 596.000
25.37000 588.000
25.38500 612.000
25.40000 616.000
25.41500 579.000
25.43000 579.000
25.44500 616.000
25.46000 609.000
25.47500 623.000
25.49000 617.000
25.50500 623.000
25.52000 611.000
25.53500 612.000
25.55000 584.000
25.56500 577.000
25.58000 600.000
25.59500 639.000
25.61000 627.000
25.62500 619.000
25.64000 585.000
25.65500 611.000
25.67000 647.000
25.68500 620.000
25.70000 615.000
25.71500 625.000
25.73000 625.000
25.74500 567.000
25.76000 600.000
25.77500 606.000
25.79000 604.000
25.80500 592.000
25.82000 610.000
25.83500 624.000
25.85000 619.000
25.86500 588.000
25.88000 653.000
25.89500 663.000
25.91000 631.000
25.92500 611.000
25.94000 599.000
25.95500 621.000
25.97000 647.000
25.98500 659.000
26.00000 614.000
26.01500 657.000
26.03000 634.000
26.04500 633.000
26.06000 652.000
26.07500 630.000
26.09000 638.000
26.10500 667.000
26.12000 688.000
26.13500 641.000
26.15000 651.000
26.16500 664.000
26.18000 672.000
26.19500 669.000
26.21000 612.000
26.22500 665.000
26.24000 663.000
26.25500 719.000
26.27000 656.000
26.28500 657.000
26.30000 660.000
26.31500 653.000
26.33000 657.000
26.34500 689.000
26.36000 710.000
26.37500 713.000
26.39000 677.000
26.40500 646.000
26.42000 660.000
26.43500 670.000
26.45000 687.000
26.46500 679.000
26.48000 699.000
26.49500 720.000
26.51000 692.000
26.52500 715.000
26.54000 688.000
26.55500 707.000
26.57000 726.000
26.58500 740.000
26.60000 708.000
26.61500 689.000
26.63000 727.000
26.64500 682.000
26.66000 691.000
26.67500 667.000
26.69000 707.000
26.70500 702.000
26.72000 737.000
26.73500 702.000
26.75000 698.000
26.76500 709.000
26.78000 707.000
26.79500 730.000
26.81000 716.000
26.82500 710.000
26.84000 711.000
26.85500 720.000
26.87000 725.000
26.88500 714.000
26.90000 726.000
26.91500 735.000
26.93000 734.000
26.94500 728.000
26.96000 715.000
26.97500 733.000
26.99000 758.000
27.00500 722.000
27.02000 686.000
27.03500 699.000
27.05000 713.000
27.06500 732.000
27.08000 742.000
27.09500 723.000
27.11000 743.000
27.12500 708.000
27.14000 727.000
27.15500 726.000
27.17000 739.000
27.18500 748.000
27.20000 765.000
27.21500 734.000
27.23000 699.000
27.24500 700.000
27.26000 765.000
27.27500 735.000
27.29000 739.000
27.30500 737.000
27.32000 712.000
27.33500 703.000
27.35000 697.000
27.36500 761.000
27.38000 729.000
27.39500 736.000
27.41000 751.000
27.42500 756.000
27.44000 723.000
27.45500 746.000
27.47000 750.000
27.48500 699.000
27.50000 712.000
27.51500 725.000
27.53000 721.000
27.54500 704.000
27.56000 712.000
27.57500 689.000
27.59000 728.000
27.60500 738.000
27.62000 712.000
27.63500 755.000
27.65000 723.000
27.66500 722.000
27.68000 702.000
27.69500 697.000
27.71000 695.000
27.72500 691.000
27.74000 656.000
27.75500 688.000
27.77000 728.000
27.78500 724.000
27.80000 685.000
27.81500 659.000
27.83000 656.000
27.84500 660.000
27.86000 666.000
27.87500 659.000
27.89000 648.000
27.90500 690.000
27.92000 659.000
27.93500 682.000
27.95000 709.000
27.96500 658.000
27.98000 620.000
27.99500 638.000
28.01000 635.000
28.02500 648.000
28.04000 637.000
28.05500 662.000
28.07000 651.000
28.08500 659.000
28.10000 630.000
28.11500 643.000
28.13000 646.000
28.14500 630.000
28.16000 595.000
28.17500 617.000
28.19000 613.000
28.20500 604.000
28.22000 617.000
28.23500 615.000
28.25000 599.000
28.26500 591.000
28.28000 622.000
28.29500 593.000
28.31000 613.000
28.32500 611.000
28.34000 613.000
28.35500 615.000
28.37000 588.000
28.38500 573.000
28.40000 591.000
28.41500 578.000
28.43000 542.000
28.44500 543.000
28.46000 553.000
28.47500 577.000
28.49000 586.000
28.50500 592.000
28.52000 585.000
28.53500 574.000
28.55000 524.000
28.56500 505.000
28.58000 507.000
28.59500 539.000
28.61000 569.000
28.62500 556.000
28.64000 504.000
28.65500 509.000
28.67000 510.000
28.68500 550.000
28.70000 541.000
28.71500 531.000
28.73000 537.000
28.74500 506.000
28.76000 483.000
28.77500 478.000
28.79000 514.000
28.80500 521.000
28.82000 516.000
28.83500 551.000
28.85000 569.000
28.86500 506.000
28.88000 509.000
28.89500 494.000
28.91000 529.000
28.92500 494.000
28.94000 492.000
28.95500 479.000
28.97000 514.000
28.98500 548.000
29.00000 533.000
29.01500 499.000
29.03000 491.000
29.04500 514.000
29.06000 513.000
29.07500 496.000
29.09000 499.000
29.10500 517.000
29.12000 487.000
29.13500 511.000
29.15000 474.000
29.16500 469.000
29.18000 493.000
29.19500 512.000
29.21000 498.000
29.22500 489.000
29.24000 488.000
29.25500 523.000
29.27000 470.000
29.28500 485.000
29.30000 485.000
29.31500 527.000
29.33000 487.000
29.34500 527.000
29.36000 538.000
29.37500 577.000
29.39000 590.000
29.40500 615.000
29.42000 594.000
29.43500 583.000
29.45000 537.000
29.46500 480.000
29.48000 507.000
29.49500 476.000
29.51000 476.000
29.52500 494.000
29.54000 484.000
29.55500 443.000
29.57000 448.000
29.58500 453.000
29.60000 454.000
29.61500 477.000
29.63000 466.000
29.64500 457.000
29.66000 459.000
29.67500 417.000
29.69000 445.000
29.70500 432.000
29.72000 459.000
29.73500 455.000
29.75000 436.000
29.76500 460.000
29.78000 478.000
29.79500 449.000
29.81000 447.000
29.82500 485.000
29.84000 458.000
29.85500 450.000
29.87000 447.000
29.88500 439.000
29.90000 452.000
29.91500 462.000
29.93000 429.000
29.94500 435.000
29.96000 447.000
29.97500 440.000
29.99000 455.000
30.00500 438.000
30.02000 452.000
30.03500 429.000
30.05000 437.000
30.06500 426.000
30.08000 440.000
30.09500 434.000
30.11000 459.000
30.12500 428.000
30.14000 419.000
30.15500 415.000
30.17000 457.000
30.18500 435.000
30.20000 442.000
30.21500 421.000
30.23000 399.000
30.24500 426.000
30.26000 404.000
30.27500 408.000
30.29000 445.000
30.30500 438.000
30.32000 445.000
30.33500 418.000
30.35000 405.000
30.36500 399.000
30.38000 438.000
30.39500 459.000
30.41000 412.000
30.42500 420.000
30.44000 426.000
30.45500 403.000
30.47000 398.000
30.48500 397.000
30.50000 415.000
30.51500 386.000
30.53000 402.000
30.54500 427.000
30.56000 430.000
30.57500 410.000
30.59000 409.000
30.60500 403.000
30.62000 403.000
30.63500 430.000
30.65000 431.000
30.66500 413.000
30.68000 412.000
30.69500 422.000
30.71000 419.000
30.72500 428.000
30.74000 417.000
30.75500 417.000
30.77000 406.000
30.78500 393.000
30.80000 411.000
30.81500 404.000
30.83000 420.000
30.84500 430.000
30.86000 403.000
30.87500 384.000
30.89000 390.000
30.90500 376.000
30.92000 394.000
30.93500 408.000
30.95000 407.000
30.96500 412.000
30.98000 386.000
30.99500 412.000
31.01000 407.000
31.02500 417.000
31.04000 363.000
31.05500 384.000
31.07000 414.000
31.08500 396.000
31.10000 396.000
31.11500 430.000
31.13000 405.000
31.14500 388.000
31.16000 402.000
31.17500 419.000
31.19000 407.000
31.20500 405.000
31.22000 392.000
31.23500 393.000
31.25000 379.000
31.26500 384.000
31.28000 408.000
31.29500 391.000
31.31000 395.000
31.32500 393.000
31.34000 397.000
31.35500 380.000
31.37000 374.000
31.38500 386.000
31.40000 415.000
31.41500 378.000
31.43000 380.000
31.44500 383.000
31.46000 386.000
31.47500 420.000
31.49000 392.000
31.50500 374.000
31.52000 376.000
31.53500 366.000
31.55000 351.000
31.56500 368.000
31.58000 377.000
31.59500 352.000
31.61000 369.000
31.62500 355.000
31.64000 353.000
31.65500 369.000
31.67000 378.000
31.68500 359.000
31.70000 364.000
31.71500 359.000
31.73000 348.000
31.74500 362.000
31.76000 354.000
31.77500 367.000
31.79000 367.000
31.80500 375.000
31.82000 374.000
31.83500 329.000
31.85000 332.000
31.86500 343.000
31.88000 371.000
31.89500 363.000
31.91000 355.000
31.92500 376.000
31.94000 372.000
31.95500 363.000
31.97000 344.000
31.98500 326.000
32.00000 333.000
32.01500 378.000
32.03000 376.000
32.04500 366.000
32.06000 364.000
32.07500 350.000
32.09000 336.000
32.10500 361.000
32.12000 372.000
32.13500 366.000
32.15000 373.000
32.16500 363.000
32.18000 368.000
32.19500 349.000
32.21000 365.000
32.22500 375.000
32.24000 347.000
32.25500 354.000
32.27000 354.000
32.28500 353.000
32.30000 344.000
32.31500 346.000
32.33000 346.000
32.34500 334.000
32.36000 357.000
32.37500 340.000
32.39000 357.000
32.40500 340.000
32.42000 341.000
32.43500 363.000
32.45000 350.000
32.46500 372.000
32.48000 359.000
32.49500 338.000
32.51000 344.000
32.52500 330.000
32.54000 337.000
32.55500 340.000
32.57000 350.000
32.58500 350.000
32.60000 353.000
32.61500 364.000
32.63000 352.000
32.64500 346.000
32.66000 352.000
32.67500 375.000
32.69000 352.000
32.70500 354.000
32.72000 365.000
32.73500 336.000
32.75000 326.000
32.76500 327.000
32.78000 320.000
32.79500 360.000
32.81000 331.000
32.82500 350.000
32.84000 362.000
32.85500 333.000
32.87000 317.000
32.88500 318.000
32.90000 338.000
32.91500 326.000
32.93000 315.000
32.94500 349.000
32.96000 346.000
32.97500 344.000
32.99000 347.000
33.00500 352.000
33.02000 343.000
33.03500 339.000
33.05000 329.000
33.06500 316.000
33.08000 310.000
33.09500 333.000
33.11000 335.000
33.12500 349.000
33.14000 317.000
33.15500 335.000
33.17000 336.000
33.18500 312.000
33.20000 323.000
33.21500 337.000
33.23000 334.000
33.24500 318.000
33.26000 314.000
33.27500 304.000
33.29000 302.000
33.30500 329.000
33.32000 327.000
33.33500 320.000
33.35000 329.000
33.36500 308.000
33.38000 308.000
33.39500 296.000
33.41000 326.000
33.42500 324.000
33.44000 308.000
33.45500 325.000
33.47000 321.000
33.48500 325.000
33.50000 317.000
33.51500 314.000
33.53000 312.000
33.54500 308.000
33.56000 332.000
33.57500 320.000
33.59000 314.000
33.60500 307.000
33.62000 314.000
33.63500 297.000
33.65000 338.000
33.66500 312.000
33.68000 305.000
33.69500 327.000
33.71000 314.000
33.72500 340.000
33.74000 298.000
33.75500 304.000
33.77000 312.000
33.78500 324.000
33.80000 288.000
33.81500 310.000
33.83000 339.000
33.84500 331.000
33.86000 355.000
33.87500 327.000
33.89000 345.000
33.90500 344.000
33.92000 323.000
33.93500 312.000
33.95000 281.000
33.96500 306.000
33.98000 296.000
33.99500 325.000
34.01000 321.000
34.02500 315.000
34.04000 314.000
34.05500 317.000
34.07000 314.000
34.08500 313.000
34.10000 311.000
34.11500 327.000
34.13000 318.000
34.14500 319.000
34.16000 329.000
34.17500 311.000
34.19000 308.000
34.20500 322.000
34.22000 324.000
34.23500 322.000
34.25000 325.000
34.26500 303.000
34.28000 315.000
34.29500 314.000
34.31000 307.000
34.32500 291.000
34.34000 299.000
34.35500 317.000
34.37000 285.000
34.38500 280.000
34.40000 304.000
34.41500 291.000
34.43000 322.000
34.44500 313.000
34.46000 310.000
34.47500 295.000
34.49000 301.000
34.50500 337.000
34.52000 330.000
34.53500 330.000
34.55000 299.000
34.56500 300.000
34.58000 295.000
34.59500 300.000
34.61000 275.000
34.62500 290.000
34.64000 303.000
34.65500 292.000
34.67000 302.000
34.68500 271.000
34.70000 280.000
34.71500 307.000
34.73000 278.000
34.74500 304.000
34.76000 310.000
34.77500 289.000
34.79000 311.000
34.80500 301.000
34.82000 287.000
34.83500 289.000
34.85000 282.000
34.86500 277.000
34.88000 288.000
34.89500 300.000
34.91000 281.000
34.92500 324.000
34.94000 295.000
34.95500 282.000
34.97000 278.000
34.98500 285.000
35.00000 309.000
35.01500 293.000
35.03000 282.000
35.04500 278.000
35.06000 281.000
35.07500 295.000
35.09000 274.000
35.10500 292.000
35.12000 305.000
35.13500 273.000
35.15000 284.000
35.16500 280.000
35.18000 295.000
35.19500 305.000
35.21000 299.000
35.22500 267.000
35.24000 290.000
35.25500 303.000
35.27000 258.000
35.28500 290.000
35.30000 263.000
35.31500 268.000
35.33000 272.000
35.34500 281.000
35.36000 283.000
35.37500 272.000
35.39000 286.000
35.40500 268.000
35.42000 289.000
35.43500 292.000
35.45000 255.000
35.46500 274.000
35.48000 263.000
35.49500 250.000
35.51000 275.000
35.52500 294.000
35.54000 284.000
35.55500 286.000
35.57000 256.000
35.58500 269.000
35.60000 281.000
35.61500 271.000
35.63000 268.000
35.64500 272.000
35.66000 267.000
35.67500 267.000
35.69000 277.000
35.70500 264.000
35.72000 256.000
35.73500 280.000
35.75000 249.000
35.76500 282.000
35.78000 262.000
35.79500 249.000
35.81000 280.000
35.82500 304.000
35.84000 284.000
35.85500 285.000
35.87000 262.000
35.88500 261.000
35.90000 274.000
35.91500 276.000
35.93000 292.000
35.94500 302.000
35.96000 301.000
35.97500 289.000
35.99000 289.000
36.00500 274.000
36.02000 266.000
36.03500 287.000
36.05000 247.000
36.06500 277.000
36.08000 265.000
36.09500 287.000
36.11000 276.000
36.12500 275.000
36.14000 241.000
36.15500 275.000
36.17000 266.000
36.18500 235.000
36.20000 258.000
36.21500 271.000
36.23000 271.000
36.24500 237.000
36.26000 241.000
36.27500 277.000
36.29000 287.000
36.30500 263.000
36.32000 253.000
36.33500 271.000
36.35000 262.000
36.36500 262.000
36.38000 243.000
36.39500 244.000
36.41000 251.000
36.42500 245.000
36.44000 263.000
36.45500 254.000
36.47000 259.000
36.48500 281.000
36.50000 271.000
36.51500 257.000
36.53000 244.000
36.54500 247.000
36.56000 264.000
36.57500 265.000
36.59000 252.000
36.60500 243.000
36.62000 245.000
36.63500 256.000
36.65000 255.000
36.66500 282.000
36.68000 235.000
36.69500 239.000
36.71000 252.000
36.72500 247.000
36.74000 263.000
36.75500 245.000
36.77000 251.000
36.78500 262.000
36.80000 250.000
36.81500 254.000
36.83000 260.000
36.84500 262.000
36.86000 269.000
36.87500 252.000
36.89000 285.000
36.90500 255.000
36.92000 239.000
36.93500 238.000
36.95000 254.000
36.96500 242.000
36.98000 246.000
36.99500 242.000
37.01000 265.000
37.02500 248.000
37.04000 266.000
37.05500 255.000
37.07000 234.000
37.08500 255.000
37.10000 263.000
37.11500 259.000
37.13000 272.000
37.14500 248.000
37.16000 248.000
37.17500 279.000
37.19000 256.000
37.20500 244.000
37.22000 253.000
37.23500 256.000
37.25000 257.000
37.26500 273.000
37.28000 275.000
37.29500 266.000
37.31000 245.000
37.32500 249.000
37.34000 260.000
37.35500 254.000
37.37000 228.000
37.38500 266.000
37.40000 274.000
37.41500 235.000
37.43000 239.000
37.44500 252.000
37.46000 250.000
37.47500 231.000
37.49000 232.000
37.50500 236.000
37.52000 243.000
37.53500 251.000
37.55000 248.000
37.56500 237.000
37.58000 253.000
37.59500 240.000
37.61000 242.000
37.62500 245.000
37.64000 247.000
37.65500 261.000
37.67000 268.000
37.68500 256.000
37.70000 235.000
37.71500 249.000
37.73000 240.000
37.74500 232.000
37.76000 236.000
37.77500 228.000
37.79000 235.000
37.80500 236.000
37.82000 238.000
37.83500 229.000
37.85000 253.000
37.86500 212.000
37.88000 223.000
37.89500 236.000
37.91000 231.000
37.92500 233.000
37.94000 251.000
37.95500 243.000
37.97000 252.000
37.98500 251.000
38.00000 257.000
38.01500 256.000
38.03000 234.000
38.04500 254.000
38.06000 233.000
38.07500 244.000
38.09000 251.000
38.10500 256.000
38.12000 236.000
38.13500 242.000
38.15000 244.000
38.16500 208.000
38.18000 233.000
38.19500 221.000
38.21000 221.000
38.22500 256.000
38.24000 245.000
38.25500 213.000
38.27000 217.000
38.28500 232.000
38.30000 239.000
38.31500 236.000
38.33000 217.000
38.34500 222.000
38.36000 220.000
38.37500 235.000
38.39000 229.000
38.40500 245.000
38.42000 250.000
38.43500 213.000
38.45000 245.000
38.46500 244.000
38.48000 219.000
38.49500 239.000
38.51000 246.000
38.52500 253.000
38.54000 217.000
38.55500 223.000
38.57000 203.000
38.58500 242.000
38.60000 237.000
38.61500 244.000
38.63000 248.000
38.64500 256.000
38.66000 252.000
38.67500 232.000
38.69000 211.000
38.70500 202.000
38.72000 212.000
38.73500 242.000
38.75000 236.000
38.76500 232.000
38.78000 233.000
38.79500 238.000
38.81000 229.000
38.82500 226.000
38.84000 235.000
38.85500 250.000
38.87000 233.000
38.88500 210.000
38.90000 213.000
38.91500 228.000
38.93000 252.000
38.94500 246.000
38.96000 254.000
38.97500 223.000
38.99000 224.000
39.00500 235.000
39.02000 238.000
39.03500 222.000
39.05000 213.000
39.06500 238.000
39.08000 234.000
39.09500 208.000
39.11000 222.000
39.12500 225.000
39.14000 237.000
39.15500 228.000
39.17000 217.000
39.18500 222.000
39.20000 220.000
39.21500 233.000
39.23000 246.000
39.24500 218.000
39.26000 210.000
39.27500 233.000
39.29000 241.000
39.30500 224.000
39.32000 216.000
39.33500 246.000
39.35000 247.000
39.36500 231.000
39.38000 207.000
39.39500 236.000
39.41000 257.000
39.42500 247.000
39.44000 243.000
39.45500 256.000
39.47000 236.000
39.48500 222.000
39.50000 250.000
39.51500 241.000
39.53000 232.000
39.54500 250.000
39.56000 241.000
39.57500 233.000
39.59000 227.000
39.60500 239.000
39.62000 227.000
39.63500 226.000
39.65000 212.000
39.66500 217.000
39.68000 235.000
39.69500 236.000
39.71000 227.000
39.72500 211.000
39.74000 193.000
39.75500 228.000
39.77000 210.000
39.78500 230.000
39.80000 223.000
39.81500 227.000
39.83000 224.000
39.84500 222.000
39.86000 233.000
39.87500 228.000
39.89000 227.000
39.90500 217.000
39.92000 229.000
39.93500 230.000
39.95000 223.000
39.96500 196.000
39.98000 223.000
39.99500 241.000
40.01000 238.000
40.02500 201.000
40.04000 221.000
40.05500 221.000
40.07000 217.000
40.08500 215.000
40.10000 241.000
40.11500 211.000
40.13000 190.000
40.14500 202.000
40.16000 229.000
40.17500 237.000
40.19000 217.000
40.20500 237.000
40.22000 223.000
40.23500 235.000
40.25000 233.000
40.26500 232.000
40.28000 219.000
40.29500 219.000
40.31000 221.000
40.32500 219.000
40.34000 221.000
40.35500 243.000
40.37000 233.000
40.38500 221.000
40.40000 235.000
40.41500 211.000
40.43000 213.000
40.44500 225.000
40.46000 218.000
40.47500 225.000
40.49000 228.000
40.50500 219.000
40.52000 223.000
40.53500 223.000
40.55000 226.000
40.56500 192.000
40.58000 205.000
40.59500 211.000
40.61000 223.000
40.62500 220.000
40.64000 201.000
40.65500 211.000
40.67000 234.000
40.68500 226.000
40.70000 236.000
40.71500 209.000
40.73000 227.000
40.74500 223.000
40.76000 219.000
40.77500 219.000
40.79000 241.000
40.80500 238.000
40.82000 232.000
40.83500 243.000
40.85000 220.000
40.86500 200.000
40.88000 221.000
40.89500 218.000
40.91000 216.000
40.92500 228.000
40.94000 224.000
40.95500 235.000
40.97000 230.000
40.98500 219.000
41.00000 215.000
41.01500 217.000
41.03000 239.000
41.04500 234.000
41.06000 228.000
41.07500 197.000
41.09000 243.000
41.10500 212.000
41.12000 207.000
41.13500 222.000
41.15000 240.000
41.16500 210.000
41.18000 224.000
41.19500 213.000
41.21000 216.000
41.22500 241.000
41.24000 224.000
41.25500 224.000
41.27000 209.000
41.28500 207.000
41.30000 201.000
41.31500 217.000
41.33000 222.000
41.34500 225.000
41.36000 234.000
41.37500 226.000
41.39000 229.000
41.40500 225.000
41.42000 225.000
41.43500 213.000
41.45000 212.000
41.46500 206.000
41.48000 199.000
41.49500 230.000
41.51000 236.000
41.52500 196.000
41.54000 214.000
41.55500 207.000
41.57000 210.000
41.58500 216.000
41.60000 216.000
41.61500 210.000
41.63000 213.000
41.64500 203.000
41.66000 203.000
41.67500 196.000
41.69000 208.000
41.70500 207.000
41.72000 205.000
41.73500 212.000
41.75000 229.000
41.76500 227.000
41.78000 218.000
41.79500 220.000
41.81000 211.000
41.82500 232.000
41.84000 243.000
41.85500 189.000
41.87000 193.000
41.88500 208.000
41.90000 236.000
41.91500 220.000
41.93000 217.000
41.94500 210.000
41.96000 209.000
41.97500 200.000
41.99000 207.000
42.00500 207.000
42.02000 204.000
42.03500 215.000
42.05000 227.000
42.06500 251.000
42.08000 227.000
42.09500 218.000
42.11000 221.000
42.12500 205.000
42.14000 191.000
42.15500 203.000
42.17000 207.000
42.18500 211.000
42.20000 211.000
42.21500 207.000
42.23000 215.000
42.24500 209.000
42.26000 213.000
42.27500 229.000
42.29000 214.000
42.30500 245.000
42.32000 227.000
42.33500 235.000
42.35000 215.000
42.36500 217.000
42.38000 218.000
42.39500 214.000
42.41000 217.000
42.42500 232.000
42.44000 214.000
42.45500 204.000
42.47000 208.000
42.48500 213.000
42.50000 199.000
42.51500 195.000
42.53000 218.000
42.54500 236.000
42.56000 201.000
42.57500 207.000
42.59000 220.000
42.60500 210.000
42.62000 212.000
42.63500 214.000
42.65000 212.000
42.66500 209.000
42.68000 226.000
42.69500 216.000
42.71000 206.000
42.72500 215.000
42.74000 213.000
42.75500 217.000
42.77000 201.000
42.78500 205.000
42.80000 194.000
42.81500 211.000
42.83000 201.000
42.84500 207.000
42.86000 215.000
42.87500 232.000
42.89000 236.000
42.90500 204.000
42.92000 211.000
42.93500 221.000
42.95000 213.000
42.96500 216.000
42.98000 217.000
42.99500 194.000
43.01000 205.000
43.02500 208.000
43.04000 169.000
43.05500 208.000
43.07000 232.000
43.08500 241.000
43.10000 214.000
43.11500 213.000
43.13000 221.000
43.14500 226.000
43.16000 232.000
43.17500 219.000
43.19000 228.000
43.20500 219.000
43.22000 221.000
43.23500 221.000
43.25000 193.000
43.26500 198.000
43.28000 193.000
43.29500 222.000
43.31000 223.000
43.32500 220.000
43.34000 233.000
43.35500 207.000
43.37000 210.000
43.38500 199.000
43.40000 222.000
43.41500 234.000
43.43000 225.000
43.44500 211.000
43.46000 187.000
43.47500 194.000
43.49000 218.000
43.50500 212.000
43.52000 232.000
43.53500 214.000
43.55000 203.000
43.56500 210.000
43.58000 213.000
43.59500 218.000
43.61000 209.000
43.62500 224.000
43.64000 218.000
43.65500 216.000
43.67000 194.000
43.68500 205.000
43.70000 210.000
43.71500 220.000
43.73000 195.000
43.74500 178.000
43.76000 220.000
43.77500 200.000
43.79000 187.000
43.80500 204.000
43.82000 208.000
43.83500 222.000
43.85000 223.000
43.86500 214.000
43.88000 214.000
43.89500 192.000
43.91000 217.000
43.92500 216.000
43.94000 189.000
43.95500 193.000
43.97000 209.000
43.98500 223.000
44.00000 209.000
44.01500 189.000
44.03000 205.000
44.04500 194.000
44.06000 234.000
44.07500 210.000
44.09000 223.000
44.10500 221.000
44.12000 198.000
44.13500 190.000
44.15000 211.000
44.16500 190.000
44.18000 203.000
44.19500 202.000
44.21000 199.000
44.22500 196.000
44.24000 212.000
44.25500 212.000
44.27000 217.000
44.28500 216.000
44.30000 231.000
44.31500 201.000
44.33000 216.000
44.34500 233.000
44.36000 218.000
44.37500 202.000
44.39000 222.000
44.40500 199.000
44.42000 203.000
44.43500 200.000
44.45000 202.000
44.46500 200.000
44.48000 197.000
44.49500 222.000
44.51000 220.000
44.52500 210.000
44.54000 223.000
44.55500 198.000
44.57000 209.000
44.58500 199.000
44.60000 225.000
44.61500 203.000
44.63000 191.000
44.64500 195.000
44.66000 223.000
44.67500 206.000
44.69000 194.000
44.70500 190.000
44.72000 198.000
44.73500 184.000
44.75000 204.000
44.76500 217.000
44.78000 215.000
44.79500 193.000
44.81000 193.000
44.82500 195.000
44.84000 188.000
44.85500 193.000
44.87000 204.000
44.88500 199.000
44.90000 175.000
44.91500 190.000
44.93000 213.000
44.94500 203.000
44.96000 214.000
44.97500 206.000
44.99000 223.000
45.00500 213.000
45.02000 198.000
45.03500 191.000
45.05000 203.000
45.06500 199.000
45.08000 216.000
45.09500 212.000
45.11000 210.000
45.12500 194.000
45.14000 196.000
45.15500 221.000
45.17000 216.000
45.18500 242.000
45.20000 226.000
45.21500 184.000
45.23000 186.000
45.24500 196.000
45.26000 205.000
45.27500 195.000
45.29000 194.000
45.30500 186.000
45.32000 187.000
45.33500 208.000
45.35000 219.000
45.36500 202.000
45.38000 207.000
45.39500 209.000
45.41000 185.000
45.42500 191.000
45.44000 207.000
45.45500 202.000
45.47000 205.000
45.48500 185.000
45.50000 212.000
45.51500 212.000
45.53000 203.000
45.54500 210.000
45.56000 180.000
45.57500 195.000
45.59000 200.000
45.60500 205.000
45.62000 213.000
45.63500 216.000
45.65000 208.000
45.66500 194.000
45.68000 209.000
45.69500 216.000
45.71000 204.000
45.72500 193.000
45.74000 193.000
45.75500 183.000
45.77000 169.000
45.78500 193.000
45.80000 195.000
45.81500 186.000
45.83000 186.000
45.84500 190.000
45.86000 208.000
45.87500 192.000
45.89000 215.000
45.90500 215.000
45.92000 190.000
45.93500 191.000
45.95000 212.000
45.96500 177.000
45.98000 182.000
45.99500 191.000
46.01000 216.000
46.02500 190.000
46.04000 193.000
46.05500 206.000
46.07000 174.000
46.08500 197.000
46.10000 219.000
46.11500 192.000
46.13000 203.000
46.14500 189.000
46.16000 191.000
46.17500 187.000
46.19000 193.000
46.20500 180.000
46.22000 192.000
46.23500 201.000
46.25000 179.000
46.26500 193.000
46.28000 202.000
46.29500 208.000
46.31000 193.000
46.32500 197.000
46.34000 199.000
46.35500 196.000
46.37000 203.000
46.38500 200.000
46.40000 199.000
46.41500 202.000
46.43000 178.000
46.44500 187.000
46.46000 187.000
46.47500 187.000
46.49000 195.000
46.50500 190.000
46.52000 173.000
46.53500 197.000
46.55000 210.000
46.56500 203.000
46.58000 191.000
46.59500 180.000
46.61000 194.000
46.62500 181.000
46.64000 193.000
46.65500 206.000
46.67000 204.000
46.68500 199.000
46.70000 185.000
46.71500 211.000
46.73000 209.000
46.74500 177.000
46.76000 178.000
46.77500 187.000
46.79000 183.000
46.80500 181.000
46.82000 186.000
46.83500 200.000
46.85000 183.000
46.86500 175.000
46.88000 181.000
46.89500 192.000
46.91000 187.000
46.92500 201.000
46.94000 190.000
46.95500 199.000
46.97000 216.000
46.98500 210.000
47.00000 187.000
47.01500 192.000
47.03000 172.000
47.04500 199.000
47.06000 201.000
47.07500 187.000
47.09000 205.000
47.10500 201.000
47.12000 194.000
47.13500 186.000
47.15000 213.000
47.16500 197.000
47.18000 203.000
47.19500 191.000
47.21000 201.000
47.22500 211.000
47.24000 184.000
47.25500 190.000
47.27000 178.000
47.28500 176.000
47.30000 185.000
47.31500 170.000
47.33000 176.000
47.34500 186.000
47.36000 172.000
47.37500 189.000
47.39000 191.000
47.40500 186.000
47.42000 185.000
47.43500 208.000
47.45000 204.000
47.46500 193.000
47.48000 200.000
47.49500 216.000
47.51000 198.000
47.52500 198.000
47.54000 207.000
47.55500 187.000
47.57000 186.000
47.58500 175.000
47.60000 175.000
47.61500 179.000
47.63000 193.000
47.64500 178.000
47.66000 187.000
47.67500 171.000
47.69000 168.000
47.70500 185.000
47.72000 195.000
47.73500 194.000
47.75000 175.000
47.76500 174.000
47.78000 179.000
47.79500 183.000
47.81000 160.000
47.82500 171.000
47.84000 187.000
47.85500 193.000
47.87000 183.000
47.88500 185.000
47.90000 200.000
47.91500 194.000
47.93000 177.000
47.94500 186.000
47.96000 182.000
47.97500 174.000
47.99000 174.000
48.00500 171.000
48.02000 163.000
48.03500 195.000
48.05000 194.000
48.06500 197.000
48.08000 194.000
48.09500 185.000
48.11000 186.000
48.12500 188.000
48.14000 175.000
48.15500 181.000
48.17000 208.000
48.18500 195.000
48.20000 176.000
48.21500 167.000
48.23000 192.000
48.24500 162.000
48.26000 168.000
48.27500 204.000
48.29000 185.000
48.30500 187.000
48.32000 184.000
48.33500 182.000
48.35000 187.000
48.36500 188.000
48.38000 179.000
48.39500 172.000
48.41000 191.000
48.42500 187.000
48.44000 174.000
48.45500 193.000
48.47000 186.000
48.48500 173.000
48.50000 192.000
48.51500 201.000
48.53000 217.000
48.54500 203.000
48.56000 180.000
48.57500 182.000
48.59000 193.000
48.60500 187.000
48.62000 189.000
48.63500 170.000
48.65000 167.000
48.66500 182.000
48.68000 176.000
48.69500 197.000
48.71000 183.000
48.72500 193.000
48.74000 184.000
48.75500 178.000
48.77000 194.000
48.78500 191.000
48.80000 192.000
48.81500 185.000
48.83000 181.000
48.84500 177.000
48.86000 179.000
48.87500 179.000
48.89000 175.000
48.90500 148.000
48.92000 164.000
48.93500 181.000
48.95000 176.000
48.96500 180.000
48.98000 184.000
48.99500 182.000
49.01000 159.000
49.02500 165.000
49.04000 173.000
49.05500 191.000
49.07000 179.000
49.08500 166.000
49.10000 173.000
49.11500 180.000
49.13000 158.000
49.14500 163.000
49.16000 191.000
49.17500 161.000
49.19000 188.000
49.20500 174.000
49.22000 168.000
49.23500 172.000
49.25000 158.000
49.26500 169.000
49.28000 181.000
49.29500 174.000
49.31000 157.000
49.32500 178.000
49.34000 170.000
49.35500 182.000
49.37000 193.000
49.38500 173.000
49.40000 168.000
49.41500 166.000
49.43000 172.000
49.44500 176.000
49.46000 154.000
49.47500 170.000
49.49000 172.000
49.50500 177.000
49.52000 172.000
49.53500 177.000
49.55000 168.000
49.56500 175.000
49.58000 156.000
49.59500 168.000
49.61000 158.000
49.62500 154.000
49.64000 152.000
49.65500 156.000
49.67000 169.000
49.68500 187.000
49.70000 194.000
49.71500 162.000
49.73000 155.000
49.74500 175.000
49.76000 163.000
49.77500 169.000
49.79000 157.000
49.80500 169.000
49.82000 189.000
49.83500 171.000
49.85000 170.000
49.86500 162.000
49.88000 179.000
49.89500 184.000
49.91000 169.000
49.92500 156.000
49.94000 169.000
49.95500 163.000
49.97000 175.000
49.98500 161.000
50.00000 169.000
50.01500 182.000
50.03000 191.000
50.04500 182.000
50.06000 178.000
50.07500 159.000
50.09000 160.000
50.10500 166.000
50.12000 166.000
50.13500 164.000
50.15000 163.000
50.16500 171.000
50.18000 156.000
50.19500 155.000
50.21000 147.000
50.22500 163.000
50.24000 155.000
50.25500 172.000
50.27000 184.000
50.28500 186.000
50.30000 171.000
50.31500 158.000
50.33000 151.000
50.34500 163.000
50.36000 174.000
50.37500 151.000
50.39000 157.000
50.40500 183.000
50.42000 182.000
50.43500 179.000
50.45000 175.000
50.46500 176.000
50.48000 159.000
50.49500 147.000
50.51000 165.000
50.52500 172.000
50.54000 160.000
50.55500 157.000
50.57000 166.000
50.58500 186.000
50.60000 178.000
50.61500 165.000
50.63000 152.000
50.64500 155.000
50.66000 163.000
50.67500 169.000
50.69000 163.000
50.70500 161.000
50.72000 163.000
50.73500 168.000
50.75000 163.000
50.76500 167.000
50.78000 158.000
50.79500 173.000
50.81000 156.000
50.82500 153.000
50.84000 173.000
50.85500 169.000
50.87000 169.000
50.88500 177.000
50.90000 178.000
50.91500 180.000
50.93000 171.000
50.94500 158.000
50.96000 185.000
50.97500 176.000
50.99000 169.000
51.00500 156.000
51.02000 156.000
51.03500 151.000
51.05000 157.000
51.06500 152.000
51.08000 155.000
51.09500 163.000
51.11000 159.000
51.12500 174.000
51.14000 171.000
51.15500 176.000
51.17000 175.000
51.18500 176.000
51.20000 166.000
51.21500 157.000
51.23000 148.000
51.24500 177.000
51.26000 174.000
51.27500 168.000
51.29000 166.000
51.30500 177.000
51.32000 170.000
51.33500 180.000
51.35000 166.000
51.36500 158.000
51.38000 164.000
51.39500 170.000
51.41000 168.000
51.42500 170.000
51.44000 176.000
51.45500 167.000
51.47000 170.000
51.48500 176.000
51.50000 154.000
51.51500 163.000
51.53000 171.000
51.54500 168.000
51.56000 167.000
51.57500 177.000
51.59000 168.000
51.60500 165.000
51.62000 175.000
51.63500 174.000
51.65000 175.000
51.66500 159.000
51.68000 159.000
51.69500 167.000
51.71000 175.000
51.72500 150.000
51.74000 167.000
51.75500 163.000
51.77000 147.000
51.78500 163.000
51.80000 156.000
51.81500 152.000
51.83000 160.000
51.84500 167.000
51.86000 160.000
51.87500 172.000
51.89000 170.000
51.90500 180.000
51.92000 163.000
51.93500 179.000
51.95000 180.000
51.96500 154.000
51.98000 154.000
51.99500 158.000
52.01000 181.000
52.02500 185.000
52.04000 165.000
52.05500 172.000
52.07000 167.000
52.08500 178.000
52.10000 168.000
52.11500 145.000
52.13000 159.000
52.14500 157.000
52.16000 169.000
52.17500 157.000
52.19000 166.000
52.20500 179.000
52.22000 170.000
52.23500 182.000
52.25000 160.000
52.26500 178.000
52.28000 159.000
52.29500 143.000
52.31000 155.000
52.32500 177.000
52.34000 155.000
52.35500 152.000
52.37000 161.000
52.38500 152.000
52.40000 165.000
52.41500 159.000
52.43000 169.000
52.44500 154.000
52.46000 163.000
52.47500 188.000
52.49000 173.000
52.50500 156.000
52.52000 155.000
52.53500 159.000
52.55000 164.000
52.56500 154.000
52.58000 148.000
52.59500 179.000
52.61000 163.000
52.62500 163.000
52.64000 170.000
52.65500 167.000
52.67000 165.000
52.68500 162.000
52.70000 166.000
52.71500 156.000
52.73000 163.000
52.74500 151.000
52.76000 162.000
52.77500 173.000
52.79000 166.000
52.80500 161.000
52.82000 170.000
52.83500 156.000
52.85000 150.000
52.86500 135.000
52.88000 168.000
52.89500 167.000
52.91000 173.000
52.92500 180.000
52.94000 168.000
52.95500 158.000
52.97000 158.000
52.98500 138.000
53.00000 155.000
53.01500 162.000
53.03000 161.000
53.04500 150.000
53.06000 156.000
53.07500 141.000
53.09000 159.000
53.10500 133.000
53.12000 145.000
53.13500 159.000
53.15000 174.000
53.16500 192.000
53.18000 189.000
53.19500 171.000
53.21000 161.000
53.22500 154.000
53.24000 147.000
53.25500 167.000
53.27000 169.000
53.28500 166.000
53.30000 161.000
53.31500 168.000
53.33000 161.000
53.34500 189.000
53.36000 169.000
53.37500 170.000
53.39000 181.000
53.40500 184.000
53.42000 145.000
53.43500 141.000
53.45000 158.000
53.46500 164.000
53.48000 168.000
53.49500 167.000
53.51000 169.000
53.52500 149.000
53.54000 143.000
53.55500 154.000
53.57000 159.000
53.58500 177.000
53.60000 163.000
53.61500 156.000
53.63000 158.000
53.64500 167.000
53.66000 177.000
53.67500 167.000
53.69000 189.000
53.70500 163.000
53.72000 151.000
53.73500 154.000
53.75000 176.000
53.76500 182.000
53.78000 165.000
53.79500 158.000
53.81000 150.000
53.82500 161.000
53.84000 153.000
53.85500 161.000
53.87000 147.000
53.88500 146.000
53.90000 151.000
53.91500 156.000
53.93000 155.000
53.94500 156.000
53.96000 163.000
53.97500 159.000
53.99000 130.000
54.00500 146.000
54.02000 173.000
54.03500 165.000
54.05000 156.000
54.06500 141.000
54.08000 151.000
54.09500 153.000
54.11000 157.000
54.12500 171.000
54.14000 140.000
54.15500 157.000
54.17000 168.000
54.18500 156.000
54.20000 156.000
54.21500 169.000
54.23000 139.000
54.24500 154.000
54.26000 163.000
54.27500 157.000
54.29000 160.000
54.30500 166.000
54.32000 156.000
54.33500 158.000
54.35000 157.000
54.36500 179.000
54.38000 171.000
54.39500 168.000
54.41000 163.000
54.42500 157.000
54.44000 165.000
54.45500 169.000
54.47000 164.000
54.48500 161.000
54.50000 144.000
54.51500 152.000
54.53000 148.000
54.54500 139.000
54.56000 158.000
54.57500 148.000
54.59000 159.000
54.60500 168.000
54.62000 162.000
54.63500 153.000
54.65000 164.000
54.66500 161.000
54.68000 137.000
54.69500 134.000
54.71000 153.000
54.72500 155.000
54.74000 159.000
54.75500 155.000
54.77000 179.000
54.78500 173.000
54.80000 166.000
54.81500 167.000
54.83000 149.000
54.84500 154.000
54.86000 171.000
54.87500 137.000
54.89000 151.000
54.90500 153.000
54.92000 170.000
54.93500 169.000
54.95000 156.000
54.96500 163.000
54.98000 170.000
54.99500 162.000
55.01000 154.000
55.02500 156.000
55.04000 154.000
55.05500 148.000
55.07000 166.000
55.08500 157.000
55.10000 168.000
55.11500 157.000
55.13000 156.000
55.14500 165.000
55.16000 156.000
55.17500 137.000
55.19000 160.000
55.20500 174.000
55.22000 152.000
55.23500 190.000
55.25000 158.000
55.26500 177.000
55.28000 145.000
55.29500 148.000
55.31000 160.000
55.32500 172.000
55.34000 170.000
55.35500 167.000
55.37000 168.000
55.38500 156.000
55.40000 166.000
55.41500 154.000
55.43000 157.000
55.44500 158.000
55.46000 160.000
55.47500 156.000
55.49000 153.000
55.50500 149.000
55.52000 172.000
55.53500 181.000
55.55000 170.000
55.56500 163.000
55.58000 151.000
55.59500 154.000
55.61000 158.000
55.62500 173.000
55.64000 164.000
55.65500 161.000
55.67000 143.000
55.68500 164.000
55.70000 156.000
55.71500 171.000
55.73000 151.000
55.74500 152.000
55.76000 159.000
55.77500 169.000
55.79000 160.000
55.80500 153.000
55.82000 164.000
55.83500 174.000
55.85000 149.000
55.86500 154.000
55.88000 158.000
55.89500 150.000
55.91000 161.000
55.92500 161.000
55.94000 160.000
55.95500 150.000
55.97000 164.000
55.98500 160.000
56.00000 169.000
56.01500 170.000
56.03000 170.000
56.04500 157.000
56.06000 164.000
56.07500 158.000
56.09000 146.000
56.10500 144.000
56.12000 154.000
56.13500 154.000
56.15000 161.000
56.16500 176.000
56.18000 158.000
56.19500 155.000
56.21000 164.000
56.22500 148.000
56.24000 144.000
56.25500 137.000
56.27000 150.000
56.28500 155.000
56.30000 151.000
56.31500 156.000
56.33000 165.000
56.34500 166.000
56.36000 155.000
56.37500 153.000
56.39000 158.000
56.40500 152.000
56.42000 143.000
56.43500 158.000
56.45000 157.000
56.46500 143.000
56.48000 145.000
56.49500 146.000
56.51000 158.000
56.52500 160.000
56.54000 153.000
56.55500 141.000
56.57000 140.000
56.58500 142.000
56.60000 155.000
56.61500 181.000
56.63000 168.000
56.64500 187.000
56.66000 178.000
56.67500 162.000
56.69000 176.000
56.70500 152.000
56.72000 154.000
56.73500 161.000
56.75000 170.000
56.76500 163.000
56.78000 161.000
56.79500 158.000
56.81000 172.000
56.82500 144.000
56.84000 166.000
56.85500 173.000
56.87000 150.000
56.88500 155.000
56.90000 144.000
56.91500 150.000
56.93000 164.000
56.94500 158.000
56.96000 167.000
56.97500 171.000
56.99000 159.000
57.00500 142.000
57.02000 158.000
57.03500 157.000
57.05000 155.000
57.06500 145.000
57.08000 149.000
57.09500 158.000
57.11000 143.000
57.12500 157.000
57.14000 172.000
57.15500 159.000
57.17000 180.000
57.18500 157.000
57.20000 151.000
57.21500 158.000
57.23000 155.000
57.24500 157.000
57.26000 153.000
57.27500 168.000
57.29000 157.000
57.30500 159.000
57.32000 158.000
57.33500 161.000
57.35000 158.000
57.36500 151.000
57.38000 171.000
57.39500 158.000
57.41000 147.000
57.42500 159.000
57.44000 163.000
57.45500 167.000
57.47000 155.000
57.48500 167.000
57.50000 158.000
57.51500 170.000
57.53000 157.000
57.54500 144.000
57.56000 166.000
57.57500 164.000
57.59000 156.000
57.60500 162.000
57.62000 147.000
57.63500 155.000
57.65000 158.000
57.66500 150.000
57.68000 172.000
57.69500 173.000
57.71000 152.000
57.72500 145.000
57.74000 146.000
57.75500 135.000
57.77000 134.000
57.78500 157.000
57.80000 152.000
57.81500 165.000
57.83000 156.000
57.84500 160.000
57.86000 156.000
57.87500 140.000
57.89000 150.000
57.90500 148.000
57.92000 140.000
57.93500 167.000
57.95000 151.000
57.96500 171.000
57.98000 145.000
57.99500 141.000
58.01000 177.000
58.02500 172.000
58.04000 152.000
58.05500 155.000
58.07000 159.000
58.08500 157.000
58.10000 178.000
58.11500 145.000
58.13000 165.000
58.14500 160.000
58.16000 172.000
58.17500 163.000
58.19000 163.000
58.20500 146.000
58.22000 154.000
58.23500 143.000
58.25000 143.000
58.26500 136.000
58.28000 162.000
58.29500 148.000
58.31000 162.000
58.32500 171.000
58.34000 157.000
58.35500 153.000
58.37000 165.000
58.38500 167.000
58.40000 157.000
58.41500 140.000
58.43000 143.000
58.44500 147.000
58.46000 149.000
58.47500 155.000
58.49000 170.000
58.50500 165.000
58.52000 154.000
58.53500 149.000
58.55000 153.000
58.56500 148.000
58.58000 141.000
58.59500 150.000
58.61000 160.000
58.62500 145.000
58.64000 157.000
58.65500 149.000
58.67000 155.000
58.68500 153.000
58.70000 152.000
58.71500 138.000
58.73000 132.000
58.74500 130.000
58.76000 139.000
58.77500 141.000
58.79000 134.000
58.80500 148.000
58.82000 142.000
58.83500 137.000
58.85000 142.000
58.86500 144.000
58.88000 129.000
58.89500 150.000
58.91000 148.000
58.92500 142.000
58.94000 134.000
58.95500 148.000
58.97000 150.000
58.98500 157.000
59.00000 157.000
59.01500 136.000
59.03000 157.000
59.04500 156.000
59.06000 161.000
59.07500 142.000
59.09000 165.000
59.10500 160.000
59.12000 151.000
59.13500 154.000
59.15000 149.000
59.16500 137.000
59.18000 143.000
59.19500 142.000
59.21000 154.000
59.22500 145.000
59.24000 142.000
59.25500 141.000
59.27000 126.000
59.28500 151.000
59.30000 154.000
59.31500 147.000
59.33000 138.000
59.34500 143.000
59.36000 149.000
59.37500 150.000
59.39000 142.000
59.40500 142.000
59.42000 135.000
59.43500 153.000
59.45000 134.000
59.46500 137.000
59.48000 131.000
59.49500 129.000
59.51000 131.000
59.52500 138.000
59.54000 160.000
59.55500 150.000
59.57000 154.000
59.58500 144.000
59.60000 149.000
59.61500 135.000
59.63000 142.000
59.64500 145.000
59.66000 143.000
59.67500 145.000
59.69000 163.000
59.70500 148.000
59.72000 154.000
59.73500 169.000
59.75000 148.000
59.76500 140.000
59.78000 143.000
59.79500 140.000
59.81000 143.000
59.82500 148.000
59.84000 131.000
59.85500 134.000
59.87000 148.000
59.88500 150.000
59.90000 145.000
59.91500 166.000
59.93000 159.000
59.94500 140.000
59.96000 132.000
59.97500 144.000
59.99000 159.000
60.00500 145.000
60.02000 156.000
60.03500 168.000
60.05000 155.000
60.06500 151.000
60.08000 160.000
60.09500 138.000
60.11000 145.000
60.12500 151.000
60.14000 134.000
60.15500 143.000
60.17000 151.000
60.18500 143.000
60.20000 139.000
60.21500 146.000
60.23000 138.000
60.24500 130.000
60.26000 145.000
60.27500 146.000
60.29000 139.000
60.30500 126.000
60.32000 131.000
60.33500 151.000
60.35000 140.000
60.36500 138.000
60.38000 142.000
60.39500 146.000
60.41000 153.000
60.42500 140.000
60.44000 144.000
60.45500 138.000
60.47000 136.000
60.48500 147.000
60.50000 144.000
60.51500 134.000
60.53000 146.000
60.54500 134.000
60.56000 132.000
60.57500 162.000
60.59000 165.000
60.60500 142.000
60.62000 148.000
60.63500 149.000
60.65000 152.000
60.66500 172.000
60.68000 165.000
60.69500 152.000
60.71000 150.000
60.72500 160.000
60.74000 146.000
60.75500 130.000
60.77000 130.000
60.78500 156.000
60.80000 151.000
60.81500 139.000
60.83000 141.000
60.84500 146.000
60.86000 120.000
60.87500 121.000
60.89000 126.000
60.90500 142.000
60.92000 147.000
60.93500 149.000
60.95000 141.000
60.96500 143.000
60.98000 137.000
60.99500 128.000
61.01000 131.000
61.02500 139.000
61.04000 159.000
61.05500 138.000
61.07000 145.000
61.08500 136.000
61.10000 139.000
61.11500 143.000
61.13000 144.000
61.14500 138.000
61.16000 135.000
61.17500 159.000
61.19000 111.000
61.20500 119.000
61.22000 119.000
61.23500 125.000
61.25000 142.000
61.26500 120.000
61.28000 130.000
61.29500 148.000
61.31000 142.000
61.32500 148.000
61.34000 155.000
61.35500 157.000
61.37000 135.000
61.38500 136.000
61.40000 133.000
61.41500 127.000
61.43000 134.000
61.44500 127.000
61.46000 137.000
61.47500 137.000
61.49000 127.000
61.50500 121.000
61.52000 120.000
61.53500 130.000
61.55000 122.000
61.56500 140.000
61.58000 151.000
61.59500 146.000
61.61000 131.000
61.62500 126.000
61.64000 124.000
61.65500 122.000
61.67000 138.000
61.68500 134.000
61.70000 144.000
61.71500 152.000
61.73000 137.000
61.74500 130.000
61.76000 140.000
61.77500 139.000
61.79000 149.000
61.80500 145.000
61.82000 151.000
61.83500 129.000
61.85000 138.000
61.86500 128.000
61.88000 140.000
61.89500 127.000
61.91000 140.000
61.92500 139.000
61.94000 133.000
61.95500 131.000
61.97000 139.000
61.98500 119.000
