2.00000 0.000
2.01500 1.000
2.03000 3.000
2.04500 4.000
2.06000 2.000
2.07500 0.000
2.09000 2.000
2.10500 2.000
2.12000 1.000
2.13500 5.000
2.15000 4.000
2.16500 0.000
2.18000 2.000
2.19500 2.000
2.21000 3.000
2.22500 3.000
2.24000 1.000
2.25500 1.000
2.27000 3.000
2.28500 3.000
2.30000 3.000
2.31500 3.000
2.33000 2.000
2.34500 5.000
2.36000 4.000
2.37500 1.000
2.39000 4.000
2.40500 3.000
2.42000 3.000
2.43500 3.000
2.45000 4.000
2.46500 3.000
2.48000 2.000
2.49500 4.000
2.51000 1.000
2.52500 2.000
2.54000 2.000
2.55500 1.000
2.57000 3.000
2.58500 2.000
2.60000 3.000
2.61500 1.000
2.63000 0.000
2.64500 4.000
2.66000 3.000
2.67500 4.000
2.69000 3.000
2.70500 4.000
2.72000 4.000
2.73500 2.000
2.75000 3.000
2.76500 3.000
2.78000 3.000
2.79500 1.000
2.81000 1.000
2.82500 2.000
2.84000 4.000
2.85500 3.000
2.87000 4.000
2.88500 4.000
2.90000 2.000
2.91500 4.000
2.93000 3.000
2.94500 1.000
2.96000 3.000
2.97500 2.000
2.99000 3.000
3.00500 2.000
3.02000 2.000
3.03500 2.000
3.05000 1.000
3.06500 1.000
3.08000 1.000
3.09500 1.000
3.11000 3.000
3.12500 6.000
3.14000 5.000
3.15500 7.000
3.17000 15.000
3.18500 19.000
3.20000 26.000
3.21500 42.000
3.23000 49.000
3.24500 67.000
3.26000 97.000
3.27500 121.000
3.29000 135.000
3.30500 144.000
3.32000 163.000
3.33500 155.000
3.35000 155.000
3.36500 162.000
3.38000 173.000
3.39500 160.000
3.41000 155.000
3.42500 159.000
3.44000 164.000
3.45500 176.000
3.47000 171.000
3.48500 175.000
3.50000 176.000
3.51500 168.000
3.53000 163.000
3.54500 166.000
3.56000 162.000
3.57500 167.000
3.59000 165.000
3.60500 171.000
3.62000 176.000
3.63500 176.000
3.65000 194.000
3.66500 172.000
3.68000 169.000
3.69500 176.000
3.71000 177.000
3.72500 177.000
3.74000 183.000
3.75500 191.000
3.77000 186.000
3.78500 178.000
3.80000 185.000
3.81500 179.000
3.83000 185.000
3.84500 184.000
3.86000 190.000
3.87500 167.000
3.89000 166.000
3.90500 187.000
3.92000 163.000
3.93500 174.000
3.95000 171.000
3.96500 166.000
3.98000 175.000
3.99500 187.000
4.01000 187.000
4.02500 197.000
4.04000 184.000
4.05500 186.000
4.07000 186.000
4.08500 181.000
4.10000 205.000
4.11500 195.000
4.13000 184.000
4.14500 184.000
4.16000 177.000
4.17500 197.000
4.19000 199.000
4.20500 184.000
4.22000 185.000
4.23500 182.000
4.25000 174.000
4.26500 188.000
4.28000 171.000
4.29500 187.000
4.31000 196.000
4.32500 204.000
4.34000 179.000
4.35500 174.000
4.37000 204.000
4.38500 195.000
4.40000 194.000
4.41500 192.000
4.43000 214.000
4.44500 177.000
4.46000 196.000
4.47500 187.000
4.49000 202.000
4.50500 205.000
4.52000 211.000
4.53500 203.000
4.55000 195.000
4.56500 208.000
4.58000 206.000
4.59500 204.000
4.61000 195.000
4.62500 193.000
4.64000 217.000
4.65500 199.000
4.67000 204.000
4.68500 191.000
4.70000 224.000
4.71500 211.000
4.73000 178.000
4.74500 215.000
4.76000 199.000
4.77500 198.000
4.79000 216.000
4.80500 199.000
4.82000 193.000
4.83500 212.000
4.85000 195.000
4.86500 193.000
4.88000 214.000
4.89500 199.000
4.91000 201.000
4.92500 213.000
4.94000 226.000
4.95500 206.000
4.97000 203.000
4.98500 207.000
5.00000 218.000
5.01500 211.000
5.03000 211.000
5.04500 223.000
5.06000 213.000
5.07500 221.000
5.09000 211.000
5.10500 200.000
5.12000 205.000
5.13500 222.000
5.15000 236.000
5.16500 220.000
5.18000 206.000
5.19500 197.000
5.21000 200.000
5.22500 211.000
5.24000 198.000
5.25500 216.000
5.27000 196.000
5.28500 231.000
5.30000 230.000
5.31500 219.000
5.33000 212.000
5.34500 214.000
5.36000 210.000
5.37500 223.000
5.39000 228.000
5.40500 230.000
5.42000 238.000
5.43500 216.000
5.45000 227.000
5.46500 228.000
5.48000 224.000
5.49500 205.000
5.51000 242.000
5.52500 236.000
5.54000 202.000
5.55500 218.000
5.57000 219.000
5.58500 234.000
5.60000 221.000
5.61500 210.000
5.63000 210.000
5.64500 211.000
5.66000 221.000
5.67500 213.000
5.69000 215.000
5.70500 223.000
5.72000 226.000
5.73500 213.000
5.75000 215.000
5.76500 241.000
5.78000 210.000
5.79500 232.000
5.81000 223.000
5.82500 230.000
5.84000 246.000
5.85500 236.000
5.87000 221.000
5.88500 251.000
5.90000 234.000
5.91500 238.000
5.93000 232.000
5.94500 227.000
5.96000 239.000
5.97500 226.000
5.99000 229.000
6.00500 230.000
6.02000 233.000
6.03500 247.000
6.05000 239.000
6.06500 238.000
6.08000 240.000
6.09500 257.000
6.11000 242.000
6.12500 252.000
6.14000 229.000
6.15500 228.000
6.17000 257.000
6.18500 237.000
6.20000 227.000
6.21500 238.000
6.23000 237.000
6.24500 238.000
6.26000 239.000
6.27500 223.000
6.29000 236.000
6.30500 237.000
6.32000 243.000
6.33500 231.000
6.35000 251.000
6.36500 234.000
6.38000 256.000
6.39500 252.000
6.41000 249.000
6.42500 237.000
6.44000 228.000
6.45500 232.000
6.47000 243.000
6.48500 259.000
6.50000 240.000
6.51500 258.000
6.53000 244.000
6.54500 246.000
6.56000 291.000
6.57500 288.000
6.59000 241.000
6.60500 244.000
6.62000 238.000
6.63500 224.000
6.65000 233.000
6.66500 239.000
6.68000 251.000
6.69500 229.000
6.71000 245.000
6.72500 272.000
6.74000 258.000
6.75500 252.000
6.77000 248.000
6.78500 260.000
6.80000 263.000
6.81500 262.000
6.83000 273.000
6.84500 279.000
6.86000 255.000
6.87500 263.000
6.89000 255.000
6.90500 269.000
6.92000 270.000
6.93500 253.000
6.95000 251.000
6.96500 272.000
6.98000 277.000
6.99500 252.000
7.01000 249.000
7.02500 274.000
7.04000 245.000
7.05500 260.000
7.07000 246.000
7.08500 259.000
7.10000 269.000
7.11500 274.000
7.13000 267.000
7.14500 253.000
7.16000 275.000
7.17500 275.000
7.19000 274.000
7.20500 261.000
7.22000 260.000
7.23500 288.000
7.25000 293.000
7.26500 265.000
7.28000 254.000
7.29500 264.000
7.31000 257.000
7.32500 265.000
7.34000 297.000
7.35500 288.000
7.37000 291.000
7.38500 305.000
7.40000 282.000
7.41500 281.000
7.43000 279.000
7.44500 294.000
7.46000 290.000
7.47500 270.000
7.49000 277.000
7.50500 272.000
7.52000 264.000
7.53500 253.000
7.55000 265.000
7.56500 263.000
7.58000 268.000
7.59500 259.000
7.61000 280.000
7.62500 287.000
7.64000 256.000
7.65500 281.000
7.67000 264.000
7.68500 272.000
7.70000 287.000
7.71500 268.000
7.73000 293.000
7.74500 265.000
7.76000 275.000
7.77500 254.000
7.79000 274.000
7.80500 280.000
7.82000 268.000
7.83500 262.000
7.85000 263.000
7.86500 276.000
7.88000 287.000
7.89500 264.000
7.91000 272.000
7.92500 251.000
7.94000 275.000
7.95500 268.000
7.97000 263.000
7.98500 256.000
8.00000 267.000
8.01500 266.000
8.03000 247.000
8.04500 295.000
8.06000 267.000
8.07500 292.000
8.09000 265.000
8.10500 252.000
8.12000 252.000
8.13500 274.000
8.15000 284.000
8.16500 285.000
8.18000 259.000
8.19500 250.000
8.21000 284.000
8.22500 281.000
8.24000 281.000
8.25500 263.000
8.27000 255.000
8.28500 267.000
8.30000 260.000
8.31500 281.000
8.33000 279.000
8.34500 282.000
8.36000 252.000
8.37500 278.000
8.39000 256.000
8.40500 261.000
8.42000 286.000
8.43500 286.000
8.45000 263.000
8.46500 288.000
8.48000 288.000
8.49500 286.000
8.51000 270.000
8.52500 275.000
8.54000 279.000
8.55500 297.000
8.57000 293.000
8.58500 281.000
8.60000 280.000
8.61500 279.000
8.63000 280.000
8.64500 273.000
8.66000 257.000
8.67500 277.000
8.69000 288.000
8.70500 271.000
8.72000 269.000
8.73500 251.000
8.75000 273.000
8.76500 278.000
8.78000 264.000
8.79500 254.000
8.81000 249.000
8.82500 276.000
8.84000 279.000
8.85500 275.000
8.87000 289.000
8.88500 284.000
8.90000 260.000
8.91500 282.000
8.93000 283.000
8.94500 283.000
8.96000 254.000
8.97500 269.000
8.99000 297.000
9.00500 284.000
9.02000 303.000
9.03500 276.000
9.05000 252.000
9.06500 267.000
9.08000 258.000
9.09500 265.000
9.11000 258.000
9.12500 278.000
9.14000 286.000
9.15500 273.000
9.17000 269.000
9.18500 267.000
9.20000 258.000
9.21500 262.000
9.23000 263.000
9.24500 299.000
9.26000 261.000
9.27500 272.000
9.29000 275.000
9.30500 294.000
9.32000 262.000
9.33500 248.000
9.35000 257.000
9.36500 256.000
9.38000 282.000
9.39500 242.000
9.41000 277.000
9.42500 272.000
9.44000 260.000
9.45500 274.000
9.47000 265.000
9.48500 292.000
9.50000 270.000
9.51500 280.000
9.53000 272.000
9.54500 284.000
9.56000 277.000
9.57500 293.000
9.59000 294.000
9.60500 278.000
9.62000 282.000
9.63500 290.000
9.65000 265.000
9.66500 288.000
9.68000 268.000
9.69500 262.000
9.71000 263.000
9.72500 260.000
9.74000 248.000
9.75500 285.000
9.77000 261.000
9.78500 261.000
9.80000 255.000
9.81500 264.000
9.83000 287.000
9.84500 284.000
9.86000 264.000
9.87500 267.000
9.89000 277.000
9.90500 297.000
9.92000 301.000
9.93500 262.000
9.95000 260.000
9.96500 277.000
9.98000 257.000
9.99500 288.000
10.01000 285.000
10.02500 248.000
10.04000 265.000
10.05500 281.000
10.07000 305.000
10.08500 272.000
10.10000 271.000
10.11500 263.000
10.13000 259.000
10.14500 247.000
10.16000 301.000
10.17500 270.000
10.19000 277.000
10.20500 285.000
10.22000 273.000
10.23500 264.000
10.25000 274.000
10.26500 259.000
10.28000 250.000
10.29500 273.000
10.31000 282.000
10.32500 278.000
10.34000 285.000
10.35500 272.000
10.37000 259.000
10.38500 279.000
10.40000 276.000
10.41500 281.000
10.43000 269.000
10.44500 274.000
10.46000 268.000
10.47500 277.000
10.49000 257.000
10.50500 260.000
10.52000 292.000
10.53500 270.000
10.55000 263.000
10.56500 270.000
10.58000 265.000
10.59500 257.000
10.61000 281.000
10.62500 257.000
10.64000 272.000
10.65500 303.000
10.67000 253.000
10.68500 254.000
10.70000 253.000
10.71500 278.000
10.73000 279.000
10.74500 262.000
10.76000 263.000
10.77500 256.000
10.79000 267.000
10.80500 265.000
10.82000 289.000
10.83500 299.000
10.85000 283.000
10.86500 266.000
10.88000 269.000
10.89500 258.000
10.91000 279.000
10.92500 265.000
10.94000 269.000
10.95500 264.000
10.97000 276.000
10.98500 282.000
11.00000 272.000
11.01500 270.000
11.03000 261.000
11.04500 279.000
11.06000 272.000
11.07500 282.000
11.09000 283.000
11.10500 267.000
11.12000 269.000
11.13500 268.000
11.15000 275.000
11.16500 267.000
11.18000 263.000
11.19500 275.000
11.21000 276.000
11.22500 295.000
11.24000 306.000
11.25500 246.000
11.27000 270.000
11.28500 288.000
11.30000 302.000
11.31500 286.000
11.33000 274.000
11.34500 268.000
11.36000 256.000
11.37500 258.000
11.39000 286.000
11.40500 273.000
11.42000 275.000
11.43500 255.000
11.45000 250.000
11.46500 269.000
11.48000 282.000
11.49500 267.000
11.51000 268.000
11.52500 275.000
11.54000 291.000
11.55500 262.000
11.57000 294.000
11.58500 264.000
11.60000 264.000
11.61500 298.000
11.63000 292.000
11.64500 276.000
11.66000 255.000
11.67500 277.000
11.69000 265.000
11.70500 278.000
11.72000 274.000
11.73500 271.000
11.75000 297.000
11.76500 280.000
11.78000 282.000
11.79500 266.000
11.81000 301.000
11.82500 293.000
11.84000 291.000
11.85500 319.000
11.87000 299.000
11.88500 286.000
11.90000 322.000
11.91500 302.000
11.93000 298.000
11.94500 268.000
11.96000 253.000
11.97500 300.000
11.99000 292.000
12.00500 282.000
12.02000 265.000
12.03500 256.000
12.05000 260.000
12.06500 254.000
12.08000 268.000
12.09500 298.000
12.11000 292.000
12.12500 284.000
12.14000 273.000
12.15500 296.000
12.17000 274.000
12.18500 260.000
12.20000 287.000
12.21500 302.000
12.23000 300.000
12.24500 261.000
12.26000 289.000
12.27500 279.000
12.29000 308.000
12.30500 322.000
12.32000 305.000
12.33500 290.000
12.35000 298.000
12.36500 289.000
12.38000 310.000
12.39500 298.000
12.41000 315.000
12.42500 274.000
12.44000 287.000
12.45500 293.000
12.47000 288.000
12.48500 303.000
12.50000 279.000
12.51500 280.000
12.53000 292.000
12.54500 270.000
12.56000 280.000
12.57500 287.000
12.59000 291.000
12.60500 284.000
12.62000 309.000
12.63500 308.000
12.65000 318.000
12.66500 300.000
12.68000 300.000
12.69500 320.000
12.71000 337.000
12.72500 318.000
12.74000 299.000
12.75500 284.000
12.77000 278.000
12.78500 262.000
12.80000 280.000
12.81500 287.000
12.83000 303.000
12.84500 286.000
12.86000 285.000
12.87500 276.000
12.89000 285.000
12.90500 314.000
12.92000 313.000
12.93500 263.000
12.95000 276.000
12.96500 300.000
12.98000 291.000
12.99500 315.000
13.01000 311.000
13.02500 319.000
13.04000 297.000
13.05500 314.000
13.07000 299.000
13.08500 305.000
13.10000 319.000
13.11500 302.000
13.13000 297.000
13.14500 308.000
13.16000 317.000
13.17500 306.000
13.19000 327.000
13.20500 338.000
13.22000 320.000
13.23500 311.000
13.25000 318.000
13.26500 288.000
13.28000 303.000
13.29500 297.000
13.31000 306.000
13.32500 321.000
13.34000 321.000
13.35500 325.000
13.37000 314.000
13.38500 340.000
13.40000 368.000
13.41500 328.000
13.43000 328.000
13.44500 354.000
13.46000 355.000
13.47500 338.000
13.49000 357.000
13.50500 347.000
13.52000 370.000
13.53500 389.000
13.55000 400.000
13.56500 394.000
13.58000 405.000
13.59500 451.000
13.61000 434.000
13.62500 430.000
13.64000 466.000
13.65500 507.000
13.67000 536.000
13.68500 519.000
13.70000 513.000
13.71500 486.000
13.73000 488.000
13.74500 505.000
13.76000 469.000
13.77500 469.000
13.79000 487.000
13.80500 475.000
13.82000 474.000
13.83500 489.000
13.85000 496.000
13.86500 468.000
13.88000 525.000
13.89500 496.000
13.91000 461.000
13.92500 453.000
13.94000 418.000
13.95500 387.000
13.97000 377.000
13.98500 389.000
14.00000 406.000
14.01500 388.000
14.03000 347.000
14.04500 372.000
14.06000 364.000
14.07500 355.000
14.09000 382.000
14.10500 324.000
14.12000 343.000
14.13500 349.000
14.15000 349.000
14.16500 341.000
14.18000 334.000
14.19500 326.000
14.21000 326.000
14.22500 329.000
14.24000 340.000
14.25500 324.000
14.27000 321.000
14.28500 339.000
14.30000 333.000
14.31500 340.000
14.33000 336.000
14.34500 335.000
14.36000 327.000
14.37500 315.000
14.39000 347.000
14.40500 342.000
14.42000 354.000
14.43500 328.000
14.45000 337.000
14.46500 341.000
14.48000 348.000
14.49500 357.000
14.51000 338.000
14.52500 338.000
14.54000 322.000
14.55500 333.000
14.57000 352.000
14.58500 332.000
14.60000 319.000
14.61500 324.000
14.63000 330.000
14.64500 352.000
14.66000 315.000
14.67500 322.000
14.69000 334.000
14.70500 343.000
14.72000 354.000
14.73500 357.000
14.75000 355.000
14.76500 344.000
14.78000 332.000
14.79500 351.000
14.81000 325.000
14.82500 317.000
14.84000 331.000
14.85500 356.000
14.87000 328.000
14.88500 341.000
14.90000 319.000
14.91500 357.000
14.93000 360.000
14.94500 350.000
14.96000 383.000
14.97500 354.000
14.99000 352.000
15.00500 338.000
15.02000 333.000
15.03500 353.000
15.05000 370.000
15.06500 353.000
15.08000 346.000
15.09500 345.000
15.11000 359.000
15.12500 352.000
15.14000 337.000
15.15500 336.000
15.17000 347.000
15.18500 384.000
15.20000 365.000
15.21500 359.000
15.23000 347.000
15.24500 352.000
15.26000 338.000
15.27500 346.000
15.29000 372.000
15.30500 360.000
15.32000 356.000
15.33500 362.000
15.35000 318.000
15.36500 328.000
15.38000 348.000
15.39500 344.000
15.41000 342.000
15.42500 348.000
15.44000 357.000
15.45500 352.000
15.47000 335.000
15.48500 337.000
15.50000 368.000
15.51500 372.000
15.53000 375.000
15.54500 341.000
15.56000 365.000
15.57500 369.000
15.59000 370.000
15.60500 377.000
15.62000 388.000
15.63500 394.000
15.65000 394.000
15.66500 410.000
15.68000 448.000
15.69500 438.000
15.71000 467.000
15.72500 489.000
15.74000 507.000
15.75500 569.000
15.77000 595.000
15.78500 643.000
15.80000 725.000
15.81500 771.000
15.83000 817.000
15.84500 910.000
15.86000 996.000
15.87500 1053.000
15.89000 1114.000
15.90500 1164.000
15.92000 1224.000
15.93500 1263.000
15.95000 1154.000
15.96500 1101.000
15.98000 1027.000
15.99500 990.000
16.01000 883.000
16.02500 820.000
16.04000 737.000
16.05500 701.000
16.07000 659.000
16.08500 596.000
16.10000 537.000
16.11500 479.000
16.13000 485.000
16.14500 476.000
16.16000 480.000
16.17500 459.000
16.19000 437.000
16.20500 421.000
16.22000 400.000
16.23500 373.000
16.25000 421.000
16.26500 418.000
16.28000 434.000
16.29500 412.000
16.31000 426.000
16.32500 483.000
16.34000 506.000
16.35500 518.000
16.37000 507.000
16.38500 560.000
16.40000 557.000
16.41500 597.000
16.43000 650.000
16.44500 593.000
16.46000 551.000
16.47500 540.000
16.49000 522.000
16.50500 474.000
16.52000 473.000
16.53500 486.000
16.55000 452.000
16.56500 409.000
16.58000 380.000
16.59500 406.000
16.61000 403.000
16.62500 374.000
16.64000 353.000
16.65500 359.000
16.67000 355.000
16.68500 339.000
16.70000 344.000
16.71500 346.000
16.73000 350.000
16.74500 321.000
16.76000 333.000
16.77500 353.000
16.79000 324.000
16.80500 363.000
16.82000 313.000
16.83500 308.000
16.85000 312.000
16.86500 317.000
16.88000 317.000
16.89500 342.000
16.91000 322.000
16.92500 311.000
16.94000 323.000
16.95500 326.000
16.97000 317.000
16.98500 345.000
17.00000 367.000
17.01500 337.000
17.03000 342.000
17.04500 358.000
17.06000 356.000
17.07500 351.000
17.09000 352.000
17.10500 394.000
17.12000 375.000
17.13500 381.000
17.15000 401.000
17.16500 373.000
17.18000 409.000
17.19500 378.000
17.21000 386.000
17.22500 399.000
17.24000 402.000
17.25500 372.000
17.27000 365.000
17.28500 379.000
17.30000 378.000
17.31500 369.000
17.33000 359.000
17.34500 374.000
17.36000 382.000
17.37500 371.000
17.39000 377.000
17.40500 376.000
17.42000 356.000
17.43500 357.000
17.45000 355.000
17.46500 370.000
17.48000 382.000
17.49500 377.000
17.51000 377.000
17.52500 386.000
17.54000 371.000
17.55500 387.000
17.57000 420.000
17.58500 376.000
17.60000 396.000
17.61500 382.000
17.63000 394.000
17.64500 395.000
17.66000 422.000
17.67500 394.000
17.69000 378.000
17.70500 397.000
17.72000 384.000
17.73500 403.000
17.75000 418.000
17.76500 411.000
17.78000 416.000
17.79500 437.000
17.81000 409.000
17.82500 422.000
17.84000 441.000
17.85500 426.000
17.87000 470.000
17.88500 457.000
17.90000 474.000
17.91500 461.000
17.93000 487.000
17.94500 492.000
17.96000 498.000
17.97500 508.000
17.99000 486.000
18.00500 478.000
18.02000 537.000
18.03500 527.000
18.05000 544.000
18.06500 566.000
18.08000 583.000
18.09500 570.000
18.11000 590.000
18.12500 592.000
18.14000 583.000
18.15500 594.000
18.17000 620.000
18.18500 618.000
18.20000 623.000
18.21500 670.000
18.23000 673.000
18.24500 644.000
18.26000 606.000
18.27500 643.000
18.29000 615.000
18.30500 629.000
18.32000 604.000
18.33500 596.000
18.35000 598.000
18.36500 589.000
18.38000 588.000
18.39500 578.000
18.41000 560.000
18.42500 609.000
18.44000 591.000
18.45500 552.000
18.47000 554.000
18.48500 562.000
18.50000 588.000
18.51500 589.000
18.53000 587.000
18.54500 616.000
18.56000 624.000
18.57500 603.000
18.59000 661.000
18.60500 610.000
18.62000 577.000
18.63500 655.000
18.65000 619.000
18.66500 619.000
18.68000 628.000
18.69500 610.000
18.71000 600.000
18.72500 556.000
18.74000 533.000
18.75500 562.000
18.77000 555.000
18.78500 509.000
18.80000 520.000
18.81500 525.000
18.83000 514.000
18.84500 492.000
18.86000 475.000
18.87500 456.000
18.89000 461.000
18.90500 455.000
18.92000 452.000
18.93500 423.000
18.95000 411.000
18.96500 462.000
18.98000 454.000
18.99500 436.000
19.01000 431.000
19.02500 422.000
19.04000 405.000
19.05500 450.000
19.07000 445.000
19.08500 479.000
19.10000 453.000
19.11500 446.000
19.13000 455.000
19.14500 460.000
19.16000 449.000
19.17500 428.000
19.19000 457.000
19.20500 464.000
19.22000 479.000
19.23500 483.000
19.25000 509.000
19.26500 508.000
19.28000 500.000
19.29500 464.000
19.31000 470.000
19.32500 507.000
19.34000 470.000
19.35500 450.000
19.37000 501.000
19.38500 499.000
19.40000 498.000
19.41500 464.000
19.43000 481.000
19.44500 488.000
19.46000 465.000
19.47500 449.000
19.49000 432.000
19.50500 431.000
19.52000 413.000
19.53500 415.000
19.55000 413.000
19.56500 378.000
19.58000 395.000
19.59500 397.000
19.61000 370.000
19.62500 373.000
19.64000 391.000
19.65500 373.000
19.67000 367.000
19.68500 358.000
19.70000 392.000
19.71500 384.000
19.73000 352.000
19.74500 344.000
19.76000 365.000
19.77500 371.000
19.79000 360.000
19.80500 351.000
19.82000 360.000
19.83500 351.000
19.85000 363.000
19.86500 348.000
19.88000 346.000
19.89500 360.000
19.91000 356.000
19.92500 328.000
19.94000 350.000
19.95500 335.000
19.97000 328.000
19.98500 362.000
20.00000 321.000
20.01500 318.000
20.03000 333.000
20.04500 327.000
20.06000 325.000
20.07500 328.000
20.09000 344.000
20.10500 325.000
20.12000 311.000
20.13500 342.000
20.15000 306.000
20.16500 318.000
20.18000 337.000
20.19500 321.000
20.21000 347.000
20.22500 345.000
20.24000 324.000
20.25500 301.000
20.27000 308.000
20.28500 314.000
20.30000 336.000
20.31500 326.000
20.33000 320.000
20.34500 318.000
20.36000 333.000
20.37500 326.000
20.39000 315.000
20.40500 331.000
20.42000 317.000
20.43500 327.000
20.45000 322.000
20.46500 302.000
20.48000 324.000
20.49500 296.000
20.51000 339.000
20.52500 324.000
20.54000 320.000
20.55500 318.000
20.57000 325.000
20.58500 338.000
20.60000 326.000
20.61500 300.000
20.63000 292.000
20.64500 311.000
20.66000 316.000
20.67500 343.000
20.69000 323.000
20.70500 331.000
20.72000 319.000
20.73500 311.000
20.75000 330.000
20.76500 340.000
20.78000 316.000
20.79500 292.000
20.81000 287.000
20.82500 329.000
20.84000 329.000
20.85500 320.000
20.87000 315.000
20.88500 310.000
20.90000 327.000
20.91500 310.000
20.93000 323.000
20.94500 313.000
20.96000 330.000
20.97500 340.000
20.99000 324.000
21.00500 304.000
21.02000 329.000
21.03500 329.000
21.05000 320.000
21.06500 301.000
21.08000 321.000
21.09500 335.000
21.11000 320.000
21.12500 301.000
21.14000 314.000
21.15500 310.000
21.17000 319.000
21.18500 309.000
21.20000 303.000
21.21500 328.000
21.23000 328.000
21.24500 312.000
21.26000 296.000
21.27500 315.000
21.29000 328.000
21.30500 330.000
21.32000 335.000
21.33500 343.000
21.35000 306.000
21.36500 290.000
21.38000 325.000
21.39500 313.000
21.41000 322.000
21.42500 323.000
21.44000 326.000
21.45500 345.000
21.47000 339.000
21.48500 352.000
21.50000 329.000
21.51500 349.000
21.53000 314.000
21.54500 320.000
21.56000 329.000
21.57500 363.000
21.59000 351.000
21.60500 355.000
21.62000 361.000
21.63500 338.000
21.65000 352.000
21.66500 338.000
21.68000 371.000
21.69500 354.000
21.71000 336.000
21.72500 347.000
21.74000 322.000
21.75500 311.000
21.77000 293.000
21.78500 319.000
21.80000 340.000
21.81500 346.000
21.83000 363.000
21.84500 341.000
21.86000 322.000
21.87500 328.000
21.89000 338.000
21.90500 348.000
21.92000 346.000
21.93500 315.000
21.95000 344.000
21.96500 367.000
21.98000 360.000
21.99500 372.000
22.01000 353.000
22.02500 357.000
22.04000 380.000
22.05500 354.000
22.07000 340.000
22.08500 332.000
22.10000 325.000
22.11500 336.000
22.13000 347.000
22.14500 350.000
22.16000 354.000
22.17500 343.000
22.19000 329.000
22.20500 320.000
22.22000 366.000
22.23500 378.000
22.25000 384.000
22.26500 408.000
22.28000 401.000
22.29500 392.000
22.31000 392.000
22.32500 435.000
22.34000 460.000
22.35500 456.000
22.37000 493.000
22.38500 573.000
22.40000 621.000
22.41500 631.000
22.43000 654.000
22.44500 624.000
22.46000 580.000
22.47500 587.000
22.49000 548.000
22.50500 495.000
22.52000 464.000
22.53500 449.000
22.55000 414.000
22.56500 403.000
22.58000 403.000
22.59500 397.000
22.61000 351.000
22.62500 397.000
22.64000 398.000
22.65500 373.000
22.67000 394.000
22.68500 363.000
22.70000 362.000
22.71500 368.000
22.73000 382.000
22.74500 356.000
22.76000 355.000
22.77500 331.000
22.79000 350.000
22.80500 356.000
22.82000 348.000
22.83500 366.000
22.85000 354.000
22.86500 377.000
22.88000 335.000
22.89500 327.000
22.91000 356.000
22.92500 350.000
22.94000 339.000
22.95500 357.000
22.97000 372.000
22.98500 366.000
23.00000 350.000
23.01500 361.000
23.03000 354.000
23.04500 394.000
23.06000 347.000
23.07500 321.000
23.09000 341.000
23.10500 361.000
23.12000 367.000
23.13500 336.000
23.15000 335.000
23.16500 341.000
23.18000 359.000
23.19500 346.000
23.21000 359.000
23.22500 349.000
23.24000 332.000
23.25500 356.000
23.27000 348.000
23.28500 355.000
23.30000 369.000
23.31500 368.000
23.33000 343.000
23.34500 350.000
23.36000 338.000
23.37500 359.000
23.39000 368.000
23.40500 375.000
23.42000 370.000
23.43500 369.000
23.45000 346.000
23.46500 352.000
23.48000 357.000
23.49500 374.000
23.51000 369.000
23.52500 370.000
23.54000 363.000
23.55500 393.000
23.57000 400.000
23.58500 380.000
23.60000 368.000
23.61500 394.000
23.63000 390.000
23.64500 397.000
23.66000 408.000
23.67500 370.000
23.69000 373.000
23.70500 370.000
23.72000 396.000
23.73500 412.000
23.75000 401.000
23.76500 401.000
23.78000 418.000
23.79500 461.000
23.81000 484.000
23.82500 499.000
23.84000 504.000
23.85500 481.000
23.87000 491.000
23.88500 511.000
23.90000 513.000
23.91500 505.000
23.93000 520.000
23.94500 483.000
23.96000 488.000
23.97500 505.000
23.99000 471.000
24.00500 425.000
24.02000 410.000
24.03500 413.000
24.05000 401.000
24.06500 392.000
24.08000 377.000
24.09500 423.000
24.11000 423.000
24.12500 398.000
24.14000 392.000
24.15500 388.000
24.17000 374.000
24.18500 331.000
24.20000 346.000
24.21500 327.000
24.23000 337.000
24.24500 338.000
24.26000 325.000
24.27500 323.000
24.29000 364.000
24.30500 359.000
24.32000 364.000
24.33500 330.000
24.35000 326.000
24.36500 339.000
24.38000 343.000
24.39500 369.000
24.41000 379.000
24.42500 356.000
24.44000 358.000
24.45500 360.000
24.47000 362.000
24.48500 382.000
24.50000 364.000
24.51500 343.000
24.53000 362.000
24.54500 387.000
24.56000 350.000
24.57500 373.000
24.59000 371.000
24.60500 383.000
24.62000 407.000
24.63500 362.000
24.65000 367.000
24.66500 392.000
24.68000 425.000
24.69500 398.000
24.71000 372.000
24.72500 381.000
24.74000 394.000
24.75500 374.000
24.77000 367.000
24.78500 411.000
24.80000 419.000
24.81500 401.000
24.83000 381.000
24.84500 397.000
24.86000 393.000
24.87500 410.000
24.89000 417.000
24.90500 407.000
24.92000 370.000
24.93500 400.000
24.95000 405.000
24.96500 404.000
24.98000 382.000
24.99500 398.000
25.01000 408.000
25.02500 408.000
25.04000 396.000
25.05500 394.000
25.07000 431.000
25.08500 419.000
25.10000 387.000
25.11500 425.000
25.13000 427.000
25.14500 429.000
25.16000 423.000
25.17500 427.000
25.19000 443.000
25.20500 437.000
25.22000 460.000
25.23500 441.000
25.25000 424.000
25.26500 458.000
25.28000 466.000
25.29500 447.000
25.31000 443.000
25.32500 465.000
25.34000 464.000
25.35500 435.000
25.37000 435.000
25.38500 414.000
25.40000 451.000
25.41500 437.000
25.43000 437.000
25.44500 425.000
25.46000 437.000
25.47500 464.000
25.49000 445.000
25.50500 397.000
25.52000 436.000
25.53500 435.000
25.55000 407.000
25.56500 420.000
25.58000 432.000
25.59500 428.000
25.61000 394.000
25.62500 391.000
25.64000 414.000
25.65500 403.000
25.67000 389.000
25.68500 393.000
25.70000 392.000
25.71500 402.000
25.73000 414.000
25.74500 403.000
25.76000 412.000
25.77500 419.000
25.79000 409.000
25.80500 415.000
25.82000 399.000
25.83500 397.000
25.85000 413.000
25.86500 405.000
25.88000 384.000
25.89500 414.000
25.91000 406.000
25.92500 405.000
25.94000 416.000
25.95500 406.000
25.97000 388.000
25.98500 419.000
26.00000 449.000
26.01500 439.000
26.03000 408.000
26.04500 406.000
26.06000 423.000
26.07500 414.000
26.09000 414.000
26.10500 450.000
26.12000 433.000
26.13500 424.000
26.15000 423.000
26.16500 448.000
26.18000 430.000
26.19500 435.000
26.21000 461.000
26.22500 482.000
26.24000 456.000
26.25500 470.000
26.27000 461.000
26.28500 443.000
26.30000 469.000
26.31500 496.000
26.33000 479.000
26.34500 480.000
26.36000 484.000
26.37500 463.000
26.39000 500.000
26.40500 493.000
26.42000 474.000
26.43500 518.000
26.45000 523.000
26.46500 541.000
26.48000 526.000
26.49500 513.000
26.51000 597.000
26.52500 591.000
26.54000 571.000
26.55500 606.000
26.57000 618.000
26.58500 671.000
26.60000 703.000
26.61500 715.000
26.63000 723.000
26.64500 788.000
26.66000 783.000
26.67500 792.000
26.69000 828.000
26.70500 871.000
26.72000 889.000
26.73500 982.000
26.75000 1031.000
26.76500 1088.000
26.78000 1161.000
26.79500 1204.000
26.81000 1280.000
26.82500 1346.000
26.84000 1463.000
26.85500 1571.000
26.87000 1608.000
26.88500 1753.000
26.90000 1990.000
26.91500 1965.000
26.93000 2057.000
26.94500 2090.000
26.96000 2284.000
26.97500 2356.000
26.99000 2324.000
27.00500 2318.000
27.02000 2306.000
27.03500 2317.000
27.05000 2218.000
27.06500 2149.000
27.08000 2127.000
27.09500 2039.000
27.11000 1928.000
27.12500 1853.000
27.14000 1701.000
27.15500 1666.000
27.17000 1657.000
27.18500 1537.000
27.20000 1439.000
27.21500 1429.000
27.23000 1324.000
27.24500 1294.000
27.26000 1177.000
27.27500 1092.000
27.29000 1069.000
27.30500 1052.000
27.32000 1002.000
27.33500 956.000
27.35000 902.000
27.36500 853.000
27.38000 870.000
27.39500 889.000
27.41000 893.000
27.42500 849.000
27.44000 878.000
27.45500 845.000
27.47000 901.000
27.48500 956.000
27.50000 989.000
27.51500 1078.000
27.53000 1184.000
27.54500 1422.000
27.56000 1630.000
27.57500 1972.000
27.59000 2413.000
27.60500 2786.000
27.62000 3104.000
27.63500 3378.000
27.65000 3643.000
27.66500 3771.000
27.68000 3835.000
27.69500 3835.000
27.71000 3752.000
27.72500 3547.000
27.74000 3109.000
27.75500 2807.000
27.77000 2440.000
27.78500 2114.000
27.80000 1846.000
27.81500 1605.000
27.83000 1396.000
27.84500 1236.000
27.86000 1109.000
27.87500 1041.000
27.89000 967.000
27.90500 886.000
27.92000 832.000
27.93500 798.000
27.95000 749.000
27.96500 739.000
27.98000 723.000
27.99500 767.000
28.01000 715.000
28.02500 725.000
28.04000 720.000
28.05500 674.000
28.07000 675.000
28.08500 694.000
28.10000 622.000
28.11500 581.000
28.13000 596.000
28.14500 573.000
28.16000 524.000
28.17500 554.000
28.19000 575.000
28.20500 517.000
28.22000 506.000
28.23500 509.000
28.25000 496.000
28.26500 511.000
28.28000 464.000
28.29500 486.000
28.31000 488.000
28.32500 477.000
28.34000 503.000
28.35500 513.000
28.37000 456.000
28.38500 479.000
28.40000 500.000
28.41500 456.000
28.43000 476.000
28.44500 455.000
28.46000 468.000
28.47500 484.000
28.49000 480.000
28.50500 455.000
28.52000 453.000
28.53500 463.000
28.55000 440.000
28.56500 447.000
28.58000 474.000
28.59500 483.000
28.61000 481.000
28.62500 482.000
28.64000 491.000
28.65500 516.000
28.67000 503.000
28.68500 471.000
28.70000 465.000
28.71500 464.000
28.73000 462.000
28.74500 495.000
28.76000 459.000
28.77500 440.000
28.79000 483.000
28.80500 467.000
28.82000 471.000
28.83500 445.000
28.85000 454.000
28.86500 459.000
28.88000 474.000
28.89500 458.000
28.91000 435.000
28.92500 432.000
28.94000 447.000
28.95500 440.000
28.97000 476.000
28.98500 474.000
29.00000 465.000
29.01500 451.000
29.03000 429.000
29.04500 474.000
29.06000 453.000
29.07500 432.000
29.09000 458.000
29.10500 399.000
29.12000 443.000
29.13500 438.000
29.15000 438.000
29.16500 426.000
29.18000 466.000
29.19500 442.000
29.21000 409.000
29.22500 407.000
29.24000 400.000
29.25500 402.000
29.27000 397.000
29.28500 412.000
29.30000 399.000
29.31500 434.000
29.33000 410.000
29.34500 402.000
29.36000 417.000
29.37500 431.000
29.39000 436.000
29.40500 470.000
29.42000 437.000
29.43500 436.000
29.45000 431.000
29.46500 396.000
29.48000 403.000
29.49500 421.000
29.51000 418.000
29.52500 405.000
29.54000 417.000
29.55500 401.000
29.57000 370.000
29.58500 404.000
29.60000 411.000
29.61500 389.000
29.63000 375.000
29.64500 428.000
29.66000 415.000
29.67500 400.000
29.69000 371.000
29.70500 349.000
29.72000 343.000
29.73500 388.000
29.75000 385.000
29.76500 383.000
29.78000 361.000
29.79500 367.000
29.81000 375.000
29.82500 365.000
29.84000 372.000
29.85500 376.000
29.87000 364.000
29.88500 359.000
29.90000 348.000
29.91500 361.000
29.93000 379.000
29.94500 361.000
29.96000 349.000
29.97500 363.000
29.99000 347.000
30.00500 354.000
30.02000 361.000
30.03500 380.000
30.05000 372.000
30.06500 379.000
30.08000 357.000
30.09500 342.000
30.11000 321.000
30.12500 348.000
30.14000 346.000
30.15500 339.000
30.17000 350.000
30.18500 315.000
30.20000 338.000
30.21500 350.000
30.23000 380.000
30.24500 366.000
30.26000 331.000
30.27500 342.000
30.29000 361.000
30.30500 392.000
30.32000 380.000
30.33500 381.000
30.35000 349.000
30.36500 347.000
30.38000 331.000
30.39500 346.000
30.41000 356.000
30.42500 389.000
30.44000 373.000
30.45500 359.000
30.47000 391.000
30.48500 365.000
30.50000 353.000
30.51500 378.000
30.53000 393.000
30.54500 373.000
30.56000 352.000
30.57500 369.000
30.59000 398.000
30.60500 382.000
30.62000 388.000
30.63500 370.000
30.65000 360.000
30.66500 364.000
30.68000 333.000
30.69500 352.000
30.71000 356.000
30.72500 374.000
30.74000 367.000
30.75500 366.000
30.77000 377.000
30.78500 379.000
30.80000 377.000
30.81500 398.000
30.83000 393.000
30.84500 363.000
30.86000 372.000
30.87500 372.000
30.89000 365.000
30.90500 365.000
30.92000 369.000
30.93500 389.000
30.95000 370.000
30.96500 376.000
30.98000 382.000
30.99500 379.000
31.01000 390.000
31.02500 378.000
31.04000 378.000
31.05500 393.000
31.07000 374.000
31.08500 405.000
31.10000 392.000
31.11500 368.000
31.13000 357.000
31.14500 383.000
31.16000 418.000
31.17500 375.000
31.19000 389.000
31.20500 363.000
31.22000 364.000
31.23500 372.000
31.25000 350.000
31.26500 371.000
31.28000 383.000
31.29500 384.000
31.31000 366.000
31.32500 336.000
31.34000 356.000
31.35500 379.000
31.37000 370.000
31.38500 385.000
31.40000 369.000
31.41500 381.000
31.43000 401.000
31.44500 379.000
31.46000 391.000
31.47500 385.000
31.49000 384.000
31.50500 377.000
31.52000 383.000
31.53500 394.000
31.55000 376.000
31.56500 408.000
31.58000 404.000
31.59500 446.000
31.61000 407.000
31.62500 398.000
31.64000 439.000
31.65500 435.000
31.67000 451.000
31.68500 439.000
31.70000 442.000
31.71500 427.000
31.73000 434.000
31.74500 407.000
31.76000 459.000
31.77500 460.000
31.79000 443.000
31.80500 413.000
31.82000 424.000
31.83500 426.000
31.85000 439.000
31.86500 411.000
31.88000 410.000
31.89500 425.000
31.91000 424.000
31.92500 429.000
31.94000 464.000
31.95500 472.000
31.97000 462.000
31.98500 490.000
32.00000 525.000
32.01500 534.000
32.03000 574.000
32.04500 580.000
32.06000 566.000
32.07500 560.000
32.09000 559.000
32.10500 560.000
32.12000 594.000
32.13500 607.000
32.15000 572.000
32.16500 592.000
32.18000 572.000
32.19500 555.000
32.21000 522.000
32.22500 529.000
32.24000 565.000
32.25500 504.000
32.27000 506.000
32.28500 499.000
32.30000 444.000
32.31500 461.000
32.33000 445.000
32.34500 457.000
32.36000 470.000
32.37500 464.000
32.39000 489.000
32.40500 494.000
32.42000 512.000
32.43500 519.000
32.45000 507.000
32.46500 548.000
32.48000 629.000
32.49500 765.000
32.51000 817.000
32.52500 895.000
32.54000 928.000
32.55500 862.000
32.57000 841.000
32.58500 761.000
32.60000 703.000
32.61500 663.000
32.63000 615.000
32.64500 578.000
32.66000 554.000
32.67500 522.000
32.69000 514.000
32.70500 495.000
32.72000 512.000
32.73500 511.000
32.75000 503.000
32.76500 511.000
32.78000 504.000
32.79500 515.000
32.81000 511.000
32.82500 515.000
32.84000 524.000
32.85500 517.000
32.87000 533.000
32.88500 541.000
32.90000 530.000
32.91500 544.000
32.93000 524.000
32.94500 536.000
32.96000 546.000
32.97500 525.000
32.99000 522.000
33.00500 559.000
33.02000 571.000
33.03500 581.000
33.05000 544.000
33.06500 598.000
33.08000 592.000
33.09500 569.000
33.11000 574.000
33.12500 572.000
33.14000 582.000
33.15500 640.000
33.17000 635.000
33.18500 649.000
33.20000 665.000
33.21500 691.000
33.23000 658.000
33.24500 625.000
33.26000 623.000
33.27500 599.000
33.29000 546.000
33.30500 538.000
33.32000 559.000
33.33500 529.000
33.35000 524.000
33.36500 520.000
33.38000 480.000
33.39500 463.000
33.41000 486.000
33.42500 473.000
33.44000 482.000
33.45500 462.000
33.47000 444.000
33.48500 409.000
33.50000 416.000
33.51500 426.000
33.53000 438.000
33.54500 448.000
33.56000 428.000
33.57500 435.000
33.59000 409.000
33.60500 397.000
33.62000 379.000
33.63500 380.000
33.65000 398.000
33.66500 405.000
33.68000 400.000
33.69500 403.000
33.71000 395.000
33.72500 381.000
33.74000 343.000
33.75500 375.000
33.77000 361.000
33.78500 366.000
33.80000 378.000
33.81500 344.000
33.83000 341.000
33.84500 331.000
33.86000 337.000
33.87500 360.000
33.89000 347.000
33.90500 336.000
33.92000 318.000
33.93500 326.000
33.95000 339.000
33.96500 345.000
33.98000 329.000
33.99500 334.000
34.01000 318.000
34.02500 308.000
34.04000 308.000
34.05500 325.000
34.07000 303.000
34.08500 318.000
34.10000 323.000
34.11500 319.000
34.13000 309.000
34.14500 320.000
34.16000 315.000
34.17500 329.000
34.19000 320.000
34.20500 319.000
34.22000 346.000
34.23500 332.000
34.25000 314.000
34.26500 336.000
34.28000 305.000
34.29500 321.000
34.31000 334.000
34.32500 336.000
34.34000 316.000
34.35500 301.000
34.37000 266.000
34.38500 312.000
34.40000 328.000
34.41500 291.000
34.43000 327.000
34.44500 312.000
34.46000 296.000
34.47500 279.000
34.49000 290.000
34.50500 272.000
34.52000 271.000
34.53500 276.000
34.55000 298.000
34.56500 272.000
34.58000 270.000
34.59500 293.000
34.61000 302.000
34.62500 306.000
34.64000 302.000
34.65500 301.000
34.67000 296.000
34.68500 301.000
34.70000 298.000
34.71500 322.000
34.73000 323.000
34.74500 332.000
34.76000 350.000
34.77500 352.000
34.79000 334.000
34.80500 358.000
34.82000 349.000
34.83500 349.000
34.85000 347.000
34.86500 330.000
34.88000 296.000
34.89500 308.000
34.91000 280.000
34.92500 280.000
34.94000 285.000
34.95500 285.000
34.97000 289.000
34.98500 269.000
35.00000 271.000
35.01500 289.000
35.03000 299.000
35.04500 283.000
35.06000 281.000
35.07500 284.000
35.09000 280.000
35.10500 278.000
35.12000 281.000
35.13500 290.000
35.15000 274.000
35.16500 280.000
35.18000 294.000
35.19500 308.000
35.21000 304.000
35.22500 304.000
35.24000 308.000
35.25500 310.000
35.27000 315.000
35.28500 323.000
35.30000 315.000
35.31500 305.000
35.33000 297.000
35.34500 293.000
35.36000 289.000
35.37500 305.000
35.39000 343.000
35.40500 334.000
35.42000 310.000
35.43500 299.000
35.45000 311.000
35.46500 301.000
35.48000 305.000
35.49500 313.000
35.51000 317.000
35.52500 279.000
35.54000 278.000
35.55500 265.000
35.57000 277.000
35.58500 283.000
35.60000 273.000
35.61500 284.000
35.63000 253.000
35.64500 266.000
35.66000 284.000
35.67500 269.000
35.69000 256.000
35.70500 251.000
35.72000 253.000
35.73500 252.000
35.75000 276.000
35.76500 264.000
35.78000 247.000
35.79500 246.000
35.81000 286.000
35.82500 286.000
35.84000 249.000
35.85500 263.000
35.87000 271.000
35.88500 262.000
35.90000 282.000
35.91500 268.000
35.93000 256.000
35.94500 268.000
35.96000 260.000
35.97500 275.000
35.99000 276.000
36.00500 269.000
36.02000 257.000
36.03500 276.000
36.05000 247.000
36.06500 251.000
36.08000 276.000
36.09500 238.000
36.11000 247.000
36.12500 258.000
36.14000 289.000
36.15500 277.000
36.17000 263.000
36.18500 271.000
36.20000 277.000
36.21500 283.000
36.23000 264.000
36.24500 263.000
36.26000 258.000
36.27500 245.000
36.29000 270.000
36.30500 265.000
36.32000 286.000
36.33500 246.000
36.35000 259.000
36.36500 260.000
36.38000 272.000
36.39500 281.000
36.41000 267.000
36.42500 290.000
36.44000 281.000
36.45500 266.000
36.47000 260.000
36.48500 267.000
36.50000 277.000
36.51500 274.000
36.53000 272.000
36.54500 258.000
36.56000 289.000
36.57500 249.000
36.59000 246.000
36.60500 262.000
36.62000 270.000
36.63500 266.000
36.65000 261.000
36.66500 240.000
36.68000 257.000
36.69500 265.000
36.71000 255.000
36.72500 212.000
36.74000 239.000
36.75500 245.000
36.77000 233.000
36.78500 278.000
36.80000 268.000
36.81500 246.000
36.83000 228.000
36.84500 250.000
36.86000 257.000
36.87500 244.000
36.89000 284.000
36.90500 267.000
36.92000 265.000
36.93500 261.000
36.95000 238.000
36.96500 235.000
36.98000 233.000
36.99500 235.000
37.01000 257.000
37.02500 267.000
37.04000 262.000
37.05500 257.000
37.07000 262.000
37.08500 275.000
37.10000 280.000
37.11500 288.000
37.13000 283.000
37.14500 263.000
37.16000 278.000
37.17500 269.000
37.19000 261.000
37.20500 239.000
37.22000 248.000
37.23500 254.000
37.25000 252.000
37.26500 223.000
37.28000 234.000
37.29500 227.000
37.31000 219.000
37.32500 225.000
37.34000 242.000
37.35500 243.000
37.37000 273.000
37.38500 261.000
37.40000 245.000
37.41500 249.000
37.43000 235.000
37.44500 228.000
37.46000 219.000
37.47500 233.000
37.49000 240.000
37.50500 251.000
37.52000 263.000
37.53500 215.000
37.55000 215.000
37.56500 216.000
37.58000 212.000
37.59500 231.000
37.61000 248.000
37.62500 244.000
37.64000 237.000
37.65500 201.000
37.67000 218.000
37.68500 223.000
37.70000 223.000
37.71500 225.000
37.73000 217.000
37.74500 210.000
37.76000 228.000
37.77500 207.000
37.79000 201.000
37.80500 224.000
37.82000 232.000
37.83500 231.000
37.85000 211.000
37.86500 207.000
37.88000 226.000
37.89500 211.000
37.91000 197.000
37.92500 221.000
37.94000 205.000
37.95500 219.000
37.97000 236.000
37.98500 232.000
38.00000 202.000
38.01500 208.000
38.03000 213.000
38.04500 214.000
38.06000 208.000
38.07500 217.000
38.09000 205.000
38.10500 210.000
38.12000 205.000
38.13500 217.000
38.15000 216.000
38.16500 213.000
38.18000 202.000
38.19500 237.000
38.21000 221.000
38.22500 212.000
38.24000 229.000
38.25500 229.000
38.27000 214.000
38.28500 214.000
38.30000 223.000
38.31500 207.000
38.33000 218.000
38.34500 245.000
38.36000 235.000
38.37500 233.000
38.39000 255.000
38.40500 235.000
38.42000 214.000
38.43500 238.000
38.45000 220.000
38.46500 235.000
38.48000 247.000
38.49500 219.000
38.51000 239.000
38.52500 227.000
38.54000 233.000
38.55500 240.000
38.57000 225.000
38.58500 239.000
38.60000 236.000
38.61500 230.000
38.63000 250.000
38.64500 251.000
38.66000 220.000
38.67500 216.000
38.69000 218.000
38.70500 234.000
38.72000 234.000
38.73500 239.000
38.75000 211.000
38.76500 229.000
38.78000 236.000
38.79500 220.000
38.81000 250.000
38.82500 222.000
38.84000 227.000
38.85500 225.000
38.87000 229.000
38.88500 229.000
38.90000 221.000
38.91500 226.000
38.93000 231.000
38.94500 216.000
38.96000 218.000
38.97500 233.000
38.99000 223.000
39.00500 244.000
39.02000 244.000
39.03500 238.000
39.05000 238.000
39.06500 233.000
39.08000 218.000
39.09500 222.000
39.11000 236.000
39.12500 239.000
39.14000 232.000
39.15500 225.000
39.17000 249.000
39.18500 226.000
39.20000 225.000
39.21500 234.000
39.23000 243.000
39.24500 228.000
39.26000 229.000
39.27500 223.000
39.29000 223.000
39.30500 229.000
39.32000 222.000
39.33500 241.000
39.35000 223.000
39.36500 223.000
39.38000 227.000
39.39500 238.000
39.41000 251.000
39.42500 256.000
39.44000 247.000
39.45500 217.000
39.47000 238.000
39.48500 244.000
39.50000 224.000
39.51500 210.000
39.53000 223.000
39.54500 233.000
39.56000 227.000
39.57500 248.000
39.59000 239.000
39.60500 249.000
39.62000 219.000
39.63500 225.000
39.65000 219.000
39.66500 212.000
39.68000 239.000
39.69500 222.000
39.71000 228.000
39.72500 234.000
39.74000 207.000
39.75500 221.000
39.77000 222.000
39.78500 238.000
39.80000 213.000
39.81500 228.000
39.83000 230.000
39.84500 222.000
39.86000 223.000
39.87500 225.000
39.89000 235.000
39.90500 240.000
39.92000 244.000
39.93500 255.000
39.95000 218.000
39.96500 214.000
39.98000 216.000
39.99500 215.000
40.01000 233.000
40.02500 236.000
40.04000 225.000
40.05500 229.000
40.07000 225.000
40.08500 238.000
40.10000 210.000
40.11500 237.000
40.13000 212.000
40.14500 216.000
40.16000 201.000
40.17500 233.000
40.19000 216.000
40.20500 243.000
40.22000 238.000
40.23500 214.000
40.25000 219.000
40.26500 219.000
40.28000 222.000
40.29500 223.000
40.31000 235.000
40.32500 225.000
40.34000 200.000
40.35500 225.000
40.37000 219.000
40.38500 212.000
40.40000 230.000
40.41500 247.000
40.43000 231.000
40.44500 208.000
40.46000 217.000
40.47500 220.000
40.49000 226.000
40.50500 221.000
40.52000 224.000
40.53500 214.000
40.55000 211.000
40.56500 219.000
40.58000 206.000
40.59500 218.000
40.61000 214.000
40.62500 205.000
40.64000 191.000
40.65500 211.000
40.67000 224.000
40.68500 216.000
40.70000 195.000
40.71500 211.000
40.73000 205.000
40.74500 198.000
40.76000 187.000
40.77500 207.000
40.79000 208.000
40.80500 234.000
40.82000 216.000
40.83500 220.000
40.85000 227.000
40.86500 214.000
40.88000 217.000
40.89500 212.000
40.91000 208.000
40.92500 201.000
40.94000 208.000
40.95500 195.000
40.97000 212.000
40.98500 206.000
41.00000 205.000
41.01500 209.000
41.03000 197.000
41.04500 212.000
41.06000 214.000
41.07500 201.000
41.09000 210.000
41.10500 205.000
41.12000 202.000
41.13500 206.000
41.15000 214.000
41.16500 207.000
41.18000 194.000
41.19500 216.000
41.21000 220.000
41.22500 204.000
41.24000 201.000
41.25500 211.000
41.27000 240.000
41.28500 212.000
41.30000 227.000
41.31500 204.000
41.33000 207.000
41.34500 219.000
41.36000 222.000
41.37500 211.000
41.39000 206.000
41.40500 217.000
41.42000 197.000
41.43500 208.000
41.45000 198.000
41.46500 211.000
41.48000 226.000
41.49500 233.000
41.51000 208.000
41.52500 210.000
41.54000 213.000
41.55500 227.000
41.57000 207.000
41.58500 207.000
41.60000 217.000
41.61500 215.000
41.63000 224.000
41.64500 260.000
41.66000 234.000
41.67500 257.000
41.69000 230.000
41.70500 236.000
41.72000 259.000
41.73500 234.000
41.75000 211.000
41.76500 224.000
41.78000 246.000
41.79500 238.000
41.81000 230.000
41.82500 222.000
41.84000 230.000
41.85500 252.000
41.87000 219.000
41.88500 222.000
41.90000 199.000
41.91500 209.000
41.93000 212.000
41.94500 201.000
41.96000 200.000
41.97500 192.000
41.99000 196.000
42.00500 189.000
42.02000 164.000
42.03500 191.000
42.05000 203.000
42.06500 188.000
42.08000 195.000
42.09500 197.000
42.11000 194.000
42.12500 195.000
42.14000 190.000
42.15500 197.000
42.17000 199.000
42.18500 176.000
42.20000 185.000
42.21500 210.000
42.23000 191.000
42.24500 191.000
42.26000 219.000
42.27500 197.000
42.29000 212.000
42.30500 213.000
42.32000 230.000
42.33500 248.000
42.35000 236.000
42.36500 236.000
42.38000 236.000
42.39500 243.000
42.41000 233.000
42.42500 234.000
42.44000 234.000
42.45500 233.000
42.47000 215.000
42.48500 229.000
42.50000 232.000
42.51500 211.000
42.53000 224.000
42.54500 207.000
42.56000 211.000
42.57500 196.000
42.59000 216.000
42.60500 198.000
42.62000 201.000
42.63500 203.000
42.65000 210.000
42.66500 208.000
42.68000 213.000
42.69500 223.000
42.71000 234.000
42.72500 216.000
42.74000 218.000
42.75500 214.000
42.77000 229.000
42.78500 220.000
42.80000 202.000
42.81500 200.000
42.83000 207.000
42.84500 237.000
42.86000 264.000
42.87500 265.000
42.89000 278.000
42.90500 209.000
42.92000 227.000
42.93500 224.000
42.95000 248.000
42.96500 284.000
42.98000 261.000
42.99500 242.000
43.01000 249.000
43.02500 256.000
43.04000 241.000
43.05500 246.000
43.07000 222.000
43.08500 249.000
43.10000 238.000
43.11500 232.000
43.13000 261.000
43.14500 246.000
43.16000 238.000
43.17500 254.000
43.19000 252.000
43.20500 250.000
43.22000 246.000
43.23500 230.000
43.25000 240.000
43.26500 268.000
43.28000 244.000
43.29500 253.000
43.31000 246.000
43.32500 255.000
43.34000 245.000
43.35500 251.000
43.37000 236.000
43.38500 220.000
43.40000 228.000
43.41500 241.000
43.43000 240.000
43.44500 208.000
43.46000 238.000
43.47500 246.000
43.49000 220.000
43.50500 248.000
43.52000 238.000
43.53500 223.000
43.55000 219.000
43.56500 242.000
43.58000 215.000
43.59500 234.000
43.61000 224.000
43.62500 214.000
43.64000 220.000
43.65500 202.000
43.67000 194.000
43.68500 199.000
43.70000 191.000
43.71500 199.000
43.73000 201.000
43.74500 211.000
43.76000 218.000
43.77500 220.000
43.79000 199.000
43.80500 200.000
43.82000 207.000
43.83500 218.000
43.85000 214.000
43.86500 204.000
43.88000 194.000
43.89500 197.000
43.91000 203.000
43.92500 204.000
43.94000 204.000
43.95500 189.000
43.97000 193.000
43.98500 193.000
44.00000 178.000
44.01500 188.000
44.03000 177.000
44.04500 206.000
44.06000 198.000
44.07500 202.000
44.09000 244.000
44.10500 220.000
44.12000 191.000
44.13500 200.000
44.15000 224.000
44.16500 216.000
44.18000 201.000
44.19500 221.000
44.21000 204.000
44.22500 206.000
44.24000 217.000
44.25500 207.000
44.27000 199.000
44.28500 184.000
44.30000 198.000
44.31500 184.000
44.33000 175.000
44.34500 195.000
44.36000 202.000
44.37500 187.000
44.39000 208.000
44.40500 194.000
44.42000 191.000
44.43500 204.000
44.45000 183.000
44.46500 196.000
44.48000 189.000
44.49500 191.000
44.51000 193.000
44.52500 209.000
44.54000 198.000
44.55500 197.000
44.57000 235.000
44.58500 211.000
44.60000 213.000
44.61500 230.000
44.63000 216.000
44.64500 220.000
44.66000 207.000
44.67500 195.000
44.69000 187.000
44.70500 215.000
44.72000 209.000
44.73500 188.000
44.75000 165.000
44.76500 213.000
44.78000 220.000
44.79500 204.000
44.81000 188.000
44.82500 187.000
44.84000 181.000
44.85500 200.000
44.87000 201.000
44.88500 198.000
44.90000 200.000
44.91500 204.000
44.93000 218.000
44.94500 219.000
44.96000 211.000
44.97500 229.000
44.99000 224.000
45.00500 194.000
45.02000 194.000
45.03500 222.000
45.05000 205.000
45.06500 208.000
45.08000 215.000
45.09500 228.000
45.11000 245.000
45.12500 231.000
45.14000 207.000
45.15500 227.000
45.17000 224.000
45.18500 221.000
45.20000 217.000
45.21500 238.000
45.23000 218.000
45.24500 198.000
45.26000 208.000
45.27500 220.000
45.29000 237.000
45.30500 212.000
45.32000 211.000
45.33500 216.000
45.35000 216.000
45.36500 202.000
45.38000 225.000
45.39500 235.000
45.41000 207.000
45.42500 212.000
45.44000 218.000
45.45500 196.000
45.47000 213.000
45.48500 203.000
45.50000 208.000
45.51500 191.000
45.53000 193.000
45.54500 187.000
45.56000 175.000
45.57500 197.000
45.59000 204.000
45.60500 210.000
45.62000 201.000
45.63500 188.000
45.65000 196.000
45.66500 204.000
45.68000 210.000
45.69500 225.000
45.71000 239.000
45.72500 229.000
45.74000 201.000
45.75500 240.000
45.77000 238.000
45.78500 215.000
45.80000 241.000
45.81500 243.000
45.83000 270.000
45.84500 272.000
45.86000 264.000
45.87500 250.000
45.89000 282.000
45.90500 252.000
45.92000 275.000
45.93500 269.000
45.95000 256.000
45.96500 239.000
45.98000 198.000
45.99500 188.000
46.01000 229.000
46.02500 246.000
46.04000 223.000
46.05500 220.000
46.07000 231.000
46.08500 222.000
46.10000 214.000
46.11500 234.000
46.13000 223.000
46.14500 199.000
46.16000 191.000
46.17500 202.000
46.19000 229.000
46.20500 223.000
46.22000 211.000
46.23500 199.000
46.25000 209.000
46.26500 202.000
46.28000 214.000
46.29500 212.000
46.31000 201.000
46.32500 173.000
46.34000 191.000
46.35500 179.000
46.37000 177.000
46.38500 194.000
46.40000 196.000
46.41500 174.000
46.43000 171.000
46.44500 178.000
46.46000 196.000
46.47500 197.000
46.49000 206.000
46.50500 190.000
46.52000 175.000
46.53500 198.000
46.55000 196.000
46.56500 194.000
46.58000 187.000
46.59500 184.000
46.61000 183.000
46.62500 178.000
46.64000 172.000
46.65500 173.000
46.67000 185.000
46.68500 180.000
46.70000 170.000
46.71500 192.000
46.73000 197.000
46.74500 201.000
46.76000 189.000
46.77500 171.000
46.79000 171.000
46.80500 190.000
46.82000 186.000
46.83500 201.000
46.85000 191.000
46.86500 187.000
46.88000 188.000
46.89500 194.000
46.91000 187.000
46.92500 205.000
46.94000 197.000
46.95500 197.000
46.97000 193.000
46.98500 197.000
47.00000 211.000
47.01500 220.000
47.03000 223.000
47.04500 197.000
47.06000 220.000
47.07500 207.000
47.09000 218.000
47.10500 218.000
47.12000 223.000
47.13500 216.000
47.15000 199.000
47.16500 210.000
47.18000 194.000
47.19500 195.000
47.21000 218.000
47.22500 225.000
47.24000 209.000
47.25500 205.000
47.27000 204.000
47.28500 202.000
47.30000 192.000
47.31500 182.000
47.33000 186.000
47.34500 204.000
47.36000 200.000
47.37500 181.000
47.39000 187.000
47.40500 174.000
47.42000 175.000
47.43500 177.000
47.45000 169.000
47.46500 193.000
47.48000 187.000
47.49500 177.000
47.51000 190.000
47.52500 186.000
47.54000 179.000
47.55500 168.000
47.57000 174.000
47.58500 186.000
47.60000 159.000
47.61500 178.000
47.63000 190.000
47.64500 162.000
47.66000 179.000
47.67500 193.000
47.69000 173.000
47.70500 187.000
47.72000 189.000
47.73500 189.000
47.75000 185.000
47.76500 160.000
47.78000 163.000
47.79500 158.000
47.81000 162.000
47.82500 188.000
47.84000 190.000
47.85500 179.000
47.87000 171.000
47.88500 177.000
47.90000 178.000
47.91500 170.000
47.93000 168.000
47.94500 173.000
47.96000 172.000
47.97500 190.000
47.99000 167.000
48.00500 178.000
48.02000 186.000
48.03500 180.000
48.05000 189.000
48.06500 173.000
48.08000 172.000
48.09500 176.000
48.11000 181.000
48.12500 181.000
48.14000 186.000
48.15500 179.000
48.17000 190.000
48.18500 196.000
48.20000 177.000
48.21500 189.000
48.23000 185.000
48.24500 185.000
48.26000 188.000
48.27500 184.000
48.29000 193.000
48.30500 185.000
48.32000 195.000
48.33500 193.000
48.35000 200.000
48.36500 204.000
48.38000 193.000
48.39500 183.000
48.41000 192.000
48.42500 189.000
48.44000 199.000
48.45500 192.000
48.47000 196.000
48.48500 208.000
48.50000 201.000
48.51500 204.000
48.53000 203.000
48.54500 219.000
48.56000 187.000
48.57500 202.000
48.59000 178.000
48.60500 189.000
48.62000 184.000
48.63500 192.000
48.65000 184.000
48.66500 195.000
48.68000 203.000
48.69500 175.000
48.71000 186.000
48.72500 212.000
48.74000 222.000
48.75500 207.000
48.77000 198.000
48.78500 218.000
48.80000 218.000
48.81500 215.000
48.83000 222.000
48.84500 213.000
48.86000 208.000
48.87500 227.000
48.89000 231.000
48.90500 220.000
48.92000 223.000
48.93500 223.000
48.95000 217.000
48.96500 236.000
48.98000 199.000
48.99500 211.000
49.01000 198.000
49.02500 217.000
49.04000 216.000
49.05500 210.000
49.07000 218.000
49.08500 224.000
49.10000 229.000
49.11500 220.000
49.13000 218.000
49.14500 233.000
49.16000 212.000
49.17500 222.000
49.19000 213.000
49.20500 238.000
49.22000 223.000
49.23500 205.000
49.25000 226.000
49.26500 201.000
49.28000 196.000
49.29500 224.000
49.31000 212.000
49.32500 193.000
49.34000 210.000
49.35500 203.000
49.37000 193.000
49.38500 194.000
49.40000 206.000
49.41500 203.000
49.43000 198.000
49.44500 209.000
49.46000 204.000
49.47500 208.000
49.49000 188.000
49.50500 173.000
49.52000 212.000
49.53500 212.000
49.55000 169.000
49.56500 173.000
49.58000 191.000
49.59500 209.000
49.61000 194.000
49.62500 171.000
49.64000 159.000
49.65500 197.000
49.67000 201.000
49.68500 194.000
49.70000 198.000
49.71500 196.000
49.73000 207.000
49.74500 187.000
49.76000 172.000
49.77500 210.000
49.79000 179.000
49.80500 190.000
49.82000 207.000
49.83500 182.000
49.85000 173.000
49.86500 184.000
49.88000 171.000
49.89500 177.000
49.91000 206.000
49.92500 181.000
49.94000 178.000
49.95500 183.000
49.97000 186.000
49.98500 173.000
50.00000 159.000
50.01500 180.000
50.03000 158.000
50.04500 184.000
50.06000 182.000
50.07500 184.000
50.09000 176.000
50.10500 173.000
50.12000 185.000
50.13500 199.000
50.15000 179.000
50.16500 172.000
50.18000 183.000
50.19500 184.000
50.21000 185.000
50.22500 185.000
50.24000 176.000
50.25500 174.000
50.27000 183.000
50.28500 188.000
50.30000 193.000
50.31500 192.000
50.33000 198.000
50.34500 186.000
50.36000 177.000
50.37500 185.000
50.39000 193.000
50.40500 188.000
50.42000 179.000
50.43500 185.000
50.45000 191.000
50.46500 181.000
50.48000 168.000
50.49500 185.000
50.51000 204.000
50.52500 205.000
50.54000 186.000
50.55500 186.000
50.57000 188.000
50.58500 187.000
50.60000 197.000
50.61500 195.000
50.63000 210.000
50.64500 190.000
50.66000 205.000
50.67500 187.000
50.69000 199.000
50.70500 193.000
50.72000 185.000
50.73500 194.000
50.75000 196.000
50.76500 184.000
50.78000 195.000
50.79500 214.000
50.81000 194.000
50.82500 200.000
50.84000 184.000
50.85500 206.000
50.87000 215.000
50.88500 212.000
50.90000 205.000
50.91500 192.000
50.93000 201.000
50.94500 213.000
50.96000 217.000
50.97500 209.000
50.99000 187.000
51.00500 180.000
51.02000 201.000
51.03500 188.000
51.05000 181.000
51.06500 212.000
51.08000 232.000
51.09500 236.000
51.11000 205.000
51.12500 200.000
51.14000 182.000
51.15500 208.000
51.17000 215.000
51.18500 207.000
51.20000 205.000
51.21500 207.000
51.23000 194.000
51.24500 214.000
51.26000 213.000
51.27500 201.000
51.29000 209.000
51.30500 201.000
51.32000 199.000
51.33500 216.000
51.35000 185.000
51.36500 182.000
51.38000 200.000
51.39500 213.000
51.41000 191.000
51.42500 197.000
51.44000 185.000
51.45500 207.000
51.47000 196.000
51.48500 204.000
51.50000 186.000
51.51500 174.000
51.53000 193.000
51.54500 187.000
51.56000 184.000
51.57500 187.000
51.59000 200.000
51.60500 192.000
51.62000 189.000
51.63500 186.000
51.65000 193.000
51.66500 191.000
51.68000 195.000
51.69500 184.000
51.71000 177.000
51.72500 180.000
51.74000 200.000
51.75500 188.000
51.77000 179.000
51.78500 168.000
51.80000 184.000
51.81500 179.000
51.83000 174.000
51.84500 179.000
51.86000 184.000
51.87500 195.000
51.89000 186.000
51.90500 186.000
51.92000 172.000
51.93500 203.000
51.95000 206.000
51.96500 192.000
51.98000 167.000
51.99500 198.000
52.01000 183.000
52.02500 172.000
52.04000 185.000
52.05500 178.000
52.07000 193.000
52.08500 183.000
52.10000 189.000
52.11500 196.000
52.13000 185.000
52.14500 188.000
52.16000 188.000
52.17500 188.000
52.19000 179.000
52.20500 168.000
52.22000 186.000
52.23500 186.000
52.25000 173.000
52.26500 175.000
52.28000 182.000
52.29500 195.000
52.31000 170.000
52.32500 188.000
52.34000 186.000
52.35500 179.000
52.37000 181.000
52.38500 176.000
52.40000 169.000
52.41500 177.000
52.43000 175.000
52.44500 196.000
52.46000 192.000
52.47500 186.000
52.49000 192.000
52.50500 189.000
52.52000 172.000
52.53500 182.000
52.55000 186.000
52.56500 196.000
52.58000 203.000
52.59500 195.000
52.61000 194.000
52.62500 186.000
52.64000 168.000
52.65500 185.000
52.67000 177.000
52.68500 197.000
52.70000 186.000
52.71500 186.000
52.73000 189.000
52.74500 182.000
52.76000 195.000
52.77500 197.000
52.79000 203.000
52.80500 187.000
52.82000 194.000
52.83500 166.000
52.85000 166.000
52.86500 173.000
52.88000 192.000
52.89500 201.000
52.91000 190.000
52.92500 193.000
52.94000 185.000
52.95500 173.000
52.97000 169.000
52.98500 201.000
53.00000 186.000
53.01500 184.000
53.03000 200.000
53.04500 203.000
53.06000 193.000
53.07500 187.000
53.09000 214.000
53.10500 201.000
53.12000 199.000
53.13500 192.000
53.15000 198.000
53.16500 221.000
53.18000 214.000
53.19500 202.000
53.21000 211.000
53.22500 215.000
53.24000 214.000
53.25500 208.000
53.27000 183.000
53.28500 207.000
53.30000 218.000
53.31500 209.000
53.33000 178.000
53.34500 194.000
53.36000 196.000
53.37500 199.000
53.39000 193.000
53.40500 185.000
53.42000 193.000
53.43500 198.000
53.45000 182.000
53.46500 180.000
53.48000 208.000
53.49500 198.000
53.51000 187.000
53.52500 204.000
53.54000 184.000
53.55500 205.000
53.57000 212.000
53.58500 194.000
53.60000 193.000
53.61500 186.000
53.63000 190.000
53.64500 186.000
53.66000 168.000
53.67500 185.000
53.69000 182.000
53.70500 173.000
53.72000 181.000
53.73500 184.000
53.75000 176.000
53.76500 151.000
53.78000 159.000
53.79500 160.000
53.81000 165.000
53.82500 173.000
53.84000 182.000
53.85500 166.000
53.87000 164.000
53.88500 162.000
53.90000 170.000
53.91500 162.000
53.93000 156.000
53.94500 156.000
53.96000 165.000
53.97500 159.000
53.99000 172.000
54.00500 158.000
54.02000 143.000
54.03500 176.000
54.05000 156.000
54.06500 180.000
54.08000 168.000
54.09500 175.000
54.11000 173.000
54.12500 176.000
54.14000 138.000
54.15500 153.000
54.17000 170.000
54.18500 162.000
54.20000 161.000
54.21500 165.000
54.23000 140.000
54.24500 158.000
54.26000 163.000
54.27500 154.000
54.29000 159.000
54.30500 156.000
54.32000 157.000
54.33500 179.000
54.35000 155.000
54.36500 163.000
54.38000 166.000
54.39500 162.000
54.41000 168.000
54.42500 179.000
54.44000 167.000
54.45500 169.000
54.47000 160.000
54.48500 164.000
54.50000 161.000
54.51500 150.000
54.53000 165.000
54.54500 165.000
54.56000 151.000
54.57500 139.000
54.59000 143.000
54.60500 163.000
54.62000 183.000
54.63500 162.000
54.65000 167.000
54.66500 172.000
54.68000 139.000
54.69500 159.000
54.71000 171.000
54.72500 164.000
54.74000 154.000
54.75500 154.000
54.77000 161.000
54.78500 151.000
54.80000 148.000
54.81500 151.000
54.83000 152.000
54.84500 153.000
54.86000 156.000
54.87500 168.000
54.89000 153.000
54.90500 157.000
54.92000 178.000
54.93500 177.000
54.95000 163.000
54.96500 147.000
54.98000 153.000
54.99500 139.000
55.01000 162.000
55.02500 167.000
55.04000 180.000
55.05500 177.000
55.07000 164.000
55.08500 168.000
55.10000 176.000
55.11500 154.000
55.13000 177.000
55.14500 149.000
55.16000 167.000
55.17500 165.000
55.19000 169.000
55.20500 174.000
55.22000 172.000
55.23500 164.000
55.25000 167.000
55.26500 156.000
55.28000 176.000
55.29500 195.000
55.31000 186.000
55.32500 187.000
55.34000 183.000
55.35500 185.000
55.37000 175.000
55.38500 195.000
55.40000 190.000
55.41500 181.000
55.43000 188.000
55.44500 189.000
55.46000 199.000
55.47500 199.000
55.49000 211.000
55.50500 174.000
55.52000 195.000
55.53500 193.000
55.55000 179.000
55.56500 180.000
55.58000 215.000
55.59500 210.000
55.61000 203.000
55.62500 195.000
55.64000 205.000
55.65500 219.000
55.67000 212.000
55.68500 201.000
55.70000 203.000
55.71500 187.000
55.73000 212.000
55.74500 209.000
55.76000 204.000
55.77500 195.000
55.79000 222.000
55.80500 198.000
55.82000 225.000
55.83500 227.000
55.85000 220.000
55.86500 215.000
55.88000 208.000
55.89500 189.000
55.91000 207.000
55.92500 184.000
55.94000 179.000
55.95500 174.000
55.97000 178.000
55.98500 193.000
56.00000 204.000
56.01500 204.000
56.03000 187.000
56.04500 179.000
56.06000 182.000
56.07500 185.000
56.09000 172.000
56.10500 190.000
56.12000 209.000
56.13500 207.000
56.15000 179.000
56.16500 198.000
56.18000 187.000
56.19500 188.000
56.21000 182.000
56.22500 183.000
56.24000 188.000
56.25500 186.000
56.27000 173.000
56.28500 189.000
56.30000 180.000
56.31500 184.000
56.33000 207.000
56.34500 196.000
56.36000 178.000
56.37500 173.000
56.39000 181.000
56.40500 191.000
56.42000 177.000
56.43500 184.000
56.45000 179.000
56.46500 177.000
56.48000 186.000
56.49500 180.000
56.51000 183.000
56.52500 164.000
56.54000 182.000
56.55500 183.000
56.57000 178.000
56.58500 190.000
56.60000 189.000
56.61500 187.000
56.63000 186.000
56.64500 194.000
56.66000 188.000
56.67500 168.000
56.69000 173.000
56.70500 161.000
56.72000 185.000
56.73500 200.000
56.75000 182.000
56.76500 175.000
56.78000 181.000
56.79500 180.000
56.81000 183.000
56.82500 176.000
56.84000 175.000
56.85500 177.000
56.87000 198.000
56.88500 194.000
56.90000 204.000
56.91500 179.000
56.93000 179.000
56.94500 219.000
56.96000 192.000
56.97500 211.000
56.99000 214.000
57.00500 224.000
57.02000 197.000
57.03500 193.000
57.05000 222.000
57.06500 220.000
57.08000 227.000
57.09500 206.000
57.11000 225.000
57.12500 219.000
57.14000 245.000
57.15500 221.000
57.17000 205.000
57.18500 217.000
57.20000 213.000
57.21500 253.000
57.23000 228.000
57.24500 215.000
57.26000 236.000
57.27500 205.000
57.29000 209.000
57.30500 237.000
57.32000 215.000
57.33500 197.000
57.35000 193.000
57.36500 214.000
57.38000 201.000
57.39500 204.000
57.41000 203.000
57.42500 204.000
57.44000 184.000
57.45500 186.000
57.47000 188.000
57.48500 179.000
57.50000 150.000
57.51500 165.000
57.53000 191.000
57.54500 157.000
57.56000 176.000
57.57500 201.000
57.59000 216.000
57.60500 168.000
57.62000 174.000
57.63500 163.000
57.65000 175.000
57.66500 168.000
57.68000 170.000
57.69500 171.000
57.71000 151.000
57.72500 151.000
57.74000 172.000
57.75500 175.000
57.77000 185.000
57.78500 173.000
57.80000 164.000
57.81500 158.000
57.83000 164.000
57.84500 170.000
57.86000 160.000
57.87500 163.000
57.89000 180.000
57.90500 182.000
57.92000 173.000
57.93500 169.000
57.95000 170.000
57.96500 156.000
57.98000 164.000
57.99500 154.000
58.01000 166.000
58.02500 166.000
58.04000 173.000
58.05500 181.000
58.07000 175.000
58.08500 166.000
58.10000 167.000
58.11500 162.000
58.13000 165.000
58.14500 157.000
58.16000 159.000
58.17500 179.000
58.19000 162.000
58.20500 149.000
58.22000 170.000
58.23500 179.000
58.25000 177.000
58.26500 144.000
58.28000 150.000
58.29500 160.000
58.31000 157.000
58.32500 161.000
58.34000 169.000
58.35500 169.000
58.37000 175.000
58.38500 158.000
58.40000 158.000
58.41500 155.000
58.43000 188.000
58.44500 173.000
58.46000 176.000
58.47500 174.000
58.49000 175.000
58.50500 191.000
58.52000 179.000
58.53500 164.000
58.55000 155.000
58.56500 189.000
58.58000 173.000
58.59500 177.000
58.61000 175.000
58.62500 173.000
58.64000 188.000
58.65500 176.000
58.67000 171.000
58.68500 168.000
58.70000 164.000
58.71500 162.000
58.73000 145.000
58.74500 149.000
58.76000 168.000
58.77500 171.000
58.79000 168.000
58.80500 141.000
58.82000 159.000
58.83500 161.000
58.85000 164.000
58.86500 144.000
58.88000 144.000
58.89500 178.000
58.91000 181.000
58.92500 180.000
58.94000 163.000
58.95500 196.000
58.97000 179.000
58.98500 144.000
59.00000 160.000
59.01500 169.000
59.03000 163.000
59.04500 159.000
59.06000 149.000
59.07500 160.000
59.09000 167.000
59.10500 146.000
59.12000 156.000
59.13500 159.000
59.15000 158.000
59.16500 165.000
59.18000 159.000
59.19500 151.000
59.21000 156.000
59.22500 155.000
59.24000 159.000
59.25500 163.000
59.27000 140.000
59.28500 142.000
59.30000 140.000
59.31500 155.000
59.33000 168.000
59.34500 161.000
59.36000 164.000
59.37500 148.000
59.39000 156.000
59.40500 156.000
59.42000 143.000
59.43500 166.000
59.45000 150.000
59.46500 130.000
59.48000 136.000
59.49500 161.000
59.51000 172.000
59.52500 165.000
59.54000 168.000
59.55500 155.000
59.57000 149.000
59.58500 155.000
59.60000 147.000
59.61500 149.000
59.63000 138.000
59.64500 152.000
59.66000 144.000
59.67500 159.000
59.69000 154.000
59.70500 136.000
59.72000 131.000
59.73500 148.000
59.75000 149.000
59.76500 155.000
59.78000 138.000
59.79500 164.000
59.81000 160.000
59.82500 155.000
59.84000 167.000
59.85500 167.000
59.87000 147.000
59.88500 149.000
59.90000 144.000
59.91500 132.000
59.93000 154.000
59.94500 160.000
59.96000 160.000
59.97500 157.000
59.99000 149.000
60.00500 126.000
60.02000 133.000
60.03500 157.000
60.05000 153.000
60.06500 154.000
60.08000 144.000
60.09500 163.000
60.11000 164.000
60.12500 149.000
60.14000 133.000
60.15500 162.000
60.17000 170.000
60.18500 166.000
60.20000 152.000
60.21500 152.000
60.23000 157.000
60.24500 147.000
60.26000 144.000
60.27500 155.000
60.29000 159.000
60.30500 152.000
60.32000 139.000
60.33500 163.000
60.35000 150.000
60.36500 138.000
60.38000 160.000
60.39500 144.000
60.41000 157.000
60.42500 152.000
60.44000 170.000
60.45500 137.000
60.47000 143.000
60.48500 147.000
60.50000 144.000
60.51500 147.000
60.53000 149.000
60.54500 182.000
60.56000 165.000
60.57500 166.000
60.59000 173.000
60.60500 156.000
60.62000 164.000
60.63500 160.000
60.65000 135.000
60.66500 161.000
60.68000 149.000
60.69500 147.000
60.71000 146.000
60.72500 153.000
60.74000 144.000
60.75500 169.000
60.77000 162.000
60.78500 144.000
60.80000 163.000
60.81500 168.000
60.83000 150.000
60.84500 153.000
60.86000 148.000
60.87500 128.000
60.89000 144.000
60.90500 148.000
60.92000 138.000
60.93500 143.000
60.95000 148.000
60.96500 162.000
60.98000 153.000
60.99500 148.000
61.01000 149.000
61.02500 137.000
61.04000 163.000
61.05500 149.000
61.07000 155.000
61.08500 151.000
61.10000 148.000
61.11500 156.000
61.13000 135.000
61.14500 143.000
61.16000 160.000
61.17500 141.000
61.19000 127.000
61.20500 145.000
61.22000 142.000
61.23500 142.000
61.25000 147.000
61.26500 169.000
61.28000 137.000
61.29500 152.000
61.31000 140.000
61.32500 131.000
61.34000 150.000
61.35500 162.000
61.37000 139.000
61.38500 140.000
61.40000 135.000
61.41500 147.000
61.43000 137.000
61.44500 145.000
61.46000 121.000
61.47500 134.000
61.49000 122.000
61.50500 129.000
61.52000 118.000
61.53500 137.000
61.55000 140.000
61.56500 142.000
61.58000 137.000
61.59500 138.000
61.61000 140.000
61.62500 140.000
61.64000 139.000
61.65500 134.000
61.67000 136.000
61.68500 131.000
61.70000 138.000
61.71500 144.000
61.73000 139.000
61.74500 148.000
61.76000 149.000
61.77500 152.000
61.79000 131.000
61.80500 137.000
61.82000 128.000
61.83500 129.000
61.85000 121.000
61.86500 142.000
61.88000 145.000
61.89500 127.000
61.91000 120.000
61.92500 148.000
61.94000 153.000
61.95500 135.000
61.97000 137.000
61.98500 155.000
