2.00000;569.000
2.01500;538.000
2.03000;547.000
2.04500;518.000
2.06000;552.000
2.07500;512.000
2.09000;500.000
2.10500;469.000
2.12000;497.000
2.13500;488.000
2.15000;454.000
2.16500;452.000
2.18000;439.000
2.19500;438.000
2.21000;450.000
2.22500;433.000
2.24000;432.000
2.25500;415.000
2.27000;374.000
2.28500;386.000
2.30000;419.000
2.31500;395.000
2.33000;375.000
2.34500;374.000
2.36000;385.000
2.37500;386.000
2.39000;373.000
2.40500;371.000
2.42000;363.000
2.43500;357.000
2.45000;311.000
2.46500;325.000
2.48000;359.000
2.49500;339.000
2.51000;339.000
2.52500;328.000
2.54000;308.000
2.55500;332.000
2.57000;335.000
2.58500;297.000
2.60000;292.000
2.61500;300.000
2.63000;305.000
2.64500;290.000
2.66000;288.000
2.67500;269.000
2.69000;293.000
2.70500;275.000
2.72000;280.000
2.73500;268.000
2.75000;274.000
2.76500;292.000
2.78000;293.000
2.79500;297.000
2.81000;252.000
2.82500;277.000
2.84000;249.000
2.85500;246.000
2.87000;259.000
2.88500;259.000
2.90000;249.000
2.91500;242.000
2.93000;275.000
2.94500;262.000
2.96000;262.000
2.97500;252.000
2.99000;261.000
3.00500;236.000
3.02000;213.000
3.03500;234.000
3.05000;225.000
3.06500;234.000
3.08000;239.000
3.09500;241.000
3.11000;246.000
3.12500;222.000
3.14000;232.000
3.15500;218.000
3.17000;220.000
3.18500;231.000
3.20000;223.000
3.21500;229.000
3.23000;223.000
3.24500;192.000
3.26000;220.000
3.27500;221.000
3.29000;227.000
3.30500;229.000
3.32000;228.000
3.33500;213.000
3.35000;196.000
3.36500;197.000
3.38000;194.000
3.39500;201.000
3.41000;222.000
3.42500;206.000
3.44000;212.000
3.45500;201.000
3.47000;228.000
3.48500;217.000
3.50000;208.000
3.51500;222.000
3.53000;218.000
3.54500;213.000
3.56000;200.000
3.57500;201.000
3.59000;184.000
3.60500;203.000
3.62000;193.000
3.63500;195.000
3.65000;180.000
3.66500;193.000
3.68000;206.000
3.69500;205.000
3.71000;173.000
3.72500;175.000
3.74000;177.000
3.75500;181.000
3.77000;161.000
3.78500;189.000
3.80000;179.000
3.81500;193.000
3.83000;186.000
3.84500;202.000
3.86000;204.000
3.87500;206.000
3.89000;182.000
3.90500;179.000
3.92000;184.000
3.93500;182.000
3.95000;202.000
3.96500;195.000
3.98000;187.000
3.99500;194.000
4.01000;180.000
4.02500;178.000
4.04000;195.000
4.05500;211.000
4.07000;199.000
4.08500;197.000
4.10000;204.000
4.11500;185.000
4.13000;182.000
4.14500;183.000
4.16000;173.000
4.17500;192.000
4.19000;196.000
4.20500;186.000
4.22000;203.000
4.23500;187.000
4.25000;169.000
4.26500;197.000
4.28000;183.000
4.29500;215.000
4.31000;197.000
4.32500;179.000
4.34000;190.000
4.35500;196.000
4.37000;198.000
4.38500;207.000
4.40000;189.000
4.41500;195.000
4.43000;207.000
4.44500;176.000
4.46000;172.000
4.47500;178.000
4.49000;191.000
4.50500;185.000
4.52000;193.000
4.53500;193.000
4.55000;185.000
4.56500;169.000
4.58000;172.000
4.59500;177.000
4.61000;188.000
4.62500;177.000
4.64000;181.000
4.65500;182.000
4.67000;165.000
4.68500;179.000
4.70000;166.000
4.71500;168.000
4.73000;179.000
4.74500;171.000
4.76000;189.000
4.77500;184.000
4.79000;171.000
4.80500;178.000
4.82000;173.000
4.83500;177.000
4.85000;164.000
4.86500;185.000
4.88000;183.000
4.89500;186.000
4.91000;182.000
4.92500;189.000
4.94000;187.000
4.95500;180.000
4.97000;190.000
4.98500;182.000
5.00000;191.000
5.01500;189.000
5.03000;190.000
5.04500;192.000
5.06000;164.000
5.07500;194.000
5.09000;200.000
5.10500;193.000
5.12000;165.000
5.13500;181.000
5.15000;195.000
5.16500;189.000
5.18000;172.000
5.19500;165.000
5.21000;196.000
5.22500;197.000
5.24000;182.000
5.25500;179.000
5.27000;167.000
5.28500;192.000
5.30000;169.000
5.31500;179.000
5.33000;179.000
5.34500;162.000
5.36000;159.000
5.37500;167.000
5.39000;208.000
5.40500;203.000
5.42000;182.000
5.43500;181.000
5.45000;177.000
5.46500;156.000
5.48000;194.000
5.49500;176.000
5.51000;163.000
5.52500;170.000
5.54000;181.000
5.55500;163.000
5.57000;179.000
5.58500;193.000
5.60000;181.000
5.61500;180.000
5.63000;178.000
5.64500;189.000
5.66000;177.000
5.67500;193.000
5.69000;179.000
5.70500;187.000
5.72000;198.000
5.73500;190.000
5.75000;185.000
5.76500;194.000
5.78000;176.000
5.79500;198.000
5.81000;201.000
5.82500;195.000
5.84000;197.000
5.85500;201.000
5.87000;217.000
5.88500;215.000
5.90000;231.000
5.91500;217.000
5.93000;217.000
5.94500;216.000
5.96000;220.000
5.97500;224.000
5.99000;234.000
6.00500;243.000
6.02000;259.000
6.03500;304.000
6.05000;293.000
6.06500;324.000
6.08000;371.000
6.09500;392.000
6.11000;419.000
6.12500;458.000
6.14000;528.000
6.15500;533.000
6.17000;483.000
6.18500;418.000
6.20000;302.000
6.21500;260.000
6.23000;225.000
6.24500;206.000
6.26000;200.000
6.27500;198.000
6.29000;203.000
6.30500;190.000
6.32000;170.000
6.33500;161.000
6.35000;174.000
6.36500;176.000
6.38000;202.000
6.39500;204.000
6.41000;188.000
6.42500;169.000
6.44000;178.000
6.45500;176.000
6.47000;176.000
6.48500;192.000
6.50000;183.000
6.51500;184.000
6.53000;180.000
6.54500;193.000
6.56000;156.000
6.57500;169.000
6.59000;187.000
6.60500;192.000
6.62000;195.000
6.63500;178.000
6.65000;194.000
6.66500;188.000
6.68000;188.000
6.69500;195.000
6.71000;170.000
6.72500;199.000
6.74000;190.000
6.75500;182.000
6.77000;174.000
6.78500;183.000
6.80000;158.000
6.81500;176.000
6.83000;180.000
6.84500;192.000
6.86000;187.000
6.87500;168.000
6.89000;175.000
6.90500;174.000
6.92000;180.000
6.93500;185.000
6.95000;190.000
6.96500;176.000
6.98000;171.000
6.99500;165.000
7.01000;189.000
7.02500;197.000
7.04000;182.000
7.05500;185.000
7.07000;190.000
7.08500;194.000
7.10000;192.000
7.11500;189.000
7.13000;163.000
7.14500;164.000
7.16000;181.000
7.17500;194.000
7.19000;173.000
7.20500;173.000
7.22000;180.000
7.23500;202.000
7.25000;168.000
7.26500;187.000
7.28000;195.000
7.29500;189.000
7.31000;177.000
7.32500;186.000
7.34000;186.000
7.35500;191.000
7.37000;188.000
7.38500;186.000
7.40000;182.000
7.41500;182.000
7.43000;175.000
7.44500;167.000
7.46000;174.000
7.47500;180.000
7.49000;178.000
7.50500;169.000
7.52000;182.000
7.53500;166.000
7.55000;188.000
7.56500;177.000
7.58000;166.000
7.59500;194.000
7.61000;189.000
7.62500;182.000
7.64000;178.000
7.65500;172.000
7.67000;190.000
7.68500;192.000
7.70000;175.000
7.71500;193.000
7.73000;194.000
7.74500;176.000
7.76000;182.000
7.77500;196.000
7.79000;181.000
7.80500;190.000
7.82000;176.000
7.83500;161.000
7.85000;176.000
7.86500;174.000
7.88000;182.000
7.89500;180.000
7.91000;181.000
7.92500;161.000
7.94000;175.000
7.95500;171.000
7.97000;172.000
7.98500;193.000
8.00000;181.000
8.01500;183.000
8.03000;191.000
8.04500;189.000
8.06000;183.000
8.07500;185.000
8.09000;198.000
8.10500;161.000
8.12000;168.000
8.13500;175.000
8.15000;175.000
8.16500;182.000
8.18000;177.000
8.19500;163.000
8.21000;159.000
8.22500;190.000
8.24000;178.000
8.25500;167.000
8.27000;177.000
8.28500;175.000
8.30000;179.000
8.31500;191.000
8.33000;192.000
8.34500;175.000
8.36000;159.000
8.37500;179.000
8.39000;176.000
8.40500;168.000
8.42000;172.000
8.43500;175.000
8.45000;178.000
8.46500;177.000
8.48000;167.000
8.49500;178.000
8.51000;183.000
8.52500;173.000
8.54000;179.000
8.55500;181.000
8.57000;185.000
8.58500;194.000
8.60000;198.000
8.61500;178.000
8.63000;174.000
8.64500;170.000
8.66000;158.000
8.67500;182.000
8.69000;176.000
8.70500;185.000
8.72000;185.000
8.73500;184.000
8.75000;176.000
8.76500;178.000
8.78000;171.000
8.79500;169.000
8.81000;187.000
8.82500;177.000
8.84000;184.000
8.85500;188.000
8.87000;171.000
8.88500;195.000
8.90000;186.000
8.91500;185.000
8.93000;181.000
8.94500;163.000
8.96000;163.000
8.97500;185.000
8.99000;183.000
9.00500;187.000
9.02000;170.000
9.03500;167.000
9.05000;173.000
9.06500;179.000
9.08000;194.000
9.09500;202.000
9.11000;182.000
9.12500;184.000
9.14000;184.000
9.15500;196.000
9.17000;180.000
9.18500;180.000
9.20000;172.000
9.21500;183.000
9.23000;174.000
9.24500;170.000
9.26000;184.000
9.27500;182.000
9.29000;194.000
9.30500;192.000
9.32000;199.000
9.33500;176.000
9.35000;181.000
9.36500;176.000
9.38000;176.000
9.39500;193.000
9.41000;174.000
9.42500;191.000
9.44000;190.000
9.45500;168.000
9.47000;190.000
9.48500;190.000
9.50000;183.000
9.51500;189.000
9.53000;186.000
9.54500;180.000
9.56000;175.000
9.57500;191.000
9.59000;164.000
9.60500;171.000
9.62000;174.000
9.63500;187.000
9.65000;169.000
9.66500;176.000
9.68000;165.000
9.69500;191.000
9.71000;175.000
9.72500;166.000
9.74000;155.000
9.75500;155.000
9.77000;172.000
9.78500;172.000
9.80000;179.000
9.81500;178.000
9.83000;193.000
9.84500;199.000
9.86000;179.000
9.87500;165.000
9.89000;182.000
9.90500;192.000
9.92000;184.000
9.93500;188.000
9.95000;181.000
9.96500;185.000
9.98000;180.000
9.99500;196.000
10.01000;179.000
10.02500;183.000
10.04000;169.000
10.05500;189.000
10.07000;179.000
10.08500;193.000
10.10000;196.000
10.11500;199.000
10.13000;173.000
10.14500;164.000
10.16000;187.000
10.17500;179.000
10.19000;178.000
10.20500;185.000
10.22000;196.000
10.23500;195.000
10.25000;209.000
10.26500;197.000
10.28000;179.000
10.29500;189.000
10.31000;171.000
10.32500;188.000
10.34000;175.000
10.35500;175.000
10.37000;191.000
10.38500;170.000
10.40000;187.000
10.41500;176.000
10.43000;175.000
10.44500;197.000
10.46000;190.000
10.47500;166.000
10.49000;172.000
10.50500;172.000
10.52000;163.000
10.53500;182.000
10.55000;187.000
10.56500;174.000
10.58000;201.000
10.59500;189.000
10.61000;193.000
10.62500;185.000
10.64000;170.000
10.65500;175.000
10.67000;187.000
10.68500;198.000
10.70000;196.000
10.71500;195.000
10.73000;200.000
10.74500;187.000
10.76000;185.000
10.77500;192.000
10.79000;188.000
10.80500;183.000
10.82000;193.000
10.83500;182.000
10.85000;177.000
10.86500;182.000
10.88000;184.000
10.89500;172.000
10.91000;186.000
10.92500;203.000
10.94000;204.000
10.95500;193.000
10.97000;190.000
10.98500;180.000
11.00000;170.000
11.01500;191.000
11.03000;214.000
11.04500;207.000
11.06000;188.000
11.07500;180.000
11.09000;186.000
11.10500;190.000
11.12000;205.000
11.13500;203.000
11.15000;184.000
11.16500;214.000
11.18000;210.000
11.19500;193.000
11.21000;198.000
11.22500;176.000
11.24000;194.000
11.25500;206.000
11.27000;198.000
11.28500;195.000
11.30000;194.000
11.31500;206.000
11.33000;191.000
11.34500;192.000
11.36000;191.000
11.37500;182.000
11.39000;185.000
11.40500;200.000
11.42000;208.000
11.43500;199.000
11.45000;196.000
11.46500;177.000
11.48000;174.000
11.49500;190.000
11.51000;189.000
11.52500;199.000
11.54000;218.000
11.55500;193.000
11.57000;186.000
11.58500;193.000
11.60000;188.000
11.61500;172.000
11.63000;191.000
11.64500;178.000
11.66000;211.000
11.67500;202.000
11.69000;209.000
11.70500;186.000
11.72000;182.000
11.73500;194.000
11.75000;199.000
11.76500;212.000
11.78000;202.000
11.79500;209.000
11.81000;194.000
11.82500;204.000
11.84000;198.000
11.85500;210.000
11.87000;215.000
11.88500;203.000
11.90000;195.000
11.91500;193.000
11.93000;218.000
11.94500;234.000
11.96000;206.000
11.97500;221.000
11.99000;252.000
12.00500;248.000
12.02000;252.000
12.03500;285.000
12.05000;265.000
12.06500;267.000
12.08000;309.000
12.09500;342.000
12.11000;414.000
12.12500;451.000
12.14000;472.000
12.15500;532.000
12.17000;632.000
12.18500;703.000
12.20000;775.000
12.21500;891.000
12.23000;946.000
12.24500;1043.000
12.26000;1120.000
12.27500;1166.000
12.29000;1181.000
12.30500;1274.000
12.32000;1250.000
12.33500;1176.000
12.35000;917.000
12.36500;652.000
12.38000;503.000
12.39500;417.000
12.41000;357.000
12.42500;329.000
12.44000;302.000
12.45500;298.000
12.47000;313.000
12.48500;302.000
12.50000;294.000
12.51500;275.000
12.53000;286.000
12.54500;296.000
12.56000;285.000
12.57500;283.000
12.59000;265.000
12.60500;262.000
12.62000;283.000
12.63500;295.000
12.65000;290.000
12.66500;262.000
12.68000;272.000
12.69500;268.000
12.71000;233.000
12.72500;297.000
12.74000;267.000
12.75500;285.000
12.77000;265.000
12.78500;245.000
12.80000;246.000
12.81500;259.000
12.83000;260.000
12.84500;249.000
12.86000;247.000
12.87500;245.000
12.89000;266.000
12.90500;267.000
12.92000;257.000
12.93500;251.000
12.95000;247.000
12.96500;239.000
12.98000;264.000
12.99500;264.000
13.01000;261.000
13.02500;244.000
13.04000;226.000
13.05500;254.000
13.07000;264.000
13.08500;274.000
13.10000;241.000
13.11500;241.000
13.13000;246.000
13.14500;255.000
13.16000;251.000
13.17500;241.000
13.19000;266.000
13.20500;268.000
13.22000;266.000
13.23500;263.000
13.25000;271.000
13.26500;288.000
13.28000;294.000
13.29500;294.000
13.31000;311.000
13.32500;300.000
13.34000;311.000
13.35500;340.000
13.37000;352.000
13.38500;344.000
13.40000;366.000
13.41500;373.000
13.43000;367.000
13.44500;339.000
13.46000;313.000
13.47500;311.000
13.49000;300.000
13.50500;269.000
13.52000;241.000
13.53500;282.000
13.55000;277.000
13.56500;270.000
13.58000;258.000
13.59500;284.000
13.61000;260.000
13.62500;234.000
13.64000;279.000
13.65500;283.000
13.67000;276.000
13.68500;257.000
13.70000;247.000
13.71500;262.000
13.73000;264.000
13.74500;236.000
13.76000;226.000
13.77500;228.000
13.79000;225.000
13.80500;251.000
13.82000;235.000
13.83500;233.000
13.85000;225.000
13.86500;221.000
13.88000;231.000
13.89500;218.000
13.91000;229.000
13.92500;217.000
13.94000;233.000
13.95500;219.000
13.97000;237.000
13.98500;212.000
14.00000;224.000
14.01500;216.000
14.03000;208.000
14.04500;202.000
14.06000;222.000
14.07500;202.000
14.09000;226.000
14.10500;227.000
14.12000;223.000
14.13500;249.000
14.15000;227.000
14.16500;244.000
14.18000;213.000
14.19500;219.000
14.21000;204.000
14.22500;237.000
14.24000;228.000
14.25500;212.000
14.27000;222.000
14.28500;246.000
14.30000;227.000
14.31500;223.000
14.33000;204.000
14.34500;231.000
14.36000;228.000
14.37500;216.000
14.39000;207.000
14.40500;216.000
14.42000;206.000
14.43500;231.000
14.45000;220.000
14.46500;209.000
14.48000;220.000
14.49500;205.000
14.51000;211.000
14.52500;222.000
14.54000;223.000
14.55500;222.000
14.57000;216.000
14.58500;224.000
14.60000;227.000
14.61500;225.000
14.63000;218.000
14.64500;234.000
14.66000;227.000
14.67500;235.000
14.69000;219.000
14.70500;199.000
14.72000;208.000
14.73500;207.000
14.75000;210.000
14.76500;229.000
14.78000;216.000
14.79500;221.000
14.81000;207.000
14.82500;207.000
14.84000;225.000
14.85500;210.000
14.87000;212.000
14.88500;211.000
14.90000;209.000
14.91500;243.000
14.93000;208.000
14.94500;212.000
14.96000;240.000
14.97500;228.000
14.99000;219.000
15.00500;229.000
15.02000;213.000
15.03500;196.000
15.05000;222.000
15.06500;207.000
15.08000;196.000
15.09500;206.000
15.11000;207.000
15.12500;239.000
15.14000;216.000
15.15500;187.000
15.17000;201.000
15.18500;223.000
15.20000;222.000
15.21500;217.000
15.23000;193.000
15.24500;191.000
15.26000;203.000
15.27500;199.000
15.29000;230.000
15.30500;223.000
15.32000;210.000
15.33500;207.000
15.35000;233.000
15.36500;197.000
15.38000;188.000
15.39500;218.000
15.41000;218.000
15.42500;204.000
15.44000;195.000
15.45500;206.000
15.47000;204.000
15.48500;197.000
15.50000;220.000
15.51500;213.000
15.53000;185.000
15.54500;197.000
15.56000;210.000
15.57500;224.000
15.59000;216.000
15.60500;213.000
15.62000;204.000
15.63500;228.000
15.65000;222.000
15.66500;220.000
15.68000;200.000
15.69500;216.000
15.71000;223.000
15.72500;224.000
15.74000;205.000
15.75500;196.000
15.77000;200.000
15.78500;220.000
15.80000;216.000
15.81500;211.000
15.83000;211.000
15.84500;203.000
15.86000;227.000
15.87500;209.000
15.89000;192.000
15.90500;217.000
15.92000;208.000
15.93500;220.000
15.95000;209.000
15.96500;229.000
15.98000;223.000
15.99500;206.000
16.01000;199.000
16.02500;227.000
16.04000;196.000
16.05500;214.000
16.07000;201.000
16.08500;218.000
16.10000;234.000
16.11500;248.000
16.13000;224.000
16.14500;208.000
16.16000;198.000
16.17500;211.000
16.19000;235.000
16.20500;229.000
16.22000;223.000
16.23500;236.000
16.25000;235.000
16.26500;246.000
16.28000;218.000
16.29500;234.000
16.31000;247.000
16.32500;245.000
16.34000;245.000
16.35500;241.000
16.37000;259.000
16.38500;258.000
16.40000;242.000
16.41500;240.000
16.43000;252.000
16.44500;244.000
16.46000;235.000
16.47500;234.000
16.49000;259.000
16.50500;242.000
16.52000;231.000
16.53500;237.000
16.55000;245.000
16.56500;223.000
16.58000;220.000
16.59500;250.000
16.61000;206.000
16.62500;204.000
16.64000;199.000
16.65500;190.000
16.67000;224.000
16.68500;205.000
16.70000;204.000
16.71500;236.000
16.73000;228.000
16.74500;214.000
16.76000;218.000
16.77500;240.000
16.79000;234.000
16.80500;220.000
16.82000;234.000
16.83500;242.000
16.85000;256.000
16.86500;231.000
16.88000;229.000
16.89500;228.000
16.91000;223.000
16.92500;239.000
16.94000;235.000
16.95500;234.000
16.97000;231.000
16.98500;223.000
17.00000;213.000
17.01500;229.000
17.03000;239.000
17.04500;220.000
17.06000;225.000
17.07500;229.000
17.09000;220.000
17.10500;223.000
17.12000;222.000
17.13500;208.000
17.15000;232.000
17.16500;237.000
17.18000;247.000
17.19500;248.000
17.21000;219.000
17.22500;220.000
17.24000;231.000
17.25500;227.000
17.27000;213.000
17.28500;226.000
17.30000;234.000
17.31500;225.000
17.33000;209.000
17.34500;225.000
17.36000;240.000
17.37500;232.000
17.39000;198.000
17.40500;218.000
17.42000;233.000
17.43500;248.000
17.45000;238.000
17.46500;220.000
17.48000;209.000
17.49500;215.000
17.51000;232.000
17.52500;226.000
17.54000;204.000
17.55500;225.000
17.57000;238.000
17.58500;230.000
17.60000;239.000
17.61500;245.000
17.63000;231.000
17.64500;222.000
17.66000;247.000
17.67500;238.000
17.69000;237.000
17.70500;236.000
17.72000;233.000
17.73500;248.000
17.75000;221.000
17.76500;233.000
17.78000;237.000
17.79500;234.000
17.81000;242.000
17.82500;227.000
17.84000;234.000
17.85500;231.000
17.87000;235.000
17.88500;212.000
17.90000;230.000
17.91500;242.000
17.93000;234.000
17.94500;233.000
17.96000;237.000
17.97500;241.000
17.99000;249.000
18.00500;274.000
18.02000;258.000
18.03500;282.000
18.05000;253.000
18.06500;260.000
18.08000;264.000
18.09500;241.000
18.11000;262.000
18.12500;287.000
18.14000;256.000
18.15500;245.000
18.17000;239.000
18.18500;268.000
18.20000;240.000
18.21500;236.000
18.23000;244.000
18.24500;229.000
18.26000;239.000
18.27500;263.000
18.29000;260.000
18.30500;262.000
18.32000;234.000
18.33500;240.000
18.35000;253.000
18.36500;260.000
18.38000;238.000
18.39500;220.000
18.41000;224.000
18.42500;258.000
18.44000;261.000
18.45500;248.000
18.47000;264.000
18.48500;253.000
18.50000;272.000
18.51500;272.000
18.53000;262.000
18.54500;260.000
18.56000;263.000
18.57500;254.000
18.59000;238.000
18.60500;245.000
18.62000;246.000
18.63500;209.000
18.65000;231.000
18.66500;240.000
18.68000;257.000
18.69500;243.000
18.71000;244.000
18.72500;266.000
18.74000;250.000
18.75500;240.000
18.77000;243.000
18.78500;263.000
18.80000;261.000
18.81500;244.000
18.83000;270.000
18.84500;244.000
18.86000;251.000
18.87500;251.000
18.89000;267.000
18.90500;268.000
18.92000;242.000
18.93500;255.000
18.95000;248.000
18.96500;241.000
18.98000;233.000
18.99500;230.000
19.01000;228.000
19.02500;229.000
19.04000;249.000
19.05500;253.000
19.07000;249.000
19.08500;249.000
19.10000;243.000
19.11500;281.000
19.13000;253.000
19.14500;240.000
19.16000;242.000
19.17500;221.000
19.19000;248.000
19.20500;216.000
19.22000;237.000
19.23500;273.000
19.25000;262.000
19.26500;251.000
19.28000;223.000
19.29500;262.000
19.31000;279.000
19.32500;271.000
19.34000;262.000
19.35500;246.000
19.37000;259.000
19.38500;281.000
19.40000;274.000
19.41500;313.000
19.43000;315.000
19.44500;304.000
19.46000;290.000
19.47500;290.000
19.49000;303.000
19.50500;310.000
19.52000;319.000
19.53500;283.000
19.55000;295.000
19.56500;294.000
19.58000;277.000
19.59500;284.000
19.61000;300.000
19.62500;298.000
19.64000;294.000
19.65500;302.000
19.67000;295.000
19.68500;251.000
19.70000;280.000
19.71500;282.000
19.73000;251.000
19.74500;232.000
19.76000;246.000
19.77500;249.000
19.79000;239.000
19.80500;242.000
19.82000;268.000
19.83500;234.000
19.85000;248.000
19.86500;258.000
19.88000;254.000
19.89500;254.000
19.91000;248.000
19.92500;259.000
19.94000;243.000
19.95500;249.000
19.97000;242.000
19.98500;247.000
20.00000;260.000
20.01500;263.000
20.03000;259.000
20.04500;238.000
20.06000;257.000
20.07500;246.000
20.09000;240.000
20.10500;239.000
20.12000;231.000
20.13500;254.000
20.15000;247.000
20.16500;230.000
20.18000;258.000
20.19500;247.000
20.21000;259.000
20.22500;264.000
20.24000;264.000
20.25500;256.000
20.27000;263.000
20.28500;223.000
20.30000;231.000
20.31500;253.000
20.33000;245.000
20.34500;248.000
20.36000;244.000
20.37500;229.000
20.39000;265.000
20.40500;268.000
20.42000;253.000
20.43500;231.000
20.45000;240.000
20.46500;259.000
20.48000;242.000
20.49500;249.000
20.51000;268.000
20.52500;251.000
20.54000;231.000
20.55500;240.000
20.57000;223.000
20.58500;236.000
20.60000;258.000
20.61500;248.000
20.63000;265.000
20.64500;242.000
20.66000;254.000
20.67500;265.000
20.69000;265.000
20.70500;233.000
20.72000;245.000
20.73500;241.000
20.75000;262.000
20.76500;246.000
20.78000;250.000
20.79500;246.000
20.81000;241.000
20.82500;258.000
20.84000;249.000
20.85500;251.000
20.87000;264.000
20.88500;271.000
20.90000;264.000
20.91500;273.000
20.93000;279.000
20.94500;243.000
20.96000;234.000
20.97500;244.000
20.99000;215.000
21.00500;236.000
21.02000;251.000
21.03500;266.000
21.05000;240.000
21.06500;241.000
21.08000;238.000
21.09500;255.000
21.11000;269.000
21.12500;261.000
21.14000;256.000
21.15500;258.000
21.17000;265.000
21.18500;244.000
21.20000;254.000
21.21500;260.000
21.23000;257.000
21.24500;270.000
21.26000;260.000
21.27500;253.000
21.29000;267.000
21.30500;259.000
21.32000;251.000
21.33500;245.000
21.35000;249.000
21.36500;273.000
21.38000;273.000
21.39500;281.000
21.41000;274.000
21.42500;276.000
21.44000;280.000
21.45500;268.000
21.47000;262.000
21.48500;245.000
21.50000;259.000
21.51500;253.000
21.53000;291.000
21.54500;277.000
21.56000;281.000
21.57500;282.000
21.59000;299.000
21.60500;280.000
21.62000;301.000
21.63500;271.000
21.65000;289.000
21.66500;295.000
21.68000;297.000
21.69500;278.000
21.71000;258.000
21.72500;292.000
21.74000;270.000
21.75500;275.000
21.77000;282.000
21.78500;267.000
21.80000;280.000
21.81500;281.000
21.83000;279.000
21.84500;266.000
21.86000;281.000
21.87500;267.000
21.89000;270.000
21.90500;277.000
21.92000;281.000
21.93500;273.000
21.95000;265.000
21.96500;275.000
21.98000;274.000
21.99500;258.000
22.01000;291.000
22.02500;292.000
22.04000;267.000
22.05500;287.000
22.07000;302.000
22.08500;295.000
22.10000;280.000
22.11500;317.000
22.13000;321.000
22.14500;291.000
22.16000;276.000
22.17500;263.000
22.19000;298.000
22.20500;301.000
22.22000;291.000
22.23500;262.000
22.25000;262.000
22.26500;273.000
22.28000;278.000
22.29500;270.000
22.31000;283.000
22.32500;299.000
22.34000;280.000
22.35500;268.000
22.37000;301.000
22.38500;296.000
22.40000;261.000
22.41500;259.000
22.43000;276.000
22.44500;268.000
22.46000;265.000
22.47500;268.000
22.49000;285.000
22.50500;273.000
22.52000;257.000
22.53500;268.000
22.55000;261.000
22.56500;263.000
22.58000;269.000
22.59500;260.000
22.61000;272.000
22.62500;274.000
22.64000;264.000
22.65500;266.000
22.67000;260.000
22.68500;285.000
22.70000;248.000
22.71500;264.000
22.73000;266.000
22.74500;262.000
22.76000;271.000
22.77500;244.000
22.79000;242.000
22.80500;263.000
22.82000;258.000
22.83500;274.000
22.85000;262.000
22.86500;261.000
22.88000;275.000
22.89500;258.000
22.91000;260.000
22.92500;259.000
22.94000;272.000
22.95500;272.000
22.97000;265.000
22.98500;270.000
23.00000;255.000
23.01500;267.000
23.03000;276.000
23.04500;256.000
23.06000;262.000
23.07500;269.000
23.09000;281.000
23.10500;268.000
23.12000;290.000
23.13500;319.000
23.15000;297.000
23.16500;281.000
23.18000;283.000
23.19500;293.000
23.21000;271.000
23.22500;295.000
23.24000;262.000
23.25500;287.000
23.27000;309.000
23.28500;283.000
23.30000;276.000
23.31500;293.000
23.33000;313.000
23.34500;274.000
23.36000;279.000
23.37500;282.000
23.39000;287.000
23.40500;275.000
23.42000;284.000
23.43500;318.000
23.45000;308.000
23.46500;262.000
23.48000;293.000
23.49500;301.000
23.51000;300.000
23.52500;286.000
23.54000;282.000
23.55500;284.000
23.57000;294.000
23.58500;312.000
23.60000;290.000
23.61500;318.000
23.63000;300.000
23.64500;309.000
23.66000;289.000
23.67500;291.000
23.69000;277.000
23.70500;293.000
23.72000;301.000
23.73500;296.000
23.75000;276.000
23.76500;275.000
23.78000;280.000
23.79500;299.000
23.81000;277.000
23.82500;270.000
23.84000;285.000
23.85500;299.000
23.87000;291.000
23.88500;292.000
23.90000;303.000
23.91500;285.000
23.93000;286.000
23.94500;282.000
23.96000;287.000
23.97500;267.000
23.99000;268.000
24.00500;267.000
24.02000;250.000
24.03500;245.000
24.05000;256.000
24.06500;271.000
24.08000;253.000
24.09500;272.000
24.11000;274.000
24.12500;271.000
24.14000;273.000
24.15500;296.000
24.17000;293.000
24.18500;265.000
24.20000;275.000
24.21500;290.000
24.23000;296.000
24.24500;269.000
24.26000;274.000
24.27500;260.000
24.29000;244.000
24.30500;279.000
24.32000;285.000
24.33500;276.000
24.35000;288.000
24.36500;294.000
24.38000;290.000
24.39500;278.000
24.41000;255.000
24.42500;276.000
24.44000;285.000
24.45500;290.000
24.47000;278.000
24.48500;266.000
24.50000;294.000
24.51500;271.000
24.53000;252.000
24.54500;306.000
24.56000;278.000
24.57500;264.000
24.59000;262.000
24.60500;281.000
24.62000;294.000
24.63500;287.000
24.65000;281.000
24.66500;323.000
24.68000;289.000
24.69500;308.000
24.71000;313.000
24.72500;334.000
24.74000;337.000
24.75500;337.000
24.77000;348.000
24.78500;369.000
24.80000;336.000
24.81500;325.000
24.83000;305.000
24.84500;306.000
24.86000;298.000
24.87500;286.000
24.89000;307.000
24.90500;275.000
24.92000;272.000
24.93500;295.000
24.95000;288.000
24.96500;294.000
24.98000;299.000
24.99500;273.000
25.01000;285.000
25.02500;279.000
25.04000;286.000
25.05500;262.000
25.07000;298.000
25.08500;299.000
25.10000;285.000
25.11500;295.000
25.13000;315.000
25.14500;329.000
25.16000;311.000
25.17500;323.000
25.19000;312.000
25.20500;322.000
25.22000;326.000
25.23500;327.000
25.25000;308.000
25.26500;326.000
25.28000;327.000
25.29500;344.000
25.31000;328.000
25.32500;320.000
25.34000;326.000
25.35500;330.000
25.37000;300.000
25.38500;285.000
25.40000;298.000
25.41500;302.000
25.43000;323.000
25.44500;326.000
25.46000;332.000
25.47500;324.000
25.49000;323.000
25.50500;318.000
25.52000;327.000
25.53500;336.000
25.55000;322.000
25.56500;309.000
25.58000;334.000
25.59500;341.000
25.61000;356.000
25.62500;351.000
25.64000;352.000
25.65500;387.000
25.67000;379.000
25.68500;396.000
25.70000;400.000
25.71500;388.000
25.73000;431.000
25.74500;450.000
25.76000;471.000
25.77500;487.000
25.79000;462.000
25.80500;459.000
25.82000;463.000
25.83500;458.000
25.85000;455.000
25.86500;444.000
25.88000;417.000
25.89500;395.000
25.91000;382.000
25.92500;383.000
25.94000;382.000
25.95500;384.000
25.97000;377.000
25.98500;355.000
26.00000;345.000
26.01500;369.000
26.03000;348.000
26.04500;360.000
26.06000;394.000
26.07500;362.000
26.09000;372.000
26.10500;340.000
26.12000;351.000
26.13500;361.000
26.15000;400.000
26.16500;402.000
26.18000;398.000
26.19500;432.000
26.21000;443.000
26.22500;439.000
26.24000;452.000
26.25500;477.000
26.27000;473.000
26.28500;504.000
26.30000;550.000
26.31500;551.000
26.33000;589.000
26.34500;571.000
26.36000;514.000
26.37500;525.000
26.39000;517.000
26.40500;524.000
26.42000;532.000
26.43500;511.000
26.45000;483.000
26.46500;474.000
26.48000;454.000
26.49500;482.000
26.51000;468.000
26.52500;448.000
26.54000;468.000
26.55500;481.000
26.57000;460.000
26.58500;494.000
26.60000;491.000
26.61500;484.000
26.63000;495.000
26.64500;496.000
26.66000;496.000
26.67500;537.000
26.69000;537.000
26.70500;516.000
26.72000;553.000
26.73500;568.000
26.75000;565.000
26.76500;545.000
26.78000;556.000
26.79500;599.000
26.81000;571.000
26.82500;581.000
26.84000;576.000
26.85500;562.000
26.87000;537.000
26.88500;521.000
26.90000;549.000
26.91500;555.000
26.93000;559.000
26.94500;561.000
26.96000;537.000
26.97500;587.000
26.99000;599.000
27.00500;601.000
27.02000;632.000
27.03500;624.000
27.05000;649.000
27.06500;655.000
27.08000;716.000
27.09500;711.000
27.11000;705.000
27.12500;704.000
27.14000;744.000
27.15500;738.000
27.17000;732.000
27.18500;710.000
27.20000;727.000
27.21500;702.000
27.23000;668.000
27.24500;684.000
27.26000;680.000
27.27500;673.000
27.29000;670.000
27.30500;643.000
27.32000;674.000
27.33500;700.000
27.35000;670.000
27.36500;664.000
27.38000;662.000
27.39500;654.000
27.41000;700.000
27.42500;683.000
27.44000;681.000
27.45500;677.000
27.47000;701.000
27.48500;685.000
27.50000;648.000
27.51500;698.000
27.53000;709.000
27.54500;697.000
27.56000;673.000
27.57500;706.000
27.59000;735.000
27.60500;731.000
27.62000;717.000
27.63500;701.000
27.65000;776.000
27.66500;751.000
27.68000;749.000
27.69500;747.000
27.71000;763.000
27.72500;742.000
27.74000;777.000
27.75500;794.000
27.77000;814.000
27.78500;839.000
27.80000;894.000
27.81500;886.000
27.83000;845.000
27.84500;784.000
27.86000;725.000
27.87500;696.000
27.89000;691.000
27.90500;672.000
27.92000;662.000
27.93500;591.000
27.95000;552.000
27.96500;565.000
27.98000;539.000
27.99500;544.000
28.01000;486.000
28.02500;454.000
28.04000;510.000
28.05500;452.000
28.07000;456.000
28.08500;472.000
28.10000;430.000
28.11500;400.000
28.13000;438.000
28.14500;418.000
28.16000;398.000
28.17500;387.000
28.19000;407.000
28.20500;357.000
28.22000;404.000
28.23500;392.000
28.25000;379.000
28.26500;360.000
28.28000;380.000
28.29500;373.000
28.31000;343.000
28.32500;316.000
28.34000;357.000
28.35500;352.000
28.37000;371.000
28.38500;372.000
28.40000;334.000
28.41500;317.000
28.43000;315.000
28.44500;339.000
28.46000;319.000
28.47500;315.000
28.49000;335.000
28.50500;312.000
28.52000;323.000
28.53500;309.000
28.55000;294.000
28.56500;310.000
28.58000;294.000
28.59500;292.000
28.61000;306.000
28.62500;280.000
28.64000;284.000
28.65500;282.000
28.67000;302.000
28.68500;294.000
28.70000;287.000
28.71500;292.000
28.73000;285.000
28.74500;299.000
28.76000;297.000
28.77500;294.000
28.79000;282.000
28.80500;278.000
28.82000;295.000
28.83500;274.000
28.85000;279.000
28.86500;294.000
28.88000;272.000
28.89500;265.000
28.91000;268.000
28.92500;277.000
28.94000;265.000
28.95500;283.000
28.97000;282.000
28.98500;269.000
29.00000;260.000
29.01500;287.000
29.03000;283.000
29.04500;293.000
29.06000;253.000
29.07500;257.000
29.09000;261.000
29.10500;253.000
29.12000;291.000
29.13500;252.000
29.15000;269.000
29.16500;271.000
29.18000;232.000
29.19500;257.000
29.21000;276.000
29.22500;270.000
29.24000;268.000
29.25500;274.000
29.27000;265.000
29.28500;264.000
29.30000;263.000
29.31500;262.000
29.33000;256.000
29.34500;232.000
29.36000;235.000
29.37500;253.000
29.39000;242.000
29.40500;259.000
29.42000;257.000
29.43500;248.000
29.45000;243.000
29.46500;248.000
29.48000;267.000
29.49500;267.000
29.51000;233.000
29.52500;245.000
29.54000;242.000
29.55500;229.000
29.57000;253.000
29.58500;262.000
29.60000;252.000
29.61500;238.000
29.63000;239.000
29.64500;241.000
29.66000;227.000
29.67500;233.000
29.69000;233.000
29.70500;240.000
29.72000;220.000
29.73500;238.000
29.75000;245.000
29.76500;228.000
29.78000;226.000
29.79500;240.000
29.81000;234.000
29.82500;240.000
29.84000;236.000
29.85500;224.000
29.87000;224.000
29.88500;238.000
29.90000;244.000
29.91500;233.000
29.93000;248.000
29.94500;226.000
29.96000;248.000
29.97500;252.000
29.99000;255.000
30.00500;276.000
30.02000;280.000
30.03500;278.000
30.05000;258.000
30.06500;239.000
30.08000;265.000
30.09500;264.000
30.11000;275.000
30.12500;271.000
30.14000;239.000
30.15500;241.000
30.17000;229.000
30.18500;233.000
30.20000;238.000
30.21500;254.000
30.23000;248.000
30.24500;236.000
30.26000;242.000
30.27500;231.000
30.29000;237.000
30.30500;265.000
30.32000;240.000
30.33500;246.000
30.35000;236.000
30.36500;258.000
30.38000;219.000
30.39500;206.000
30.41000;208.000
30.42500;223.000
30.44000;229.000
30.45500;233.000
30.47000;214.000
30.48500;217.000
30.50000;229.000
30.51500;227.000
30.53000;207.000
30.54500;244.000
30.56000;228.000
30.57500;229.000
30.59000;227.000
30.60500;244.000
30.62000;229.000
30.63500;228.000
30.65000;229.000
30.66500;235.000
30.68000;244.000
30.69500;244.000
30.71000;245.000
30.72500;231.000
30.74000;269.000
30.75500;245.000
30.77000;245.000
30.78500;260.000
30.80000;239.000
30.81500;242.000
30.83000;244.000
30.84500;261.000
30.86000;246.000
30.87500;221.000
30.89000;225.000
30.90500;244.000
30.92000;251.000
30.93500;230.000
30.95000;220.000
30.96500;253.000
30.98000;235.000
30.99500;250.000
31.01000;258.000
31.02500;227.000
31.04000;275.000
31.05500;277.000
31.07000;297.000
31.08500;319.000
31.10000;312.000
31.11500;317.000
31.13000;293.000
31.14500;277.000
31.16000;274.000
31.17500;247.000
31.19000;245.000
31.20500;224.000
31.22000;244.000
31.23500;224.000
31.25000;223.000
31.26500;208.000
31.28000;222.000
31.29500;209.000
31.31000;201.000
31.32500;190.000
31.34000;192.000
31.35500;205.000
31.37000;214.000
31.38500;221.000
31.40000;205.000
31.41500;182.000
31.43000;185.000
31.44500;220.000
31.46000;219.000
31.47500;213.000
31.49000;219.000
31.50500;206.000
31.52000;195.000
31.53500;198.000
31.55000;214.000
31.56500;202.000
31.58000;198.000
31.59500;192.000
31.61000;219.000
31.62500;197.000
31.64000;199.000
31.65500;216.000
31.67000;208.000
31.68500;211.000
31.70000;211.000
31.71500;199.000
31.73000;208.000
31.74500;223.000
31.76000;204.000
31.77500;187.000
31.79000;187.000
31.80500;201.000
31.82000;187.000
31.83500;188.000
31.85000;198.000
31.86500;196.000
31.88000;190.000
31.89500;202.000
31.91000;200.000
31.92500;194.000
31.94000;192.000
31.95500;177.000
31.97000;205.000
31.98500;194.000
32.00000;190.000
32.01500;190.000
32.03000;190.000
32.04500;184.000
32.06000;201.000
32.07500;198.000
32.09000;193.000
32.10500;192.000
32.12000;195.000
32.13500;207.000
32.15000;205.000
32.16500;212.000
32.18000;197.000
32.19500;194.000
32.21000;185.000
32.22500;200.000
32.24000;166.000
32.25500;195.000
32.27000;188.000
32.28500;179.000
32.30000;172.000
32.31500;178.000
32.33000;192.000
32.34500;207.000
32.36000;177.000
32.37500;162.000
32.39000;173.000
32.40500;170.000
32.42000;185.000
32.43500;184.000
32.45000;176.000
32.46500;169.000
32.48000;169.000
32.49500;194.000
32.51000;166.000
32.52500;184.000
32.54000;175.000
32.55500;183.000
32.57000;189.000
32.58500;181.000
32.60000;190.000
32.61500;192.000
32.63000;199.000
32.64500;172.000
32.66000;181.000
32.67500;184.000
32.69000;186.000
32.70500;173.000
32.72000;183.000
32.73500;182.000
32.75000;180.000
32.76500;168.000
32.78000;171.000
32.79500;166.000
32.81000;170.000
32.82500;173.000
32.84000;158.000
32.85500;174.000
32.87000;170.000
32.88500;182.000
32.90000;172.000
32.91500;172.000
32.93000;162.000
32.94500;157.000
32.96000;167.000
32.97500;167.000
32.99000;163.000
33.00500;183.000
33.02000;177.000
33.03500;170.000
33.05000;161.000
33.06500;160.000
33.08000;188.000
33.09500;175.000
33.11000;163.000
33.12500;156.000
33.14000;163.000
33.15500;184.000
33.17000;173.000
33.18500;164.000
33.20000;166.000
33.21500;165.000
33.23000;178.000
33.24500;169.000
33.26000;163.000
33.27500;168.000
33.29000;162.000
33.30500;147.000
33.32000;178.000
33.33500;164.000
33.35000;168.000
33.36500;156.000
33.38000;158.000
33.39500;149.000
33.41000;160.000
33.42500;157.000
33.44000;159.000
33.45500;159.000
33.47000;166.000
33.48500;161.000
33.50000;150.000
33.51500;179.000
33.53000;183.000
33.54500;166.000
33.56000;157.000
33.57500;161.000
33.59000;168.000
33.60500;169.000
33.62000;150.000
33.63500;166.000
33.65000;171.000
33.66500;173.000
33.68000;182.000
33.69500;162.000
33.71000;173.000
33.72500;177.000
33.74000;160.000
33.75500;161.000
33.77000;175.000
33.78500;183.000
33.80000;175.000
33.81500;174.000
33.83000;164.000
33.84500;177.000
33.86000;184.000
33.87500;176.000
33.89000;156.000
33.90500;190.000
33.92000;181.000
33.93500;154.000
33.95000;178.000
33.96500;192.000
33.98000;179.000
33.99500;175.000
34.01000;165.000
34.02500;171.000
34.04000;170.000
34.05500;160.000
34.07000;168.000
34.08500;157.000
34.10000;159.000
34.11500;167.000
34.13000;164.000
34.14500;161.000
34.16000;155.000
34.17500;161.000
34.19000;169.000
34.20500;168.000
34.22000;171.000
34.23500;166.000
34.25000;160.000
34.26500;152.000
34.28000;140.000
34.29500;152.000
34.31000;157.000
34.32500;173.000
34.34000;157.000
34.35500;136.000
34.37000;147.000
34.38500;156.000
34.40000;153.000
34.41500;149.000
34.43000;152.000
34.44500;154.000
34.46000;142.000
34.47500;147.000
34.49000;150.000
34.50500;145.000
34.52000;159.000
34.53500;152.000
34.55000;158.000
34.56500;170.000
34.58000;157.000
34.59500;183.000
34.61000;156.000
34.62500;149.000
34.64000;150.000
34.65500;157.000
34.67000;156.000
34.68500;159.000
34.70000;149.000
34.71500;129.000
34.73000;142.000
34.74500;148.000
34.76000;150.000
34.77500;145.000
34.79000;158.000
34.80500;133.000
34.82000;157.000
34.83500;135.000
34.85000;148.000
34.86500;162.000
34.88000;163.000
34.89500;157.000
34.91000;165.000
34.92500;143.000
34.94000;155.000
34.95500;150.000
34.97000;172.000
34.98500;152.000
35.00000;139.000
35.01500;166.000
35.03000;153.000
35.04500;135.000
35.06000;137.000
35.07500;140.000
35.09000;127.000
35.10500;140.000
35.12000;151.000
35.13500;144.000
35.15000;152.000
35.16500;169.000
35.18000;150.000
35.19500;134.000
35.21000;118.000
35.22500;142.000
35.24000;141.000
35.25500;149.000
35.27000;123.000
35.28500;128.000
35.30000;158.000
35.31500;149.000
35.33000;128.000
35.34500;143.000
35.36000;154.000
35.37500;142.000
35.39000;134.000
35.40500;141.000
35.42000;141.000
35.43500;153.000
35.45000;147.000
35.46500;122.000
35.48000;151.000
35.49500;147.000
35.51000;131.000
35.52500;149.000
35.54000;143.000
35.55500;131.000
35.57000;123.000
35.58500;129.000
35.60000;135.000
35.61500;155.000
35.63000;141.000
35.64500;136.000
35.66000;139.000
35.67500;154.000
35.69000;125.000
35.70500;118.000
35.72000;125.000
35.73500;140.000
35.75000;125.000
35.76500;114.000
35.78000;127.000
35.79500;131.000
35.81000;149.000
35.82500;147.000
35.84000;132.000
35.85500;124.000
35.87000;135.000
35.88500;131.000
35.90000;122.000
35.91500;131.000
35.93000;133.000
35.94500;144.000
35.96000;125.000
35.97500;142.000
35.99000;133.000
36.00500;120.000
36.02000;121.000
36.03500;126.000
36.05000;122.000
36.06500;129.000
36.08000;123.000
36.09500;129.000
36.11000;128.000
36.12500;146.000
36.14000;125.000
36.15500;131.000
36.17000;120.000
36.18500;117.000
36.20000;123.000
36.21500;137.000
36.23000;134.000
36.24500;131.000
36.26000;146.000
36.27500;139.000
36.29000;140.000
36.30500;120.000
36.32000;123.000
36.33500;108.000
36.35000;144.000
36.36500;134.000
36.38000;132.000
36.39500;133.000
36.41000;120.000
36.42500;130.000
36.44000;128.000
36.45500;136.000
36.47000;119.000
36.48500;107.000
36.50000;136.000
36.51500;133.000
36.53000;124.000
36.54500;123.000
36.56000;132.000
36.57500;141.000
36.59000;128.000
36.60500;124.000
36.62000;126.000
36.63500;123.000
36.65000;103.000
36.66500;130.000
36.68000;138.000
36.69500;134.000
36.71000;132.000
36.72500;111.000
36.74000;135.000
36.75500;141.000
36.77000;122.000
36.78500;116.000
36.80000;124.000
36.81500;132.000
36.83000;135.000
36.84500;102.000
36.86000;115.000
36.87500;117.000
36.89000;112.000
36.90500;125.000
36.92000;139.000
36.93500;130.000
36.95000;127.000
36.96500;132.000
36.98000;139.000
36.99500;126.000
37.01000;132.000
37.02500;132.000
37.04000;124.000
37.05500;127.000
37.07000;129.000
37.08500;103.000
37.10000;117.000
37.11500;113.000
37.13000;120.000
37.14500;133.000
37.16000;126.000
37.17500;121.000
37.19000;129.000
37.20500;116.000
37.22000;131.000
37.23500;128.000
37.25000;103.000
37.26500;123.000
37.28000;120.000
37.29500;105.000
37.31000;124.000
37.32500;135.000
37.34000;136.000
37.35500;125.000
37.37000;116.000
37.38500;129.000
37.40000;117.000
37.41500;126.000
37.43000;127.000
37.44500;111.000
37.46000;128.000
37.47500;116.000
37.49000;120.000
37.50500;138.000
37.52000;122.000
37.53500;140.000
37.55000;134.000
37.56500;127.000
37.58000;127.000
37.59500;127.000
37.61000;140.000
37.62500;123.000
37.64000;123.000
37.65500;116.000
37.67000;112.000
37.68500;134.000
37.70000;121.000
37.71500;128.000
37.73000;132.000
37.74500;129.000
37.76000;119.000
37.77500;122.000
37.79000;121.000
37.80500;137.000
37.82000;113.000
37.83500;110.000
37.85000;127.000
37.86500;102.000
37.88000;123.000
37.89500;134.000
37.91000;117.000
37.92500;114.000
37.94000;114.000
37.95500;136.000
37.97000;123.000
37.98500;129.000
38.00000;131.000
38.01500;117.000
38.03000;125.000
38.04500;120.000
38.06000;123.000
38.07500;109.000
38.09000;126.000
38.10500;135.000
38.12000;125.000
38.13500;116.000
38.15000;119.000
38.16500;122.000
38.18000;125.000
38.19500;112.000
38.21000;121.000
38.22500;124.000
38.24000;117.000
38.25500;116.000
38.27000;122.000
38.28500;116.000
38.30000;103.000
38.31500;112.000
38.33000;111.000
38.34500;114.000
38.36000;111.000
38.37500;117.000
38.39000;135.000
38.40500;131.000
38.42000;124.000
38.43500;124.000
38.45000;122.000
38.46500;125.000
38.48000;107.000
38.49500;114.000
38.51000;127.000
38.52500;108.000
38.54000;136.000
38.55500;113.000
38.57000;118.000
38.58500;134.000
38.60000;116.000
38.61500;120.000
38.63000;108.000
38.64500;110.000
38.66000;114.000
38.67500;127.000
38.69000;115.000
38.70500;112.000
38.72000;114.000
38.73500;111.000
38.75000;115.000
38.76500;132.000
38.78000;126.000
38.79500;113.000
38.81000;120.000
38.82500;136.000
38.84000;112.000
38.85500;134.000
38.87000;122.000
38.88500;121.000
38.90000;115.000
38.91500;120.000
38.93000;114.000
38.94500;133.000
38.96000;111.000
38.97500;108.000
38.99000;117.000
39.00500;125.000
39.02000;111.000
39.03500;120.000
39.05000;125.000
39.06500;111.000
39.08000;117.000
39.09500;137.000
39.11000;125.000
39.12500;115.000
39.14000;108.000
39.15500;139.000
39.17000;119.000
39.18500;119.000
39.20000;117.000
39.21500;124.000
39.23000;119.000
39.24500;108.000
39.26000;120.000
39.27500;120.000
39.29000;117.000
39.30500;109.000
39.32000;109.000
39.33500;106.000
39.35000;107.000
39.36500;117.000
39.38000;117.000
39.39500;119.000
39.41000;110.000
39.42500;108.000
39.44000;122.000
39.45500;124.000
39.47000;123.000
39.48500;122.000
39.50000;141.000
39.51500;126.000
39.53000;113.000
39.54500;92.000
39.56000;105.000
39.57500;104.000
39.59000;105.000
39.60500;101.000
39.62000;102.000
39.63500;114.000
39.65000;123.000
39.66500;127.000
39.68000;121.000
39.69500;133.000
39.71000;121.000
39.72500;110.000
39.74000;113.000
39.75500;127.000
39.77000;116.000
39.78500;126.000
39.80000;121.000
39.81500;122.000
39.83000;127.000
39.84500;122.000
39.86000;117.000
39.87500;109.000
39.89000;95.000
39.90500;93.000
39.92000;127.000
39.93500;155.000
39.95000;129.000
39.96500;118.000
39.98000;133.000
39.99500;134.000
40.01000;119.000
40.02500;124.000
40.04000;120.000
40.05500;114.000
40.07000;119.000
40.08500;113.000
40.10000;116.000
40.11500;101.000
40.13000;110.000
40.14500;117.000
40.16000;110.000
40.17500;128.000
40.19000;129.000
40.20500;115.000
40.22000;133.000
40.23500;123.000
40.25000;133.000
40.26500;123.000
40.28000;122.000
40.29500;138.000
40.31000;141.000
40.32500;126.000
40.34000;115.000
40.35500;128.000
40.37000;133.000
40.38500;122.000
40.40000;119.000
40.41500;126.000
40.43000;124.000
40.44500;121.000
40.46000;121.000
40.47500;114.000
40.49000;107.000
40.50500;125.000
40.52000;127.000
40.53500;138.000
40.55000;122.000
40.56500;111.000
40.58000;119.000
40.59500;124.000
40.61000;115.000
40.62500;131.000
40.64000;123.000
40.65500;119.000
40.67000;124.000
40.68500;126.000
40.70000;124.000
40.71500;123.000
40.73000;138.000
40.74500;137.000
40.76000;132.000
40.77500;124.000
40.79000;124.000
40.80500;134.000
40.82000;111.000
40.83500;117.000
40.85000;128.000
40.86500;117.000
40.88000;127.000
40.89500;119.000
40.91000;135.000
40.92500;120.000
40.94000;133.000
40.95500;124.000
40.97000;110.000
40.98500;123.000
41.00000;124.000
41.01500;109.000
41.03000;121.000
41.04500;123.000
41.06000;129.000
41.07500;133.000
41.09000;94.000
41.10500;112.000
41.12000;125.000
41.13500;122.000
41.15000;138.000
41.16500;138.000
41.18000;137.000
41.19500;122.000
41.21000;118.000
41.22500;118.000
41.24000;136.000
41.25500;131.000
41.27000;121.000
41.28500;132.000
41.30000;110.000
41.31500;110.000
41.33000;119.000
41.34500;132.000
41.36000;134.000
41.37500;119.000
41.39000;117.000
41.40500;111.000
41.42000;98.000
41.43500;92.000
41.45000;90.000
41.46500;105.000
41.48000;123.000
41.49500;116.000
41.51000;97.000
41.52500;112.000
41.54000;115.000
41.55500;116.000
41.57000;113.000
41.58500;119.000
41.60000;131.000
41.61500;117.000
41.63000;106.000
41.64500;110.000
41.66000;120.000
41.67500;123.000
41.69000;116.000
41.70500;109.000
41.72000;101.000
41.73500;108.000
41.75000;123.000
41.76500;117.000
41.78000;116.000
41.79500;123.000
41.81000;108.000
41.82500;106.000
41.84000;111.000
41.85500;110.000
41.87000;119.000
41.88500;111.000
41.90000;107.000
41.91500;120.000
41.93000;129.000
41.94500;127.000
41.96000;121.000
41.97500;141.000
41.99000;115.000
42.00500;126.000
42.02000;125.000
42.03500;129.000
42.05000;134.000
42.06500;105.000
42.08000;116.000
42.09500;111.000
42.11000;112.000
42.12500;116.000
42.14000;130.000
42.15500;127.000
42.17000;127.000
42.18500;106.000
42.20000;104.000
42.21500;123.000
42.23000;125.000
42.24500;139.000
42.26000;112.000
42.27500;125.000
42.29000;111.000
42.30500;124.000
42.32000;123.000
42.33500;110.000
42.35000;109.000
42.36500;116.000
42.38000;111.000
42.39500;110.000
42.41000;117.000
42.42500;132.000
42.44000;104.000
42.45500;115.000
42.47000;122.000
42.48500;130.000
42.50000;107.000
42.51500;114.000
42.53000;117.000
42.54500;123.000
42.56000;110.000
42.57500;112.000
42.59000;128.000
42.60500;124.000
42.62000;131.000
42.63500;118.000
42.65000;104.000
42.66500;125.000
42.68000;107.000
42.69500;118.000
42.71000;120.000
42.72500;130.000
42.74000;139.000
42.75500;132.000
42.77000;123.000
42.78500;126.000
42.80000;111.000
42.81500;116.000
42.83000;104.000
42.84500;124.000
42.86000;112.000
42.87500;103.000
42.89000;118.000
42.90500;134.000
42.92000;122.000
42.93500;114.000
42.95000;109.000
42.96500;108.000
42.98000;106.000
42.99500;103.000
43.01000;102.000
43.02500;115.000
43.04000;119.000
43.05500;120.000
43.07000;109.000
43.08500;112.000
43.10000;98.000
43.11500;110.000
43.13000;124.000
43.14500;122.000
43.16000;113.000
43.17500;113.000
43.19000;105.000
43.20500;119.000
43.22000;117.000
43.23500;114.000
43.25000;116.000
43.26500;100.000
43.28000;104.000
43.29500;121.000
43.31000;126.000
43.32500;117.000
43.34000;118.000
43.35500;120.000
43.37000;121.000
43.38500;104.000
43.40000;109.000
43.41500;120.000
43.43000;116.000
43.44500;110.000
43.46000;109.000
43.47500;126.000
43.49000;124.000
43.50500;113.000
43.52000;110.000
43.53500;134.000
43.55000;108.000
43.56500;118.000
43.58000;96.000
43.59500;106.000
43.61000;123.000
43.62500;116.000
43.64000;119.000
43.65500;117.000
43.67000;106.000
43.68500;118.000
43.70000;111.000
43.71500;114.000
43.73000;116.000
43.74500;107.000
43.76000;102.000
43.77500;110.000
43.79000;117.000
43.80500;111.000
43.82000;112.000
43.83500;97.000
43.85000;105.000
43.86500;127.000
43.88000;98.000
43.89500;107.000
43.91000;120.000
43.92500;125.000
43.94000;114.000
43.95500;119.000
43.97000;132.000
43.98500;125.000
44.00000;123.000
44.01500;120.000
44.03000;116.000
44.04500;121.000
44.06000;125.000
44.07500;124.000
44.09000;124.000
44.10500;125.000
44.12000;117.000
44.13500;127.000
44.15000;112.000
44.16500;112.000
44.18000;124.000
44.19500;127.000
44.21000;134.000
44.22500;119.000
44.24000;117.000
44.25500;137.000
44.27000;117.000
44.28500;115.000
44.30000;109.000
44.31500;124.000
44.33000;116.000
44.34500;115.000
44.36000;125.000
44.37500;130.000
44.39000;104.000
44.40500;112.000
44.42000;118.000
44.43500;107.000
44.45000;121.000
44.46500;122.000
44.48000;132.000
44.49500;122.000
44.51000;118.000
44.52500;106.000
44.54000;115.000
44.55500;135.000
44.57000;123.000
44.58500;129.000
44.60000;135.000
44.61500;120.000
44.63000;113.000
44.64500;115.000
44.66000;117.000
44.67500;124.000
44.69000;106.000
44.70500;124.000
44.72000;109.000
44.73500;127.000
44.75000;120.000
44.76500;129.000
44.78000;119.000
44.79500;132.000
44.81000;125.000
44.82500;123.000
44.84000;113.000
44.85500;117.000
44.87000;116.000
44.88500;117.000
44.90000;143.000
44.91500;120.000
44.93000;112.000
44.94500;120.000
44.96000;132.000
44.97500;114.000
44.99000;121.000
45.00500;100.000
45.02000;124.000
45.03500;138.000
45.05000;143.000
45.06500;112.000
45.08000;118.000
45.09500;122.000
45.11000;114.000
45.12500;124.000
45.14000;124.000
45.15500;118.000
45.17000;107.000
45.18500;100.000
45.20000;108.000
45.21500;107.000
45.23000;116.000
45.24500;123.000
45.26000;116.000
45.27500;116.000
45.29000;119.000
45.30500;124.000
45.32000;116.000
45.33500;120.000
45.35000;122.000
45.36500;103.000
45.38000;101.000
45.39500;109.000
45.41000;99.000
45.42500;112.000
45.44000;135.000
45.45500;116.000
45.47000;126.000
45.48500;119.000
45.50000;113.000
45.51500;112.000
45.53000;105.000
45.54500;105.000
45.56000;105.000
45.57500;118.000
45.59000;106.000
45.60500;86.000
45.62000;104.000
45.63500;115.000
45.65000;113.000
45.66500;104.000
45.68000;104.000
45.69500;98.000
45.71000;101.000
45.72500;102.000
45.74000;107.000
45.75500;118.000
45.77000;114.000
45.78500;113.000
45.80000;121.000
45.81500;122.000
45.83000;113.000
45.84500;107.000
45.86000;114.000
45.87500;118.000
45.89000;123.000
45.90500;110.000
45.92000;118.000
45.93500;111.000
45.95000;112.000
45.96500;142.000
45.98000;101.000
45.99500;116.000
46.01000;124.000
46.02500;111.000
46.04000;115.000
46.05500;110.000
46.07000;105.000
46.08500;109.000
46.10000;102.000
46.11500;112.000
46.13000;109.000
46.14500;121.000
46.16000;110.000
46.17500;104.000
46.19000;127.000
46.20500;115.000
46.22000;125.000
46.23500;122.000
46.25000;115.000
46.26500;109.000
46.28000;115.000
46.29500;104.000
46.31000;101.000
46.32500;118.000
46.34000;112.000
46.35500;107.000
46.37000;105.000
46.38500;113.000
46.40000;113.000
46.41500;103.000
46.43000;118.000
46.44500;110.000
46.46000;115.000
46.47500;116.000
46.49000;108.000
46.50500;92.000
46.52000;97.000
46.53500;106.000
46.55000;114.000
46.56500;122.000
46.58000;115.000
46.59500;117.000
46.61000;126.000
46.62500;107.000
46.64000;110.000
46.65500;115.000
46.67000;97.000
46.68500;103.000
46.70000;93.000
46.71500;94.000
46.73000;116.000
46.74500;101.000
46.76000;113.000
46.77500;115.000
46.79000;117.000
46.80500;106.000
46.82000;118.000
46.83500;108.000
46.85000;107.000
46.86500;115.000
46.88000;116.000
46.89500;108.000
46.91000;116.000
46.92500;121.000
46.94000;109.000
46.95500;128.000
46.97000;119.000
46.98500;116.000
47.00000;97.000
47.01500;114.000
47.03000;120.000
47.04500;124.000
47.06000;106.000
47.07500;100.000
47.09000;112.000
47.10500;118.000
47.12000;99.000
47.13500;102.000
47.15000;121.000
47.16500;114.000
47.18000;111.000
47.19500;104.000
47.21000;106.000
47.22500;107.000
47.24000;98.000
47.25500;111.000
47.27000;99.000
47.28500;98.000
47.30000;96.000
47.31500;98.000
47.33000;115.000
47.34500;116.000
47.36000;117.000
47.37500;111.000
47.39000;109.000
47.40500;108.000
47.42000;99.000
47.43500;104.000
47.45000;88.000
47.46500;108.000
47.48000;106.000
47.49500;104.000
47.51000;93.000
47.52500;104.000
47.54000;105.000
47.55500;119.000
47.57000;98.000
47.58500;116.000
47.60000;112.000
47.61500;113.000
47.63000;103.000
47.64500;103.000
47.66000;112.000
47.67500;88.000
47.69000;96.000
47.70500;90.000
47.72000;92.000
47.73500;96.000
47.75000;101.000
47.76500;111.000
47.78000;111.000
47.79500;111.000
47.81000;106.000
47.82500;116.000
47.84000;100.000
47.85500;108.000
47.87000;98.000
47.88500;101.000
47.90000;99.000
47.91500;85.000
47.93000;101.000
47.94500;102.000
47.96000;103.000
47.97500;92.000
47.99000;95.000
48.00500;95.000
48.02000;90.000
48.03500;93.000
48.05000;98.000
48.06500;104.000
48.08000;101.000
48.09500;104.000
48.11000;84.000
48.12500;95.000
48.14000;98.000
48.15500;115.000
48.17000;108.000
48.18500;97.000
48.20000;92.000
48.21500;99.000
48.23000;99.000
48.24500;103.000
48.26000;93.000
48.27500;79.000
48.29000;97.000
48.30500;94.000
48.32000;111.000
48.33500;103.000
48.35000;106.000
48.36500;104.000
48.38000;86.000
48.39500;95.000
48.41000;97.000
48.42500;91.000
48.44000;101.000
48.45500;96.000
48.47000;98.000
48.48500;85.000
48.50000;90.000
48.51500;100.000
48.53000;95.000
48.54500;95.000
48.56000;115.000
48.57500;112.000
48.59000;79.000
48.60500;82.000
48.62000;85.000
48.63500;106.000
48.65000;102.000
48.66500;101.000
48.68000;104.000
48.69500;110.000
48.71000;93.000
48.72500;112.000
48.74000;101.000
48.75500;117.000
48.77000;109.000
48.78500;88.000
48.80000;91.000
48.81500;92.000
48.83000;98.000
48.84500;106.000
48.86000;101.000
48.87500;106.000
48.89000;93.000
48.90500;96.000
48.92000;91.000
48.93500;95.000
48.95000;101.000
48.96500;110.000
48.98000;95.000
48.99500;109.000
49.01000;91.000
49.02500;99.000
49.04000;90.000
49.05500;90.000
49.07000;92.000
49.08500;100.000
49.10000;102.000
49.11500;100.000
49.13000;104.000
49.14500;103.000
49.16000;100.000
49.17500;103.000
49.19000;96.000
49.20500;84.000
49.22000;112.000
49.23500;91.000
49.25000;101.000
49.26500;102.000
49.28000;94.000
49.29500;102.000
49.31000;106.000
49.32500;105.000
49.34000;93.000
49.35500;105.000
49.37000;96.000
49.38500;95.000
49.40000;108.000
49.41500;100.000
49.43000;93.000
49.44500;104.000
49.46000;115.000
49.47500;108.000
49.49000;114.000
49.50500;94.000
49.52000;101.000
49.53500;108.000
49.55000;100.000
49.56500;100.000
49.58000;116.000
49.59500;99.000
49.61000;100.000
49.62500;115.000
49.64000;91.000
49.65500;87.000
49.67000;103.000
49.68500;99.000
49.70000;106.000
49.71500;93.000
49.73000;98.000
49.74500;88.000
49.76000;113.000
49.77500;97.000
49.79000;80.000
49.80500;111.000
49.82000;106.000
49.83500;110.000
49.85000;104.000
49.86500;89.000
49.88000;93.000
49.89500;101.000
49.91000;97.000
49.92500;93.000
49.94000;100.000
49.95500;97.000
49.97000;97.000
49.98500;104.000
50.00000;97.000
50.01500;96.000
50.03000;99.000
50.04500;112.000
50.06000;94.000
50.07500;89.000
50.09000;94.000
50.10500;101.000
50.12000;100.000
50.13500;92.000
50.15000;93.000
50.16500;78.000
50.18000;84.000
50.19500;86.000
50.21000;95.000
50.22500;95.000
50.24000;110.000
50.25500;99.000
50.27000;82.000
50.28500;98.000
50.30000;114.000
50.31500;109.000
50.33000;103.000
50.34500;95.000
50.36000;92.000
50.37500;97.000
50.39000;82.000
50.40500;110.000
50.42000;94.000
50.43500;84.000
50.45000;98.000
50.46500;99.000
50.48000;91.000
50.49500;99.000
50.51000;101.000
50.52500;103.000
50.54000;100.000
50.55500;89.000
50.57000;94.000
50.58500;100.000
50.60000;108.000
50.61500;90.000
50.63000;87.000
50.64500;94.000
50.66000;104.000
50.67500;91.000
50.69000;91.000
50.70500;99.000
50.72000;98.000
50.73500;102.000
50.75000;93.000
50.76500;95.000
50.78000;101.000
50.79500;93.000
50.81000;88.000
50.82500;95.000
50.84000;95.000
50.85500;105.000
50.87000;81.000
50.88500;91.000
50.90000;84.000
50.91500;93.000
50.93000;92.000
50.94500;87.000
50.96000;100.000
50.97500;95.000
50.99000;100.000
51.00500;108.000
51.02000;103.000
51.03500;99.000
51.05000;89.000
51.06500;97.000
51.08000;96.000
51.09500;90.000
51.11000;100.000
51.12500;88.000
51.14000;81.000
51.15500;81.000
51.17000;87.000
51.18500;92.000
51.20000;91.000
51.21500;95.000
51.23000;98.000
51.24500;83.000
51.26000;91.000
51.27500;83.000
51.29000;98.000
51.30500;101.000
51.32000;94.000
51.33500;101.000
51.35000;86.000
51.36500;95.000
51.38000;103.000
51.39500;110.000
51.41000;93.000
51.42500;99.000
51.44000;89.000
51.45500;76.000
51.47000;83.000
51.48500;116.000
51.50000;107.000
51.51500;101.000
51.53000;94.000
51.54500;88.000
51.56000;87.000
51.57500;93.000
51.59000;80.000
51.60500;88.000
51.62000;98.000
51.63500;94.000
51.65000;104.000
51.66500;90.000
51.68000;102.000
51.69500;97.000
51.71000;99.000
51.72500;100.000
51.74000;92.000
51.75500;79.000
51.77000;87.000
51.78500;86.000
51.80000;102.000
51.81500;105.000
51.83000;98.000
51.84500;106.000
51.86000;101.000
51.87500;98.000
51.89000;104.000
51.90500;110.000
51.92000;96.000
51.93500;85.000
51.95000;89.000
51.96500;101.000
51.98000;85.000
51.99500;95.000
52.01000;100.000
52.02500;104.000
52.04000;103.000
52.05500;104.000
52.07000;111.000
52.08500;96.000
52.10000;97.000
52.11500;88.000
52.13000;95.000
52.14500;101.000
52.16000;106.000
52.17500;95.000
52.19000;90.000
52.20500;88.000
52.22000;97.000
52.23500;87.000
52.25000;89.000
52.26500;94.000
52.28000;107.000
52.29500;101.000
52.31000;103.000
52.32500;95.000
52.34000;111.000
52.35500;101.000
52.37000;96.000
52.38500;91.000
52.40000;81.000
52.41500;93.000
52.43000;90.000
52.44500;89.000
52.46000;90.000
52.47500;94.000
52.49000;98.000
52.50500;89.000
52.52000;82.000
52.53500;100.000
52.55000;102.000
52.56500;101.000
52.58000;85.000
52.59500;94.000
52.61000;102.000
52.62500;80.000
52.64000;95.000
52.65500;105.000
52.67000;86.000
52.68500;88.000
52.70000;96.000
52.71500;91.000
52.73000;100.000
52.74500;128.000
52.76000;99.000
52.77500;91.000
52.79000;87.000
52.80500;81.000
52.82000;103.000
52.83500;112.000
52.85000;92.000
52.86500;108.000
52.88000;111.000
52.89500;97.000
52.91000;94.000
52.92500;90.000
52.94000;92.000
52.95500;94.000
52.97000;100.000
52.98500;96.000
53.00000;92.000
53.01500;98.000
53.03000;111.000
53.04500;108.000
53.06000;109.000
53.07500;105.000
53.09000;109.000
53.10500;88.000
53.12000;95.000
53.13500;97.000
53.15000;88.000
53.16500;97.000
53.18000;98.000
53.19500;100.000
53.21000;87.000
53.22500;108.000
53.24000;107.000
53.25500;109.000
53.27000;102.000
53.28500;99.000
53.30000;92.000
53.31500;105.000
53.33000;108.000
53.34500;107.000
53.36000;110.000
53.37500;103.000
53.39000;106.000
53.40500;109.000
53.42000;101.000
53.43500;100.000
53.45000;88.000
53.46500;99.000
53.48000;102.000
53.49500;87.000
53.51000;88.000
53.52500;96.000
53.54000;81.000
53.55500;77.000
53.57000;107.000
53.58500;98.000
53.60000;94.000
53.61500;101.000
53.63000;84.000
53.64500;96.000
53.66000;97.000
53.67500;99.000
53.69000;98.000
53.70500;94.000
53.72000;75.000
53.73500;95.000
53.75000;94.000
53.76500;98.000
53.78000;99.000
53.79500;98.000
53.81000;90.000
53.82500;94.000
53.84000;100.000
53.85500;93.000
53.87000;101.000
53.88500;93.000
53.90000;98.000
53.91500;101.000
53.93000;89.000
53.94500;91.000
53.96000;94.000
53.97500;90.000
53.99000;97.000
54.00500;76.000
54.02000;78.000
54.03500;92.000
54.05000;85.000
54.06500;82.000
54.08000;89.000
54.09500;93.000
54.11000;109.000
54.12500;103.000
54.14000;109.000
54.15500;83.000
54.17000;93.000
54.18500;90.000
54.20000;94.000
54.21500;95.000
54.23000;104.000
54.24500;105.000
54.26000;85.000
54.27500;82.000
54.29000;87.000
54.30500;88.000
54.32000;107.000
54.33500;103.000
54.35000;94.000
54.36500;96.000
54.38000;92.000
54.39500;97.000
54.41000;93.000
54.42500;91.000
54.44000;110.000
54.45500;105.000
54.47000;98.000
54.48500;96.000
54.50000;104.000
54.51500;107.000
54.53000;101.000
54.54500;100.000
54.56000;103.000
54.57500;112.000
54.59000;100.000
54.60500;86.000
54.62000;101.000
54.63500;105.000
54.65000;97.000
54.66500;97.000
54.68000;95.000
54.69500;97.000
54.71000;109.000
54.72500;87.000
54.74000;108.000
54.75500;109.000
54.77000;103.000
54.78500;95.000
54.80000;79.000
54.81500;102.000
54.83000;105.000
54.84500;93.000
54.86000;98.000
54.87500;98.000
54.89000;93.000
54.90500;88.000
54.92000;92.000
54.93500;86.000
54.95000;88.000
54.96500;108.000
54.98000;107.000
54.99500;105.000
55.01000;95.000
55.02500;105.000
55.04000;88.000
55.05500;84.000
55.07000;110.000
55.08500;101.000
55.10000;91.000
55.11500;97.000
55.13000;97.000
55.14500;96.000
55.16000;102.000
55.17500;98.000
55.19000;85.000
55.20500;92.000
55.22000;107.000
55.23500;94.000
55.25000;105.000
55.26500;101.000
55.28000;84.000
55.29500;98.000
55.31000;88.000
55.32500;96.000
55.34000;96.000
55.35500;99.000
55.37000;102.000
55.38500;94.000
55.40000;99.000
55.41500;95.000
55.43000;115.000
55.44500;99.000
55.46000;107.000
55.47500;99.000
55.49000;112.000
55.50500;101.000
55.52000;93.000
55.53500;106.000
55.55000;101.000
55.56500;83.000
55.58000;96.000
55.59500;105.000
55.61000;109.000
55.62500;94.000
55.64000;89.000
55.65500;101.000
55.67000;96.000
55.68500;94.000
55.70000;101.000
55.71500;106.000
55.73000;107.000
55.74500;92.000
55.76000;92.000
55.77500;91.000
55.79000;99.000
55.80500;83.000
55.82000;97.000
55.83500;101.000
55.85000;107.000
55.86500;86.000
55.88000;94.000
55.89500;94.000
55.91000;89.000
55.92500;97.000
55.94000;106.000
55.95500;119.000
55.97000;87.000
55.98500;91.000
56.00000;101.000
56.01500;97.000
56.03000;97.000
56.04500;93.000
56.06000;85.000
56.07500;104.000
56.09000;117.000
56.10500;102.000
56.12000;81.000
56.13500;76.000
56.15000;93.000
56.16500;104.000
56.18000;100.000
56.19500;85.000
56.21000;101.000
56.22500;106.000
56.24000;105.000
56.25500;94.000
56.27000;90.000
56.28500;88.000
56.30000;94.000
56.31500;93.000
56.33000;94.000
56.34500;107.000
56.36000;103.000
56.37500;88.000
56.39000;102.000
56.40500;93.000
56.42000;86.000
56.43500;92.000
56.45000;99.000
56.46500;97.000
56.48000;85.000
56.49500;101.000
56.51000;90.000
56.52500;100.000
56.54000;89.000
56.55500;85.000
56.57000;105.000
56.58500;92.000
56.60000;98.000
56.61500;98.000
56.63000;93.000
56.64500;97.000
56.66000;104.000
56.67500;106.000
56.69000;108.000
56.70500;112.000
56.72000;93.000
56.73500;110.000
56.75000;89.000
56.76500;93.000
56.78000;94.000
56.79500;101.000
56.81000;100.000
56.82500;97.000
56.84000;104.000
56.85500;84.000
56.87000;95.000
56.88500;92.000
56.90000;101.000
56.91500;80.000
56.93000;96.000
56.94500;97.000
56.96000;103.000
56.97500;104.000
56.99000;95.000
57.00500;111.000
57.02000;100.000
57.03500;96.000
57.05000;90.000
57.06500;91.000
57.08000;103.000
57.09500;89.000
57.11000;88.000
57.12500;93.000
57.14000;96.000
57.15500;100.000
57.17000;102.000
57.18500;96.000
57.20000;90.000
57.21500;86.000
57.23000;85.000
57.24500;99.000
57.26000;84.000
57.27500;91.000
57.29000;90.000
57.30500;85.000
57.32000;72.000
57.33500;93.000
57.35000;96.000
57.36500;91.000
57.38000;90.000
57.39500;84.000
57.41000;84.000
57.42500;79.000
57.44000;89.000
57.45500;89.000
57.47000;95.000
57.48500;97.000
57.50000;86.000
57.51500;93.000
57.53000;93.000
57.54500;96.000
57.56000;83.000
57.57500;87.000
57.59000;86.000
57.60500;87.000
57.62000;86.000
57.63500;105.000
57.65000;90.000
57.66500;83.000
57.68000;72.000
57.69500;92.000
57.71000;82.000
57.72500;92.000
57.74000;85.000
57.75500;95.000
57.77000;88.000
57.78500;95.000
57.80000;94.000
57.81500;98.000
57.83000;87.000
57.84500;88.000
57.86000;98.000
57.87500;89.000
57.89000;83.000
57.90500;90.000
57.92000;87.000
57.93500;98.000
57.95000;91.000
57.96500;101.000
57.98000;90.000
57.99500;93.000
58.01000;89.000
58.02500;90.000
58.04000;101.000
58.05500;88.000
58.07000;79.000
58.08500;86.000
58.10000;99.000
58.11500;91.000
58.13000;89.000
58.14500;103.000
58.16000;100.000
58.17500;92.000
58.19000;101.000
58.20500;87.000
58.22000;90.000
58.23500;94.000
58.25000;81.000
58.26500;83.000
58.28000;88.000
58.29500;87.000
58.31000;87.000
58.32500;85.000
58.34000;90.000
58.35500;94.000
58.37000;82.000
58.38500;77.000
58.40000;87.000
58.41500;89.000
58.43000;91.000
58.44500;85.000
58.46000;84.000
58.47500;86.000
58.49000;84.000
58.50500;103.000
58.52000;94.000
58.53500;84.000
58.55000;78.000
58.56500;73.000
58.58000;72.000
58.59500;79.000
58.61000;83.000
58.62500;80.000
58.64000;72.000
58.65500;89.000
58.67000;73.000
58.68500;66.000
58.70000;71.000
58.71500;88.000
58.73000;93.000
58.74500;83.000
58.76000;83.000
58.77500;78.000
58.79000;93.000
58.80500;89.000
58.82000;77.000
58.83500;77.000
58.85000;80.000
58.86500;97.000
58.88000;84.000
58.89500;71.000
58.91000;89.000
58.92500;83.000
58.94000;93.000
58.95500;92.000
58.97000;88.000
58.98500;99.000
59.00000;87.000
59.01500;90.000
59.03000;83.000
59.04500;71.000
59.06000;79.000
59.07500;80.000
59.09000;93.000
59.10500;91.000
59.12000;73.000
59.13500;77.000
59.15000;77.000
59.16500;86.000
59.18000;87.000
59.19500;88.000
59.21000;80.000
59.22500;83.000
59.24000;77.000
59.25500;79.000
59.27000;65.000
59.28500;84.000
59.30000;87.000
59.31500;89.000
59.33000;70.000
59.34500;78.000
59.36000;78.000
59.37500;92.000
59.39000;93.000
59.40500;82.000
59.42000;63.000
59.43500;78.000
59.45000;65.000
59.46500;78.000
59.48000;82.000
59.49500;86.000
59.51000;95.000
59.52500;86.000
59.54000;89.000
59.55500;89.000
59.57000;80.000
59.58500;76.000
59.60000;75.000
59.61500;65.000
59.63000;67.000
59.64500;69.000
59.66000;83.000
59.67500;82.000
59.69000;84.000
59.70500;82.000
59.72000;77.000
59.73500;91.000
59.75000;62.000
59.76500;66.000
59.78000;78.000
59.79500;83.000
59.81000;67.000
59.82500;79.000
59.84000;81.000
59.85500;83.000
59.87000;86.000
59.88500;77.000
59.90000;82.000
59.91500;89.000
59.93000;78.000
59.94500;81.000
59.96000;81.000
59.97500;88.000
59.99000;97.000
60.00500;69.000
60.02000;67.000
60.03500;71.000
60.05000;73.000
60.06500;76.000
60.08000;74.000
60.09500;79.000
60.11000;83.000
60.12500;75.000
60.14000;87.000
60.15500;83.000
60.17000;79.000
60.18500;84.000
60.20000;79.000
60.21500;77.000
60.23000;86.000
60.24500;100.000
60.26000;79.000
60.27500;89.000
60.29000;96.000
60.30500;94.000
60.32000;84.000
60.33500;79.000
60.35000;71.000
60.36500;75.000
60.38000;72.000
60.39500;77.000
60.41000;78.000
60.42500;81.000
60.44000;75.000
60.45500;75.000
60.47000;71.000
60.48500;91.000
60.50000;78.000
60.51500;79.000
60.53000;74.000
60.54500;75.000
60.56000;68.000
60.57500;84.000
60.59000;89.000
60.60500;79.000
60.62000;78.000
60.63500;62.000
60.65000;82.000
60.66500;73.000
60.68000;75.000
60.69500;75.000
60.71000;82.000
60.72500;84.000
60.74000;79.000
60.75500;91.000
60.77000;82.000
60.78500;86.000
60.80000;82.000
60.81500;75.000
60.83000;73.000
60.84500;79.000
60.86000;75.000
60.87500;77.000
60.89000;70.000
60.90500;90.000
60.92000;91.000
60.93500;76.000
60.95000;74.000
60.96500;77.000
60.98000;83.000
60.99500;87.000
61.01000;88.000
61.02500;76.000
61.04000;84.000
61.05500;84.000
61.07000;72.000
61.08500;76.000
61.10000;73.000
61.11500;89.000
61.13000;85.000
61.14500;62.000
61.16000;69.000
61.17500;82.000
61.19000;72.000
61.20500;72.000
61.22000;72.000
61.23500;94.000
61.25000;84.000
61.26500;80.000
61.28000;81.000
61.29500;79.000
61.31000;77.000
61.32500;79.000
61.34000;76.000
61.35500;83.000
61.37000;92.000
61.38500;80.000
61.40000;73.000
61.41500;90.000
61.43000;88.000
61.44500;80.000
61.46000;73.000
61.47500;91.000
61.49000;74.000
61.50500;68.000
61.52000;71.000
61.53500;88.000
61.55000;77.000
61.56500;65.000
61.58000;74.000
61.59500;96.000
61.61000;84.000
61.62500;84.000
61.64000;90.000
61.65500;79.000
61.67000;81.000
61.68500;80.000
61.70000;80.000
61.71500;71.000
61.73000;76.000
61.74500;68.000
61.76000;76.000
61.77500;80.000
61.79000;77.000
61.80500;91.000
61.82000;78.000
61.83500;78.000
61.85000;83.000
61.86500;72.000
61.88000;87.000
61.89500;69.000
61.91000;64.000
61.92500;69.000
61.94000;76.000
61.95500;76.000
61.97000;84.000
61.98500;81.000
