2.00000 1.000
2.01500 2.000
2.03000 1.000
2.04500 2.000
2.06000 1.000
2.07500 2.000
2.09000 1.000
2.10500 0.000
2.12000 1.000
2.13500 1.000
2.15000 1.000
2.16500 2.000
2.18000 3.000
2.19500 1.000
2.21000 1.000
2.22500 1.000
2.24000 2.000
2.25500 0.000
2.27000 1.000
2.28500 2.000
2.30000 3.000
2.31500 5.000
2.33000 3.000
2.34500 2.000
2.36000 3.000
2.37500 3.000
2.39000 2.000
2.40500 2.000
2.42000 1.000
2.43500 4.000
2.45000 2.000
2.46500 3.000
2.48000 3.000
2.49500 1.000
2.51000 2.000
2.52500 2.000
2.54000 2.000
2.55500 3.000
2.57000 3.000
2.58500 2.000
2.60000 1.000
2.61500 2.000
2.63000 5.000
2.64500 4.000
2.66000 3.000
2.67500 3.000
2.69000 3.000
2.70500 7.000
2.72000 6.000
2.73500 2.000
2.75000 1.000
2.76500 3.000
2.78000 3.000
2.79500 5.000
2.81000 2.000
2.82500 2.000
2.84000 1.000
2.85500 3.000
2.87000 2.000
2.88500 5.000
2.90000 5.000
2.91500 4.000
2.93000 2.000
2.94500 1.000
2.96000 1.000
2.97500 1.000
2.99000 1.000
3.00500 4.000
3.02000 6.000
3.03500 3.000
3.05000 1.000
3.06500 4.000
3.08000 3.000
3.09500 3.000
3.11000 2.000
3.12500 5.000
3.14000 4.000
3.15500 5.000
3.17000 9.000
3.18500 17.000
3.20000 23.000
3.21500 27.000
3.23000 53.000
3.24500 66.000
3.26000 74.000
3.27500 101.000
3.29000 120.000
3.30500 150.000
3.32000 141.000
3.33500 152.000
3.35000 158.000
3.36500 147.000
3.38000 157.000
3.39500 132.000
3.41000 141.000
3.42500 150.000
3.44000 155.000
3.45500 156.000
3.47000 151.000
3.48500 151.000
3.50000 145.000
3.51500 163.000
3.53000 147.000
3.54500 147.000
3.56000 154.000
3.57500 149.000
3.59000 147.000
3.60500 152.000
3.62000 128.000
3.63500 149.000
3.65000 150.000
3.66500 137.000
3.68000 152.000
3.69500 152.000
3.71000 131.000
3.72500 158.000
3.74000 142.000
3.75500 156.000
3.77000 159.000
3.78500 143.000
3.80000 140.000
3.81500 141.000
3.83000 139.000
3.84500 151.000
3.86000 134.000
3.87500 140.000
3.89000 154.000
3.90500 167.000
3.92000 156.000
3.93500 152.000
3.95000 159.000
3.96500 139.000
3.98000 127.000
3.99500 154.000
4.01000 135.000
4.02500 148.000
4.04000 145.000
4.05500 132.000
4.07000 137.000
4.08500 140.000
4.10000 134.000
4.11500 156.000
4.13000 150.000
4.14500 152.000
4.16000 149.000
4.17500 155.000
4.19000 166.000
4.20500 147.000
4.22000 170.000
4.23500 169.000
4.25000 139.000
4.26500 153.000
4.28000 163.000
4.29500 154.000
4.31000 148.000
4.32500 167.000
4.34000 161.000
4.35500 173.000
4.37000 144.000
4.38500 145.000
4.40000 143.000
4.41500 154.000
4.43000 138.000
4.44500 148.000
4.46000 179.000
4.47500 158.000
4.49000 171.000
4.50500 148.000
4.52000 148.000
4.53500 160.000
4.55000 168.000
4.56500 146.000
4.58000 143.000
4.59500 163.000
4.61000 147.000
4.62500 154.000
4.64000 141.000
4.65500 153.000
4.67000 164.000
4.68500 166.000
4.70000 160.000
4.71500 166.000
4.73000 165.000
4.74500 167.000
4.76000 142.000
4.77500 168.000
4.79000 175.000
4.80500 170.000
4.82000 156.000
4.83500 158.000
4.85000 147.000
4.86500 163.000
4.88000 164.000
4.89500 173.000
4.91000 165.000
4.92500 169.000
4.94000 192.000
4.95500 187.000
4.97000 154.000
4.98500 157.000
5.00000 158.000
5.01500 172.000
5.03000 173.000
5.04500 182.000
5.06000 176.000
5.07500 163.000
5.09000 177.000
5.10500 157.000
5.12000 164.000
5.13500 153.000
5.15000 185.000
5.16500 176.000
5.18000 188.000
5.19500 159.000
5.21000 170.000
5.22500 160.000
5.24000 185.000
5.25500 171.000
5.27000 180.000
5.28500 172.000
5.30000 179.000
5.31500 167.000
5.33000 188.000
5.34500 167.000
5.36000 192.000
5.37500 184.000
5.39000 180.000
5.40500 181.000
5.42000 163.000
5.43500 167.000
5.45000 176.000
5.46500 170.000
5.48000 170.000
5.49500 173.000
5.51000 167.000
5.52500 169.000
5.54000 178.000
5.55500 190.000
5.57000 191.000
5.58500 182.000
5.60000 171.000
5.61500 178.000
5.63000 185.000
5.64500 194.000
5.66000 219.000
5.67500 210.000
5.69000 187.000
5.70500 185.000
5.72000 168.000
5.73500 186.000
5.75000 195.000
5.76500 182.000
5.78000 199.000
5.79500 218.000
5.81000 189.000
5.82500 196.000
5.84000 196.000
5.85500 190.000
5.87000 216.000
5.88500 207.000
5.90000 217.000
5.91500 217.000
5.93000 225.000
5.94500 238.000
5.96000 238.000
5.97500 257.000
5.99000 282.000
6.00500 281.000
6.02000 277.000
6.03500 303.000
6.05000 304.000
6.06500 299.000
6.08000 336.000
6.09500 332.000
6.11000 370.000
6.12500 379.000
6.14000 404.000
6.15500 476.000
6.17000 500.000
6.18500 513.000
6.20000 682.000
6.21500 786.000
6.23000 862.000
6.24500 738.000
6.26000 620.000
6.27500 516.000
6.29000 460.000
6.30500 476.000
6.32000 498.000
6.33500 499.000
6.35000 510.000
6.36500 515.000
6.38000 516.000
6.39500 525.000
6.41000 496.000
6.42500 506.000
6.44000 491.000
6.45500 466.000
6.47000 435.000
6.48500 434.000
6.50000 407.000
6.51500 389.000
6.53000 355.000
6.54500 297.000
6.56000 279.000
6.57500 248.000
6.59000 263.000
6.60500 216.000
6.62000 225.000
6.63500 216.000
6.65000 201.000
6.66500 214.000
6.68000 194.000
6.69500 194.000
6.71000 206.000
6.72500 194.000
6.74000 195.000
6.75500 208.000
6.77000 223.000
6.78500 203.000
6.80000 202.000
6.81500 185.000
6.83000 180.000
6.84500 178.000
6.86000 184.000
6.87500 183.000
6.89000 205.000
6.90500 195.000
6.92000 181.000
6.93500 222.000
6.95000 196.000
6.96500 172.000
6.98000 187.000
6.99500 185.000
7.01000 205.000
7.02500 209.000
7.04000 191.000
7.05500 190.000
7.07000 184.000
7.08500 183.000
7.10000 184.000
7.11500 198.000
7.13000 201.000
7.14500 183.000
7.16000 181.000
7.17500 212.000
7.19000 192.000
7.20500 176.000
7.22000 182.000
7.23500 206.000
7.25000 196.000
7.26500 170.000
7.28000 177.000
7.29500 182.000
7.31000 221.000
7.32500 195.000
7.34000 196.000
7.35500 199.000
7.37000 187.000
7.38500 187.000
7.40000 196.000
7.41500 205.000
7.43000 207.000
7.44500 224.000
7.46000 224.000
7.47500 201.000
7.49000 192.000
7.50500 193.000
7.52000 193.000
7.53500 183.000
7.55000 172.000
7.56500 197.000
7.58000 214.000
7.59500 204.000
7.61000 216.000
7.62500 201.000
7.64000 193.000
7.65500 209.000
7.67000 203.000
7.68500 189.000
7.70000 193.000
7.71500 205.000
7.73000 205.000
7.74500 198.000
7.76000 201.000
7.77500 220.000
7.79000 205.000
7.80500 204.000
7.82000 190.000
7.83500 217.000
7.85000 227.000
7.86500 207.000
7.88000 198.000
7.89500 197.000
7.91000 212.000
7.92500 215.000
7.94000 203.000
7.95500 205.000
7.97000 212.000
7.98500 219.000
8.00000 209.000
8.01500 189.000
8.03000 203.000
8.04500 209.000
8.06000 226.000
8.07500 204.000
8.09000 225.000
8.10500 208.000
8.12000 212.000
8.13500 202.000
8.15000 214.000
8.16500 230.000
8.18000 231.000
8.19500 247.000
8.21000 201.000
8.22500 238.000
8.24000 238.000
8.25500 204.000
8.27000 205.000
8.28500 256.000
8.30000 224.000
8.31500 234.000
8.33000 241.000
8.34500 247.000
8.36000 250.000
8.37500 255.000
8.39000 250.000
8.40500 244.000
8.42000 250.000
8.43500 265.000
8.45000 252.000
8.46500 253.000
8.48000 250.000
8.49500 264.000
8.51000 209.000
8.52500 240.000
8.54000 233.000
8.55500 224.000
8.57000 238.000
8.58500 257.000
8.60000 260.000
8.61500 241.000
8.63000 227.000
8.64500 234.000
8.66000 271.000
8.67500 254.000
8.69000 236.000
8.70500 240.000
8.72000 223.000
8.73500 240.000
8.75000 211.000
8.76500 221.000
8.78000 211.000
8.79500 228.000
8.81000 228.000
8.82500 229.000
8.84000 260.000
8.85500 253.000
8.87000 234.000
8.88500 248.000
8.90000 245.000
8.91500 227.000
8.93000 244.000
8.94500 272.000
8.96000 260.000
8.97500 252.000
8.99000 234.000
9.00500 237.000
9.02000 226.000
9.03500 223.000
9.05000 228.000
9.06500 232.000
9.08000 205.000
9.09500 208.000
9.11000 224.000
9.12500 218.000
9.14000 238.000
9.15500 239.000
9.17000 232.000
9.18500 206.000
9.20000 233.000
9.21500 228.000
9.23000 230.000
9.24500 225.000
9.26000 238.000
9.27500 223.000
9.29000 219.000
9.30500 199.000
9.32000 223.000
9.33500 229.000
9.35000 229.000
9.36500 229.000
9.38000 263.000
9.39500 262.000
9.41000 251.000
9.42500 237.000
9.44000 257.000
9.45500 272.000
9.47000 252.000
9.48500 246.000
9.50000 252.000
9.51500 267.000
9.53000 259.000
9.54500 253.000
9.56000 296.000
9.57500 277.000
9.59000 282.000
9.60500 295.000
9.62000 298.000
9.63500 304.000
9.65000 299.000
9.66500 314.000
9.68000 388.000
9.69500 370.000
9.71000 374.000
9.72500 406.000
9.74000 404.000
9.75500 384.000
9.77000 419.000
9.78500 456.000
9.80000 455.000
9.81500 439.000
9.83000 400.000
9.84500 411.000
9.86000 440.000
9.87500 454.000
9.89000 466.000
9.90500 457.000
9.92000 465.000
9.93500 443.000
9.95000 445.000
9.96500 438.000
9.98000 421.000
9.99500 445.000
10.01000 444.000
10.02500 448.000
10.04000 428.000
10.05500 462.000
10.07000 473.000
10.08500 492.000
10.10000 534.000
10.11500 480.000
10.13000 455.000
10.14500 506.000
10.16000 564.000
10.17500 531.000
10.19000 534.000
10.20500 514.000
10.22000 546.000
10.23500 586.000
10.25000 601.000
10.26500 633.000
10.28000 625.000
10.29500 666.000
10.31000 688.000
10.32500 690.000
10.34000 717.000
10.35500 771.000
10.37000 863.000
10.38500 918.000
10.40000 1007.000
10.41500 1122.000
10.43000 1319.000
10.44500 1586.000
10.46000 1457.000
10.47500 1013.000
10.49000 686.000
10.50500 538.000
10.52000 489.000
10.53500 485.000
10.55000 434.000
10.56500 413.000
10.58000 405.000
10.59500 384.000
10.61000 358.000
10.62500 364.000
10.64000 343.000
10.65500 344.000
10.67000 347.000
10.68500 316.000
10.70000 309.000
10.71500 292.000
10.73000 316.000
10.74500 280.000
10.76000 281.000
10.77500 247.000
10.79000 248.000
10.80500 254.000
10.82000 243.000
10.83500 242.000
10.85000 215.000
10.86500 234.000
10.88000 254.000
10.89500 250.000
10.91000 243.000
10.92500 221.000
10.94000 243.000
10.95500 230.000
10.97000 224.000
10.98500 229.000
11.00000 216.000
11.01500 219.000
11.03000 229.000
11.04500 229.000
11.06000 213.000
11.07500 247.000
11.09000 234.000
11.10500 199.000
11.12000 217.000
11.13500 222.000
11.15000 231.000
11.16500 225.000
11.18000 242.000
11.19500 231.000
11.21000 228.000
11.22500 231.000
11.24000 230.000
11.25500 233.000
11.27000 229.000
11.28500 233.000
11.30000 233.000
11.31500 220.000
11.33000 209.000
11.34500 221.000
11.36000 248.000
11.37500 213.000
11.39000 229.000
11.40500 239.000
11.42000 245.000
11.43500 224.000
11.45000 243.000
11.46500 219.000
11.48000 235.000
11.49500 222.000
11.51000 207.000
11.52500 221.000
11.54000 217.000
11.55500 233.000
11.57000 215.000
11.58500 201.000
11.60000 219.000
11.61500 226.000
11.63000 214.000
11.64500 230.000
11.66000 229.000
11.67500 209.000
11.69000 227.000
11.70500 231.000
11.72000 201.000
11.73500 188.000
11.75000 219.000
11.76500 202.000
11.78000 207.000
11.79500 228.000
11.81000 206.000
11.82500 222.000
11.84000 246.000
11.85500 232.000
11.87000 224.000
11.88500 230.000
11.90000 235.000
11.91500 238.000
11.93000 238.000
11.94500 233.000
11.96000 231.000
11.97500 237.000
11.99000 244.000
12.00500 234.000
12.02000 227.000
12.03500 236.000
12.05000 206.000
12.06500 236.000
12.08000 259.000
12.09500 253.000
12.11000 237.000
12.12500 244.000
12.14000 240.000
12.15500 260.000
12.17000 232.000
12.18500 226.000
12.20000 249.000
12.21500 246.000
12.23000 243.000
12.24500 225.000
12.26000 227.000
12.27500 251.000
12.29000 245.000
12.30500 242.000
12.32000 244.000
12.33500 275.000
12.35000 256.000
12.36500 259.000
12.38000 260.000
12.39500 275.000
12.41000 277.000
12.42500 301.000
12.44000 318.000
12.45500 345.000
12.47000 343.000
12.48500 366.000
12.50000 394.000
12.51500 412.000
12.53000 440.000
12.54500 512.000
12.56000 582.000
12.57500 586.000
12.59000 500.000
12.60500 351.000
12.62000 324.000
12.63500 309.000
12.65000 285.000
12.66500 272.000
12.68000 292.000
12.69500 291.000
12.71000 279.000
12.72500 302.000
12.74000 271.000
12.75500 283.000
12.77000 304.000
12.78500 294.000
12.80000 265.000
12.81500 261.000
12.83000 272.000
12.84500 280.000
12.86000 267.000
12.87500 261.000
12.89000 267.000
12.90500 276.000
12.92000 295.000
12.93500 275.000
12.95000 274.000
12.96500 254.000
12.98000 242.000
12.99500 247.000
13.01000 242.000
13.02500 243.000
13.04000 243.000
13.05500 245.000
13.07000 242.000
13.08500 235.000
13.10000 237.000
13.11500 246.000
13.13000 230.000
13.14500 213.000
13.16000 221.000
13.17500 238.000
13.19000 245.000
13.20500 244.000
13.22000 235.000
13.23500 210.000
13.25000 234.000
13.26500 233.000
13.28000 236.000
13.29500 240.000
13.31000 227.000
13.32500 238.000
13.34000 219.000
13.35500 198.000
13.37000 205.000
13.38500 219.000
13.40000 240.000
13.41500 248.000
13.43000 249.000
13.44500 235.000
13.46000 235.000
13.47500 228.000
13.49000 214.000
13.50500 206.000
13.52000 236.000
13.53500 206.000
13.55000 212.000
13.56500 208.000
13.58000 222.000
13.59500 237.000
13.61000 220.000
13.62500 212.000
13.64000 210.000
13.65500 221.000
13.67000 198.000
13.68500 211.000
13.70000 211.000
13.71500 223.000
13.73000 219.000
13.74500 220.000
13.76000 216.000
13.77500 228.000
13.79000 225.000
13.80500 217.000
13.82000 233.000
13.83500 220.000
13.85000 213.000
13.86500 216.000
13.88000 209.000
13.89500 234.000
13.91000 230.000
13.92500 210.000
13.94000 203.000
13.95500 220.000
13.97000 231.000
13.98500 216.000
14.00000 238.000
14.01500 234.000
14.03000 249.000
14.04500 212.000
14.06000 204.000
14.07500 217.000
14.09000 226.000
14.10500 242.000
14.12000 193.000
14.13500 208.000
14.15000 230.000
14.16500 260.000
14.18000 231.000
14.19500 207.000
14.21000 207.000
14.22500 216.000
14.24000 247.000
14.25500 216.000
14.27000 214.000
14.28500 209.000
14.30000 233.000
14.31500 222.000
14.33000 208.000
14.34500 205.000
14.36000 223.000
14.37500 209.000
14.39000 210.000
14.40500 210.000
14.42000 214.000
14.43500 242.000
14.45000 249.000
14.46500 220.000
14.48000 217.000
14.49500 236.000
14.51000 229.000
14.52500 237.000
14.54000 227.000
14.55500 223.000
14.57000 240.000
14.58500 241.000
14.60000 230.000
14.61500 207.000
14.63000 233.000
14.64500 236.000
14.66000 237.000
14.67500 225.000
14.69000 226.000
14.70500 236.000
14.72000 230.000
14.73500 254.000
14.75000 243.000
14.76500 221.000
14.78000 227.000
14.79500 235.000
14.81000 238.000
14.82500 259.000
14.84000 232.000
14.85500 236.000
14.87000 233.000
14.88500 234.000
14.90000 256.000
14.91500 240.000
14.93000 262.000
14.94500 272.000
14.96000 256.000
14.97500 288.000
14.99000 274.000
15.00500 295.000
15.02000 347.000
15.03500 381.000
15.05000 407.000
15.06500 336.000
15.08000 320.000
15.09500 268.000
15.11000 264.000
15.12500 245.000
15.14000 248.000
15.15500 244.000
15.17000 251.000
15.18500 241.000
15.20000 228.000
15.21500 235.000
15.23000 240.000
15.24500 246.000
15.26000 243.000
15.27500 260.000
15.29000 271.000
15.30500 243.000
15.32000 250.000
15.33500 270.000
15.35000 227.000
15.36500 245.000
15.38000 260.000
15.39500 249.000
15.41000 254.000
15.42500 248.000
15.44000 253.000
15.45500 260.000
15.47000 258.000
15.48500 267.000
15.50000 266.000
15.51500 270.000
15.53000 254.000
15.54500 255.000
15.56000 231.000
15.57500 253.000
15.59000 271.000
15.60500 241.000
15.62000 252.000
15.63500 262.000
15.65000 225.000
15.66500 248.000
15.68000 247.000
15.69500 243.000
15.71000 240.000
15.72500 247.000
15.74000 236.000
15.75500 238.000
15.77000 224.000
15.78500 254.000
15.80000 231.000
15.81500 235.000
15.83000 222.000
15.84500 241.000
15.86000 218.000
15.87500 228.000
15.89000 244.000
15.90500 237.000
15.92000 231.000
15.93500 252.000
15.95000 256.000
15.96500 228.000
15.98000 240.000
15.99500 235.000
16.01000 246.000
16.02500 225.000
16.04000 234.000
16.05500 231.000
16.07000 235.000
16.08500 244.000
16.10000 255.000
16.11500 232.000
16.13000 238.000
16.14500 250.000
16.16000 235.000
16.17500 205.000
16.19000 235.000
16.20500 235.000
16.22000 235.000
16.23500 237.000
16.25000 244.000
16.26500 231.000
16.28000 233.000
16.29500 224.000
16.31000 216.000
16.32500 193.000
16.34000 244.000
16.35500 254.000
16.37000 220.000
16.38500 226.000
16.40000 248.000
16.41500 233.000
16.43000 235.000
16.44500 249.000
16.46000 210.000
16.47500 225.000
16.49000 233.000
16.50500 225.000
16.52000 235.000
16.53500 228.000
16.55000 227.000
16.56500 235.000
16.58000 208.000
16.59500 224.000
16.61000 244.000
16.62500 231.000
16.64000 216.000
16.65500 222.000
16.67000 245.000
16.68500 233.000
16.70000 248.000
16.71500 237.000
16.73000 245.000
16.74500 228.000
16.76000 240.000
16.77500 247.000
16.79000 251.000
16.80500 260.000
16.82000 256.000
16.83500 235.000
16.85000 226.000
16.86500 248.000
16.88000 233.000
16.89500 226.000
16.91000 232.000
16.92500 243.000
16.94000 236.000
16.95500 257.000
16.97000 237.000
16.98500 276.000
17.00000 256.000
17.01500 223.000
17.03000 261.000
17.04500 256.000
17.06000 302.000
17.07500 293.000
17.09000 284.000
17.10500 297.000
17.12000 306.000
17.13500 309.000
17.15000 317.000
17.16500 307.000
17.18000 303.000
17.19500 357.000
17.21000 319.000
17.22500 332.000
17.24000 300.000
17.25500 303.000
17.27000 304.000
17.28500 309.000
17.30000 298.000
17.31500 302.000
17.33000 279.000
17.34500 294.000
17.36000 280.000
17.37500 253.000
17.39000 294.000
17.40500 280.000
17.42000 265.000
17.43500 264.000
17.45000 274.000
17.46500 282.000
17.48000 290.000
17.49500 286.000
17.51000 285.000
17.52500 306.000
17.54000 277.000
17.55500 283.000
17.57000 292.000
17.58500 281.000
17.60000 285.000
17.61500 294.000
17.63000 282.000
17.64500 254.000
17.66000 277.000
17.67500 287.000
17.69000 287.000
17.70500 261.000
17.72000 282.000
17.73500 310.000
17.75000 340.000
17.76500 319.000
17.78000 297.000
17.79500 305.000
17.81000 289.000
17.82500 286.000
17.84000 304.000
17.85500 351.000
17.87000 355.000
17.88500 360.000
17.90000 364.000
17.91500 383.000
17.93000 439.000
17.94500 452.000
17.96000 415.000
17.97500 375.000
17.99000 337.000
18.00500 333.000
18.02000 314.000
18.03500 300.000
18.05000 283.000
18.06500 294.000
18.08000 292.000
18.09500 294.000
18.11000 317.000
18.12500 307.000
18.14000 272.000
18.15500 288.000
18.17000 293.000
18.18500 269.000
18.20000 277.000
18.21500 277.000
18.23000 282.000
18.24500 273.000
18.26000 280.000
18.27500 283.000
18.29000 290.000
18.30500 274.000
18.32000 284.000
18.33500 286.000
18.35000 261.000
18.36500 268.000
18.38000 279.000
18.39500 280.000
18.41000 279.000
18.42500 274.000
18.44000 303.000
18.45500 263.000
18.47000 276.000
18.48500 284.000
18.50000 271.000
18.51500 276.000
18.53000 286.000
18.54500 280.000
18.56000 284.000
18.57500 264.000
18.59000 268.000
18.60500 305.000
18.62000 279.000
18.63500 306.000
18.65000 327.000
18.66500 339.000
18.68000 382.000
18.69500 408.000
18.71000 453.000
18.72500 548.000
18.74000 649.000
18.75500 755.000
18.77000 635.000
18.78500 480.000
18.80000 398.000
18.81500 351.000
18.83000 303.000
18.84500 294.000
18.86000 305.000
18.87500 300.000
18.89000 324.000
18.90500 312.000
18.92000 294.000
18.93500 304.000
18.95000 286.000
18.96500 286.000
18.98000 291.000
18.99500 328.000
19.01000 320.000
19.02500 315.000
19.04000 315.000
19.05500 306.000
19.07000 341.000
19.08500 316.000
19.10000 324.000
19.11500 348.000
19.13000 362.000
19.14500 383.000
19.16000 402.000
19.17500 450.000
19.19000 496.000
19.20500 571.000
19.22000 605.000
19.23500 757.000
19.25000 961.000
19.26500 1101.000
19.28000 1000.000
19.29500 749.000
19.31000 529.000
19.32500 375.000
19.34000 357.000
19.35500 344.000
19.37000 311.000
19.38500 309.000
19.40000 296.000
19.41500 277.000
19.43000 296.000
19.44500 306.000
19.46000 298.000
19.47500 293.000
19.49000 309.000
19.50500 307.000
19.52000 291.000
19.53500 282.000
19.55000 272.000
19.56500 257.000
19.58000 282.000
19.59500 288.000
19.61000 289.000
19.62500 267.000
19.64000 262.000
19.65500 289.000
19.67000 276.000
19.68500 253.000
19.70000 278.000
19.71500 298.000
19.73000 274.000
19.74500 261.000
19.76000 256.000
19.77500 255.000
19.79000 248.000
19.80500 257.000
19.82000 251.000
19.83500 250.000
19.85000 261.000
19.86500 262.000
19.88000 255.000
19.89500 240.000
19.91000 203.000
19.92500 213.000
19.94000 240.000
19.95500 267.000
19.97000 243.000
19.98500 224.000
20.00000 234.000
20.01500 244.000
20.03000 245.000
20.04500 254.000
20.06000 239.000
20.07500 226.000
20.09000 241.000
20.10500 243.000
20.12000 238.000
20.13500 241.000
20.15000 237.000
20.16500 252.000
20.18000 234.000
20.19500 237.000
20.21000 237.000
20.22500 250.000
20.24000 229.000
20.25500 235.000
20.27000 242.000
20.28500 250.000
20.30000 248.000
20.31500 244.000
20.33000 236.000
20.34500 237.000
20.36000 232.000
20.37500 248.000
20.39000 229.000
20.40500 255.000
20.42000 234.000
20.43500 237.000
20.45000 212.000
20.46500 230.000
20.48000 231.000
20.49500 238.000
20.51000 250.000
20.52500 252.000
20.54000 246.000
20.55500 237.000
20.57000 242.000
20.58500 221.000
20.60000 242.000
20.61500 221.000
20.63000 236.000
20.64500 244.000
20.66000 259.000
20.67500 248.000
20.69000 252.000
20.70500 240.000
20.72000 242.000
20.73500 237.000
20.75000 252.000
20.76500 258.000
20.78000 245.000
20.79500 245.000
20.81000 253.000
20.82500 229.000
20.84000 223.000
20.85500 250.000
20.87000 270.000
20.88500 253.000
20.90000 251.000
20.91500 280.000
20.93000 276.000
20.94500 293.000
20.96000 298.000
20.97500 338.000
20.99000 344.000
21.00500 308.000
21.02000 289.000
21.03500 255.000
21.05000 225.000
21.06500 247.000
21.08000 248.000
21.09500 222.000
21.11000 230.000
21.12500 228.000
21.14000 232.000
21.15500 225.000
21.17000 212.000
21.18500 230.000
21.20000 237.000
21.21500 219.000
21.23000 217.000
21.24500 239.000
21.26000 250.000
21.27500 231.000
21.29000 262.000
21.30500 241.000
21.32000 244.000
21.33500 224.000
21.35000 234.000
21.36500 262.000
21.38000 244.000
21.39500 228.000
21.41000 225.000
21.42500 232.000
21.44000 252.000
21.45500 224.000
21.47000 214.000
21.48500 242.000
21.50000 212.000
21.51500 238.000
21.53000 239.000
21.54500 244.000
21.56000 223.000
21.57500 241.000
21.59000 245.000
21.60500 249.000
21.62000 247.000
21.63500 253.000
21.65000 229.000
21.66500 244.000
21.68000 245.000
21.69500 229.000
21.71000 238.000
21.72500 243.000
21.74000 217.000
21.75500 229.000
21.77000 247.000
21.78500 243.000
21.80000 240.000
21.81500 209.000
21.83000 220.000
21.84500 208.000
21.86000 233.000
21.87500 227.000
21.89000 245.000
21.90500 235.000
21.92000 254.000
21.93500 257.000
21.95000 221.000
21.96500 247.000
21.98000 243.000
21.99500 235.000
22.01000 215.000
22.02500 237.000
22.04000 244.000
22.05500 233.000
22.07000 247.000
22.08500 241.000
22.10000 236.000
22.11500 229.000
22.13000 228.000
22.14500 246.000
22.16000 232.000
22.17500 226.000
22.19000 232.000
22.20500 234.000
22.22000 243.000
22.23500 217.000
22.25000 224.000
22.26500 223.000
22.28000 233.000
22.29500 250.000
22.31000 223.000
22.32500 240.000
22.34000 246.000
22.35500 239.000
22.37000 244.000
22.38500 238.000
22.40000 243.000
22.41500 256.000
22.43000 263.000
22.44500 227.000
22.46000 248.000
22.47500 256.000
22.49000 229.000
22.50500 255.000
22.52000 221.000
22.53500 236.000
22.55000 236.000
22.56500 244.000
22.58000 226.000
22.59500 227.000
22.61000 242.000
22.62500 229.000
22.64000 237.000
22.65500 240.000
22.67000 253.000
22.68500 231.000
22.70000 230.000
22.71500 224.000
22.73000 235.000
22.74500 226.000
22.76000 214.000
22.77500 246.000
22.79000 243.000
22.80500 243.000
22.82000 246.000
22.83500 236.000
22.85000 249.000
22.86500 250.000
22.88000 229.000
22.89500 244.000
22.91000 235.000
22.92500 226.000
22.94000 234.000
22.95500 261.000
22.97000 262.000
22.98500 233.000
23.00000 242.000
23.01500 223.000
23.03000 234.000
23.04500 238.000
23.06000 246.000
23.07500 252.000
23.09000 248.000
23.10500 246.000
23.12000 242.000
23.13500 232.000
23.15000 239.000
23.16500 253.000
23.18000 251.000
23.19500 246.000
23.21000 235.000
23.22500 237.000
23.24000 216.000
23.25500 236.000
23.27000 240.000
23.28500 251.000
23.30000 265.000
23.31500 253.000
23.33000 254.000
23.34500 235.000
23.36000 229.000
23.37500 258.000
23.39000 233.000
23.40500 247.000
23.42000 260.000
23.43500 246.000
23.45000 229.000
23.46500 256.000
23.48000 283.000
23.49500 270.000
23.51000 252.000
23.52500 249.000
23.54000 228.000
23.55500 245.000
23.57000 246.000
23.58500 265.000
23.60000 240.000
23.61500 235.000
23.63000 226.000
23.64500 233.000
23.66000 236.000
23.67500 243.000
23.69000 246.000
23.70500 230.000
23.72000 227.000
23.73500 259.000
23.75000 260.000
23.76500 231.000
23.78000 222.000
23.79500 246.000
23.81000 242.000
23.82500 233.000
23.84000 251.000
23.85500 245.000
23.87000 239.000
23.88500 282.000
23.90000 265.000
23.91500 240.000
23.93000 232.000
23.94500 258.000
23.96000 248.000
23.97500 249.000
23.99000 255.000
24.00500 240.000
24.02000 245.000
24.03500 239.000
24.05000 255.000
24.06500 248.000
24.08000 243.000
24.09500 245.000
24.11000 268.000
24.12500 248.000
24.14000 267.000
24.15500 264.000
24.17000 274.000
24.18500 238.000
24.20000 243.000
24.21500 266.000
24.23000 284.000
24.24500 277.000
24.26000 303.000
24.27500 310.000
24.29000 289.000
24.30500 295.000
24.32000 356.000
24.33500 407.000
24.35000 432.000
24.36500 429.000
24.38000 421.000
24.39500 429.000
24.41000 396.000
24.42500 370.000
24.44000 452.000
24.45500 500.000
24.47000 539.000
24.48500 636.000
24.50000 740.000
24.51500 896.000
24.53000 877.000
24.54500 806.000
24.56000 673.000
24.57500 508.000
24.59000 462.000
24.60500 463.000
24.62000 401.000
24.63500 402.000
24.65000 377.000
24.66500 386.000
24.68000 374.000
24.69500 335.000
24.71000 352.000
24.72500 376.000
24.74000 344.000
24.75500 353.000
24.77000 361.000
24.78500 371.000
24.80000 393.000
24.81500 366.000
24.83000 334.000
24.84500 345.000
24.86000 340.000
24.87500 328.000
24.89000 341.000
24.90500 350.000
24.92000 341.000
24.93500 356.000
24.95000 396.000
24.96500 362.000
24.98000 380.000
24.99500 381.000
25.01000 397.000
25.02500 430.000
25.04000 470.000
25.05500 482.000
25.07000 495.000
25.08500 561.000
25.10000 558.000
25.11500 513.000
25.13000 456.000
25.14500 416.000
25.16000 421.000
25.17500 390.000
25.19000 395.000
25.20500 399.000
25.22000 419.000
25.23500 391.000
25.25000 409.000
25.26500 423.000
25.28000 434.000
25.29500 447.000
25.31000 419.000
25.32500 412.000
25.34000 411.000
25.35500 397.000
25.37000 382.000
25.38500 384.000
25.40000 410.000
25.41500 401.000
25.43000 424.000
25.44500 407.000
25.46000 426.000
25.47500 447.000
25.49000 448.000
25.50500 485.000
25.52000 536.000
25.53500 530.000
25.55000 504.000
25.56500 511.000
25.58000 454.000
25.59500 443.000
25.61000 429.000
25.62500 410.000
25.64000 460.000
25.65500 487.000
25.67000 493.000
25.68500 538.000
25.70000 535.000
25.71500 557.000
25.73000 567.000
25.74500 588.000
25.76000 608.000
25.77500 656.000
25.79000 751.000
25.80500 825.000
25.82000 819.000
25.83500 733.000
25.85000 645.000
25.86500 560.000
25.88000 538.000
25.89500 516.000
25.91000 486.000
25.92500 478.000
25.94000 480.000
25.95500 522.000
25.97000 466.000
25.98500 484.000
26.00000 489.000
26.01500 519.000
26.03000 482.000
26.04500 537.000
26.06000 595.000
26.07500 633.000
26.09000 699.000
26.10500 789.000
26.12000 766.000
26.13500 675.000
26.15000 583.000
26.16500 583.000
26.18000 534.000
26.19500 535.000
26.21000 514.000
26.22500 525.000
26.24000 550.000
26.25500 519.000
26.27000 501.000
26.28500 503.000
26.30000 534.000
26.31500 539.000
26.33000 523.000
26.34500 538.000
26.36000 520.000
26.37500 523.000
26.39000 544.000
26.40500 528.000
26.42000 524.000
26.43500 566.000
26.45000 616.000
26.46500 665.000
26.48000 745.000
26.49500 853.000
26.51000 881.000
26.52500 940.000
26.54000 932.000
26.55500 999.000
26.57000 1226.000
26.58500 1434.000
26.60000 1564.000
26.61500 1514.000
26.63000 1366.000
26.64500 1062.000
26.66000 912.000
26.67500 821.000
26.69000 716.000
26.70500 652.000
26.72000 575.000
26.73500 576.000
26.75000 525.000
26.76500 536.000
26.78000 483.000
26.79500 483.000
26.81000 493.000
26.82500 462.000
26.84000 470.000
26.85500 466.000
26.87000 494.000
26.88500 475.000
26.90000 458.000
26.91500 470.000
26.93000 473.000
26.94500 442.000
26.96000 448.000
26.97500 505.000
26.99000 437.000
27.00500 440.000
27.02000 498.000
27.03500 478.000
27.05000 460.000
27.06500 453.000
27.08000 465.000
27.09500 484.000
27.11000 488.000
27.12500 491.000
27.14000 453.000
27.15500 506.000
27.17000 486.000
27.18500 438.000
27.20000 488.000
27.21500 500.000
27.23000 488.000
27.24500 459.000
27.26000 463.000
27.27500 457.000
27.29000 501.000
27.30500 454.000
27.32000 462.000
27.33500 480.000
27.35000 480.000
27.36500 506.000
27.38000 501.000
27.39500 509.000
27.41000 490.000
27.42500 498.000
27.44000 520.000
27.45500 565.000
27.47000 537.000
27.48500 567.000
27.50000 634.000
27.51500 713.000
27.53000 790.000
27.54500 936.000
27.56000 1071.000
27.57500 1295.000
27.59000 1487.000
27.60500 1549.000
27.62000 1419.000
27.63500 1151.000
27.65000 990.000
27.66500 857.000
27.68000 826.000
27.69500 782.000
27.71000 754.000
27.72500 799.000
27.74000 811.000
27.75500 767.000
27.77000 708.000
27.78500 654.000
27.80000 579.000
27.81500 579.000
27.83000 557.000
27.84500 525.000
27.86000 537.000
27.87500 551.000
27.89000 626.000
27.90500 602.000
27.92000 558.000
27.93500 590.000
27.95000 533.000
27.96500 550.000
27.98000 551.000
27.99500 542.000
28.01000 570.000
28.02500 561.000
28.04000 564.000
28.05500 550.000
28.07000 535.000
28.08500 573.000
28.10000 562.000
28.11500 547.000
28.13000 554.000
28.14500 567.000
28.16000 542.000
28.17500 552.000
28.19000 560.000
28.20500 571.000
28.22000 523.000
28.23500 511.000
28.25000 564.000
28.26500 535.000
28.28000 514.000
28.29500 530.000
28.31000 540.000
28.32500 593.000
28.34000 641.000
28.35500 628.000
28.37000 642.000
28.38500 662.000
28.40000 651.000
28.41500 607.000
28.43000 520.000
28.44500 532.000
28.46000 520.000
28.47500 530.000
28.49000 491.000
28.50500 502.000
28.52000 502.000
28.53500 498.000
28.55000 502.000
28.56500 495.000
28.58000 509.000
28.59500 531.000
28.61000 510.000
28.62500 562.000
28.64000 486.000
28.65500 479.000
28.67000 437.000
28.68500 445.000
28.70000 438.000
28.71500 410.000
28.73000 414.000
28.74500 393.000
28.76000 389.000
28.77500 386.000
28.79000 408.000
28.80500 403.000
28.82000 382.000
28.83500 382.000
28.85000 382.000
28.86500 373.000
28.88000 373.000
28.89500 361.000
28.91000 357.000
28.92500 367.000
28.94000 335.000
28.95500 358.000
28.97000 394.000
28.98500 381.000
29.00000 354.000
29.01500 339.000
29.03000 328.000
29.04500 315.000
29.06000 330.000
29.07500 327.000
29.09000 340.000
29.10500 338.000
29.12000 316.000
29.13500 315.000
29.15000 328.000
29.16500 336.000
29.18000 326.000
29.19500 327.000
29.21000 321.000
29.22500 331.000
29.24000 358.000
29.25500 359.000
29.27000 339.000
29.28500 354.000
29.30000 350.000
29.31500 341.000
29.33000 320.000
29.34500 328.000
29.36000 300.000
29.37500 312.000
29.39000 305.000
29.40500 314.000
29.42000 307.000
29.43500 338.000
29.45000 332.000
29.46500 308.000
29.48000 302.000
29.49500 327.000
29.51000 340.000
29.52500 311.000
29.54000 339.000
29.55500 373.000
29.57000 358.000
29.58500 395.000
29.60000 373.000
29.61500 364.000
29.63000 361.000
29.64500 400.000
29.66000 385.000
29.67500 378.000
29.69000 322.000
29.70500 327.000
29.72000 343.000
29.73500 308.000
29.75000 277.000
29.76500 295.000
29.78000 304.000
29.79500 281.000
29.81000 290.000
29.82500 315.000
29.84000 317.000
29.85500 350.000
29.87000 366.000
29.88500 341.000
29.90000 348.000
29.91500 317.000
29.93000 277.000
29.94500 292.000
29.96000 304.000
29.97500 299.000
29.99000 276.000
30.00500 262.000
30.02000 254.000
30.03500 300.000
30.05000 292.000
30.06500 275.000
30.08000 271.000
30.09500 291.000
30.11000 287.000
30.12500 280.000
30.14000 282.000
30.15500 283.000
30.17000 283.000
30.18500 306.000
30.20000 321.000
30.21500 324.000
30.23000 294.000
30.24500 304.000
30.26000 318.000
30.27500 327.000
30.29000 309.000
30.30500 317.000
30.32000 323.000
30.33500 362.000
30.35000 413.000
30.36500 437.000
30.38000 487.000
30.39500 603.000
30.41000 746.000
30.42500 848.000
30.44000 1033.000
30.45500 1081.000
30.47000 959.000
30.48500 816.000
30.50000 702.000
30.51500 636.000
30.53000 542.000
30.54500 518.000
30.56000 432.000
30.57500 419.000
30.59000 390.000
30.60500 359.000
30.62000 346.000
30.63500 335.000
30.65000 312.000
30.66500 331.000
30.68000 317.000
30.69500 291.000
30.71000 305.000
30.72500 321.000
30.74000 310.000
30.75500 297.000
30.77000 283.000
30.78500 306.000
30.80000 298.000
30.81500 308.000
30.83000 280.000
30.84500 290.000
30.86000 284.000
30.87500 293.000
30.89000 282.000
30.90500 324.000
30.92000 332.000
30.93500 341.000
30.95000 342.000
30.96500 343.000
30.98000 355.000
30.99500 338.000
31.01000 315.000
31.02500 286.000
31.04000 285.000
31.05500 277.000
31.07000 257.000
31.08500 276.000
31.10000 262.000
31.11500 246.000
31.13000 256.000
31.14500 230.000
31.16000 255.000
31.17500 259.000
31.19000 257.000
31.20500 257.000
31.22000 237.000
31.23500 235.000
31.25000 246.000
31.26500 252.000
31.28000 251.000
31.29500 249.000
31.31000 259.000
31.32500 248.000
31.34000 234.000
31.35500 237.000
31.37000 232.000
31.38500 259.000
31.40000 245.000
31.41500 244.000
31.43000 241.000
31.44500 226.000
31.46000 263.000
31.47500 237.000
31.49000 249.000
31.50500 282.000
31.52000 285.000
31.53500 266.000
31.55000 273.000
31.56500 282.000
31.58000 304.000
31.59500 320.000
31.61000 353.000
31.62500 417.000
31.64000 370.000
31.65500 359.000
31.67000 325.000
31.68500 300.000
31.70000 252.000
31.71500 249.000
31.73000 228.000
31.74500 237.000
31.76000 234.000
31.77500 220.000
31.79000 232.000
31.80500 255.000
31.82000 234.000
31.83500 234.000
31.85000 218.000
31.86500 219.000
31.88000 203.000
31.89500 212.000
31.91000 238.000
31.92500 230.000
31.94000 221.000
31.95500 254.000
31.97000 237.000
31.98500 261.000
32.00000 306.000
32.01500 308.000
32.03000 348.000
32.04500 304.000
32.06000 275.000
32.07500 256.000
32.09000 256.000
32.10500 236.000
32.12000 223.000
32.13500 231.000
32.15000 251.000
32.16500 209.000
32.18000 207.000
32.19500 204.000
32.21000 200.000
32.22500 218.000
32.24000 235.000
32.25500 208.000
32.27000 209.000
32.28500 208.000
32.30000 250.000
32.31500 226.000
32.33000 210.000
32.34500 222.000
32.36000 213.000
32.37500 218.000
32.39000 214.000
32.40500 204.000
32.42000 208.000
32.43500 197.000
32.45000 195.000
32.46500 232.000
32.48000 214.000
32.49500 237.000
32.51000 230.000
32.52500 220.000
32.54000 208.000
32.55500 215.000
32.57000 217.000
32.58500 220.000
32.60000 218.000
32.61500 230.000
32.63000 243.000
32.64500 269.000
32.66000 300.000
32.67500 298.000
32.69000 251.000
32.70500 234.000
32.72000 211.000
32.73500 214.000
32.75000 187.000
32.76500 185.000
32.78000 198.000
32.79500 203.000
32.81000 194.000
32.82500 192.000
32.84000 196.000
32.85500 177.000
32.87000 182.000
32.88500 184.000
32.90000 195.000
32.91500 186.000
32.93000 183.000
32.94500 193.000
32.96000 187.000
32.97500 190.000
32.99000 198.000
33.00500 183.000
33.02000 182.000
33.03500 193.000
33.05000 224.000
33.06500 227.000
33.08000 244.000
33.09500 245.000
33.11000 225.000
33.12500 209.000
33.14000 199.000
33.15500 183.000
33.17000 194.000
33.18500 192.000
33.20000 179.000
33.21500 185.000
33.23000 189.000
33.24500 175.000
33.26000 167.000
33.27500 181.000
33.29000 186.000
33.30500 190.000
33.32000 193.000
33.33500 186.000
33.35000 176.000
33.36500 171.000
33.38000 191.000
33.39500 198.000
33.41000 180.000
33.42500 171.000
33.44000 187.000
33.45500 166.000
33.47000 177.000
33.48500 211.000
33.50000 176.000
33.51500 188.000
33.53000 190.000
33.54500 185.000
33.56000 182.000
33.57500 186.000
33.59000 226.000
33.60500 199.000
33.62000 200.000
33.63500 179.000
33.65000 205.000
33.66500 211.000
33.68000 246.000
33.69500 240.000
33.71000 269.000
33.72500 320.000
33.74000 321.000
33.75500 269.000
33.77000 251.000
33.78500 227.000
33.80000 213.000
33.81500 187.000
33.83000 209.000
33.84500 193.000
33.86000 205.000
33.87500 201.000
33.89000 232.000
33.90500 224.000
33.92000 231.000
33.93500 229.000
33.95000 273.000
33.96500 296.000
33.98000 284.000
33.99500 294.000
34.01000 271.000
34.02500 249.000
34.04000 247.000
34.05500 231.000
34.07000 210.000
34.08500 195.000
34.10000 187.000
34.11500 210.000
34.13000 187.000
34.14500 188.000
34.16000 187.000
34.17500 177.000
34.19000 187.000
34.20500 172.000
34.22000 186.000
34.23500 191.000
34.25000 210.000
34.26500 210.000
34.28000 184.000
34.29500 183.000
34.31000 174.000
34.32500 169.000
34.34000 177.000
34.35500 183.000
34.37000 196.000
34.38500 198.000
34.40000 187.000
34.41500 188.000
34.43000 186.000
34.44500 182.000
34.46000 180.000
34.47500 176.000
34.49000 161.000
34.50500 172.000
34.52000 192.000
34.53500 185.000
34.55000 181.000
34.56500 195.000
34.58000 180.000
34.59500 181.000
34.61000 190.000
34.62500 205.000
34.64000 190.000
34.65500 174.000
34.67000 170.000
34.68500 170.000
34.70000 194.000
34.71500 173.000
34.73000 182.000
34.74500 185.000
34.76000 183.000
34.77500 167.000
34.79000 173.000
34.80500 196.000
34.82000 179.000
34.83500 167.000
34.85000 163.000
34.86500 163.000
34.88000 167.000
34.89500 179.000
34.91000 179.000
34.92500 166.000
34.94000 163.000
34.95500 182.000
34.97000 192.000
34.98500 206.000
35.00000 194.000
35.01500 175.000
35.03000 174.000
35.04500 165.000
35.06000 183.000
35.07500 176.000
35.09000 173.000
35.10500 172.000
35.12000 175.000
35.13500 180.000
35.15000 178.000
35.16500 172.000
35.18000 178.000
35.19500 173.000
35.21000 172.000
35.22500 176.000
35.24000 185.000
35.25500 183.000
35.27000 173.000
35.28500 189.000
35.30000 201.000
35.31500 217.000
35.33000 213.000
35.34500 253.000
35.36000 227.000
35.37500 208.000
35.39000 182.000
35.40500 179.000
35.42000 204.000
35.43500 165.000
35.45000 181.000
35.46500 166.000
35.48000 170.000
35.49500 169.000
35.51000 191.000
35.52500 176.000
35.54000 178.000
35.55500 206.000
35.57000 189.000
35.58500 183.000
35.60000 160.000
35.61500 171.000
35.63000 169.000
35.64500 162.000
35.66000 187.000
35.67500 176.000
35.69000 173.000
35.70500 178.000
35.72000 199.000
35.73500 190.000
35.75000 207.000
35.76500 260.000
35.78000 281.000
35.79500 343.000
35.81000 366.000
35.82500 409.000
35.84000 325.000
35.85500 271.000
35.87000 219.000
35.88500 196.000
35.90000 204.000
35.91500 186.000
35.93000 204.000
35.94500 192.000
35.96000 185.000
35.97500 169.000
35.99000 188.000
36.00500 162.000
36.02000 174.000
36.03500 183.000
36.05000 187.000
36.06500 188.000
36.08000 189.000
36.09500 182.000
36.11000 176.000
36.12500 186.000
36.14000 172.000
36.15500 169.000
36.17000 193.000
36.18500 215.000
36.20000 183.000
36.21500 196.000
36.23000 192.000
36.24500 181.000
36.26000 184.000
36.27500 174.000
36.29000 174.000
36.30500 169.000
36.32000 204.000
36.33500 201.000
36.35000 202.000
36.36500 198.000
36.38000 184.000
36.39500 197.000
36.41000 199.000
36.42500 197.000
36.44000 221.000
36.45500 224.000
36.47000 227.000
36.48500 237.000
36.50000 226.000
36.51500 228.000
36.53000 192.000
36.54500 197.000
36.56000 222.000
36.57500 176.000
36.59000 190.000
36.60500 194.000
36.62000 205.000
36.63500 202.000
36.65000 211.000
36.66500 198.000
36.68000 193.000
36.69500 183.000
36.71000 190.000
36.72500 193.000
36.74000 198.000
36.75500 175.000
36.77000 169.000
36.78500 168.000
36.80000 191.000
36.81500 188.000
36.83000 176.000
36.84500 161.000
36.86000 173.000
36.87500 159.000
36.89000 172.000
36.90500 166.000
36.92000 185.000
36.93500 173.000
36.95000 166.000
36.96500 154.000
36.98000 169.000
36.99500 177.000
37.01000 162.000
37.02500 169.000
37.04000 168.000
37.05500 160.000
37.07000 174.000
37.08500 167.000
37.10000 159.000
37.11500 164.000
37.13000 168.000
37.14500 162.000
37.16000 164.000
37.17500 162.000
37.19000 165.000
37.20500 151.000
37.22000 161.000
37.23500 164.000
37.25000 170.000
37.26500 145.000
37.28000 142.000
37.29500 149.000
37.31000 141.000
37.32500 138.000
37.34000 155.000
37.35500 164.000
37.37000 169.000
37.38500 164.000
37.40000 167.000
37.41500 156.000
37.43000 180.000
37.44500 160.000
37.46000 169.000
37.47500 170.000
37.49000 173.000
37.50500 164.000
37.52000 168.000
37.53500 163.000
37.55000 172.000
37.56500 192.000
37.58000 182.000
37.59500 179.000
37.61000 185.000
37.62500 207.000
37.64000 185.000
37.65500 168.000
37.67000 158.000
37.68500 158.000
37.70000 159.000
37.71500 167.000
37.73000 165.000
37.74500 150.000
37.76000 148.000
37.77500 138.000
37.79000 139.000
37.80500 144.000
37.82000 143.000
37.83500 158.000
37.85000 150.000
37.86500 138.000
37.88000 127.000
37.89500 149.000
37.91000 163.000
37.92500 131.000
37.94000 145.000
37.95500 147.000
37.97000 139.000
37.98500 162.000
38.00000 133.000
38.01500 150.000
38.03000 146.000
38.04500 140.000
38.06000 163.000
38.07500 159.000
38.09000 151.000
38.10500 145.000
38.12000 149.000
38.13500 147.000
38.15000 144.000
38.16500 142.000
38.18000 131.000
38.19500 133.000
38.21000 144.000
38.22500 138.000
38.24000 139.000
38.25500 148.000
38.27000 130.000
38.28500 152.000
38.30000 141.000
38.31500 143.000
38.33000 132.000
38.34500 136.000
38.36000 144.000
38.37500 139.000
38.39000 136.000
38.40500 152.000
38.42000 143.000
38.43500 151.000
38.45000 141.000
38.46500 115.000
38.48000 134.000
38.49500 132.000
38.51000 143.000
38.52500 137.000
38.54000 153.000
38.55500 167.000
38.57000 170.000
38.58500 176.000
38.60000 164.000
38.61500 148.000
38.63000 158.000
38.64500 163.000
38.66000 178.000
38.67500 157.000
38.69000 175.000
38.70500 170.000
38.72000 187.000
38.73500 205.000
38.75000 225.000
38.76500 233.000
38.78000 267.000
38.79500 322.000
38.81000 312.000
38.82500 328.000
38.84000 303.000
38.85500 241.000
38.87000 225.000
38.88500 187.000
38.90000 170.000
38.91500 180.000
38.93000 168.000
38.94500 167.000
38.96000 171.000
38.97500 181.000
38.99000 175.000
39.00500 179.000
39.02000 197.000
39.03500 194.000
39.05000 193.000
39.06500 196.000
39.08000 200.000
39.09500 188.000
39.11000 179.000
39.12500 159.000
39.14000 168.000
39.15500 164.000
39.17000 146.000
39.18500 151.000
39.20000 151.000
39.21500 167.000
39.23000 158.000
39.24500 158.000
39.26000 141.000
39.27500 141.000
39.29000 122.000
39.30500 133.000
39.32000 145.000
39.33500 121.000
39.35000 126.000
39.36500 129.000
39.38000 138.000
39.39500 124.000
39.41000 126.000
39.42500 143.000
39.44000 142.000
39.45500 133.000
39.47000 143.000
39.48500 144.000
39.50000 137.000
39.51500 130.000
39.53000 144.000
39.54500 157.000
39.56000 149.000
39.57500 146.000
39.59000 141.000
39.60500 146.000
39.62000 143.000
39.63500 140.000
39.65000 145.000
39.66500 157.000
39.68000 147.000
39.69500 157.000
39.71000 133.000
39.72500 146.000
39.74000 144.000
39.75500 129.000
39.77000 146.000
39.78500 145.000
39.80000 143.000
39.81500 143.000
39.83000 148.000
39.84500 148.000
39.86000 150.000
39.87500 152.000
39.89000 137.000
39.90500 142.000
39.92000 148.000
39.93500 158.000
39.95000 154.000
39.96500 165.000
39.98000 146.000
39.99500 148.000
40.01000 173.000
40.02500 152.000
40.04000 150.000
40.05500 152.000
40.07000 151.000
40.08500 142.000
40.10000 151.000
40.11500 143.000
40.13000 157.000
40.14500 166.000
40.16000 139.000
40.17500 133.000
40.19000 148.000
40.20500 138.000
40.22000 130.000
40.23500 137.000
40.25000 157.000
40.26500 133.000
40.28000 139.000
40.29500 130.000
40.31000 145.000
40.32500 148.000
40.34000 141.000
40.35500 148.000
40.37000 152.000
40.38500 143.000
40.40000 133.000
40.41500 132.000
40.43000 131.000
40.44500 126.000
40.46000 130.000
40.47500 137.000
40.49000 141.000
40.50500 125.000
40.52000 108.000
40.53500 133.000
40.55000 145.000
40.56500 143.000
40.58000 119.000
40.59500 127.000
40.61000 137.000
40.62500 146.000
40.64000 147.000
40.65500 163.000
40.67000 156.000
40.68500 146.000
40.70000 152.000
40.71500 168.000
40.73000 161.000
40.74500 164.000
40.76000 164.000
40.77500 200.000
40.79000 207.000
40.80500 221.000
40.82000 244.000
40.83500 219.000
40.85000 203.000
40.86500 199.000
40.88000 184.000
40.89500 153.000
40.91000 145.000
40.92500 129.000
40.94000 135.000
40.95500 139.000
40.97000 163.000
40.98500 131.000
41.00000 135.000
41.01500 125.000
41.03000 148.000
41.04500 151.000
41.06000 142.000
41.07500 114.000
41.09000 115.000
41.10500 120.000
41.12000 124.000
41.13500 133.000
41.15000 131.000
41.16500 135.000
41.18000 143.000
41.19500 122.000
41.21000 128.000
41.22500 132.000
41.24000 123.000
41.25500 107.000
41.27000 115.000
41.28500 133.000
41.30000 119.000
41.31500 120.000
41.33000 114.000
41.34500 114.000
41.36000 115.000
41.37500 122.000
41.39000 139.000
41.40500 138.000
41.42000 108.000
41.43500 116.000
41.45000 110.000
41.46500 121.000
41.48000 130.000
41.49500 116.000
41.51000 117.000
41.52500 103.000
41.54000 109.000
41.55500 126.000
41.57000 130.000
41.58500 135.000
41.60000 139.000
41.61500 125.000
41.63000 138.000
41.64500 121.000
41.66000 121.000
41.67500 118.000
41.69000 109.000
41.70500 113.000
41.72000 128.000
41.73500 117.000
41.75000 103.000
41.76500 113.000
41.78000 119.000
41.79500 116.000
41.81000 116.000
41.82500 135.000
41.84000 126.000
41.85500 109.000
41.87000 127.000
41.88500 125.000
41.90000 126.000
41.91500 132.000
41.93000 126.000
41.94500 116.000
41.96000 128.000
41.97500 123.000
41.99000 133.000
42.00500 114.000
42.02000 116.000
42.03500 127.000
42.05000 127.000
42.06500 134.000
42.08000 119.000
42.09500 125.000
42.11000 122.000
42.12500 136.000
42.14000 146.000
42.15500 118.000
42.17000 124.000
42.18500 140.000
42.20000 134.000
42.21500 130.000
42.23000 135.000
42.24500 152.000
42.26000 149.000
42.27500 162.000
42.29000 166.000
42.30500 150.000
42.32000 173.000
42.33500 173.000
42.35000 153.000
42.36500 156.000
42.38000 141.000
42.39500 134.000
42.41000 140.000
42.42500 136.000
42.44000 124.000
42.45500 109.000
42.47000 111.000
42.48500 110.000
42.50000 134.000
42.51500 125.000
42.53000 132.000
42.54500 141.000
42.56000 134.000
42.57500 109.000
42.59000 122.000
42.60500 128.000
42.62000 107.000
42.63500 123.000
42.65000 138.000
42.66500 123.000
42.68000 124.000
42.69500 135.000
42.71000 139.000
42.72500 140.000
42.74000 131.000
42.75500 138.000
42.77000 138.000
42.78500 135.000
42.80000 114.000
42.81500 126.000
42.83000 123.000
42.84500 102.000
42.86000 105.000
42.87500 117.000
42.89000 116.000
42.90500 120.000
42.92000 127.000
42.93500 125.000
42.95000 130.000
42.96500 130.000
42.98000 128.000
42.99500 115.000
43.01000 114.000
43.02500 113.000
43.04000 121.000
43.05500 120.000
43.07000 121.000
43.08500 118.000
43.10000 115.000
43.11500 123.000
43.13000 130.000
43.14500 145.000
43.16000 166.000
43.17500 158.000
43.19000 133.000
43.20500 142.000
43.22000 127.000
43.23500 124.000
43.25000 120.000
43.26500 120.000
43.28000 135.000
43.29500 123.000
43.31000 128.000
43.32500 144.000
43.34000 157.000
43.35500 150.000
43.37000 155.000
43.38500 137.000
43.40000 128.000
43.41500 119.000
43.43000 120.000
43.44500 133.000
43.46000 121.000
43.47500 119.000
43.49000 109.000
43.50500 103.000
43.52000 118.000
43.53500 103.000
43.55000 122.000
43.56500 120.000
43.58000 116.000
43.59500 114.000
43.61000 105.000
43.62500 109.000
43.64000 101.000
43.65500 108.000
43.67000 128.000
43.68500 104.000
43.70000 102.000
43.71500 105.000
43.73000 130.000
43.74500 110.000
43.76000 110.000
43.77500 108.000
43.79000 112.000
43.80500 108.000
43.82000 116.000
43.83500 114.000
43.85000 102.000
43.86500 101.000
43.88000 104.000
43.89500 115.000
43.91000 119.000
43.92500 110.000
43.94000 113.000
43.95500 124.000
43.97000 114.000
43.98500 125.000
44.00000 124.000
44.01500 119.000
44.03000 113.000
44.04500 104.000
44.06000 98.000
44.07500 95.000
44.09000 112.000
44.10500 131.000
44.12000 109.000
44.13500 110.000
44.15000 105.000
44.16500 122.000
44.18000 120.000
44.19500 106.000
44.21000 115.000
44.22500 122.000
44.24000 116.000
44.25500 137.000
44.27000 142.000
44.28500 136.000
44.30000 131.000
44.31500 138.000
44.33000 111.000
44.34500 115.000
44.36000 118.000
44.37500 113.000
44.39000 124.000
44.40500 104.000
44.42000 108.000
44.43500 123.000
44.45000 119.000
44.46500 107.000
44.48000 102.000
44.49500 118.000
44.51000 136.000
44.52500 114.000
44.54000 103.000
44.55500 98.000
44.57000 106.000
44.58500 95.000
44.60000 109.000
44.61500 122.000
44.63000 133.000
44.64500 133.000
44.66000 160.000
44.67500 155.000
44.69000 154.000
44.70500 140.000
44.72000 136.000
44.73500 136.000
44.75000 128.000
44.76500 118.000
44.78000 114.000
44.79500 112.000
44.81000 90.000
44.82500 101.000
44.84000 105.000
44.85500 120.000
44.87000 124.000
44.88500 118.000
44.90000 106.000
44.91500 110.000
44.93000 129.000
44.94500 122.000
44.96000 112.000
44.97500 117.000
44.99000 124.000
45.00500 117.000
45.02000 125.000
45.03500 139.000
45.05000 123.000
45.06500 102.000
45.08000 126.000
45.09500 109.000
45.11000 117.000
45.12500 114.000
45.14000 124.000
45.15500 112.000
45.17000 124.000
45.18500 104.000
45.20000 99.000
45.21500 99.000
45.23000 112.000
45.24500 121.000
45.26000 108.000
45.27500 97.000
45.29000 102.000
45.30500 115.000
45.32000 104.000
45.33500 104.000
45.35000 101.000
45.36500 112.000
45.38000 107.000
45.39500 115.000
45.41000 124.000
45.42500 135.000
45.44000 144.000
45.45500 151.000
45.47000 148.000
45.48500 146.000
45.50000 144.000
45.51500 127.000
45.53000 128.000
45.54500 141.000
45.56000 134.000
45.57500 125.000
45.59000 127.000
45.60500 142.000
45.62000 126.000
45.63500 121.000
45.65000 116.000
45.66500 116.000
45.68000 110.000
45.69500 122.000
45.71000 104.000
45.72500 117.000
45.74000 105.000
45.75500 108.000
45.77000 111.000
45.78500 110.000
45.80000 117.000
45.81500 132.000
45.83000 132.000
45.84500 129.000
45.86000 119.000
45.87500 111.000
45.89000 123.000
45.90500 125.000
45.92000 128.000
45.93500 114.000
45.95000 114.000
45.96500 127.000
45.98000 112.000
45.99500 125.000
46.01000 117.000
46.02500 97.000
46.04000 104.000
46.05500 105.000
46.07000 108.000
46.08500 117.000
46.10000 120.000
46.11500 120.000
46.13000 102.000
46.14500 111.000
46.16000 137.000
46.17500 120.000
46.19000 137.000
46.20500 124.000
46.22000 126.000
46.23500 121.000
46.25000 138.000
46.26500 145.000
46.28000 153.000
46.29500 140.000
46.31000 139.000
46.32500 123.000
46.34000 117.000
46.35500 130.000
46.37000 125.000
46.38500 120.000
46.40000 122.000
46.41500 119.000
46.43000 116.000
46.44500 120.000
46.46000 113.000
46.47500 96.000
46.49000 113.000
46.50500 110.000
46.52000 121.000
46.53500 130.000
46.55000 122.000
46.56500 121.000
46.58000 113.000
46.59500 102.000
46.61000 130.000
46.62500 123.000
46.64000 112.000
46.65500 115.000
46.67000 107.000
46.68500 108.000
46.70000 114.000
46.71500 130.000
46.73000 108.000
46.74500 115.000
46.76000 114.000
46.77500 121.000
46.79000 133.000
46.80500 134.000
46.82000 138.000
46.83500 143.000
46.85000 132.000
46.86500 124.000
46.88000 124.000
46.89500 135.000
46.91000 133.000
46.92500 131.000
46.94000 132.000
46.95500 124.000
46.97000 139.000
46.98500 151.000
47.00000 128.000
47.01500 173.000
47.03000 195.000
47.04500 202.000
47.06000 176.000
47.07500 164.000
47.09000 151.000
47.10500 136.000
47.12000 129.000
47.13500 128.000
47.15000 127.000
47.16500 114.000
47.18000 133.000
47.19500 130.000
47.21000 123.000
47.22500 125.000
47.24000 122.000
47.25500 116.000
47.27000 121.000
47.28500 119.000
47.30000 127.000
47.31500 109.000
47.33000 113.000
47.34500 112.000
47.36000 111.000
47.37500 116.000
47.39000 114.000
47.40500 109.000
47.42000 114.000
47.43500 121.000
47.45000 128.000
47.46500 122.000
47.48000 119.000
47.49500 128.000
47.51000 110.000
47.52500 111.000
47.54000 126.000
47.55500 117.000
47.57000 135.000
47.58500 117.000
47.60000 106.000
47.61500 116.000
47.63000 127.000
47.64500 135.000
47.66000 128.000
47.67500 126.000
47.69000 133.000
47.70500 135.000
47.72000 158.000
47.73500 156.000
47.75000 159.000
47.76500 144.000
47.78000 130.000
47.79500 120.000
47.81000 118.000
47.82500 134.000
47.84000 135.000
47.85500 128.000
47.87000 123.000
47.88500 137.000
47.90000 145.000
47.91500 156.000
47.93000 164.000
47.94500 155.000
47.96000 144.000
47.97500 143.000
47.99000 132.000
48.00500 117.000
48.02000 127.000
48.03500 111.000
48.05000 126.000
48.06500 133.000
48.08000 114.000
48.09500 108.000
48.11000 105.000
48.12500 120.000
48.14000 111.000
48.15500 113.000
48.17000 118.000
48.18500 110.000
48.20000 90.000
48.21500 111.000
48.23000 116.000
48.24500 110.000
48.26000 112.000
48.27500 128.000
48.29000 124.000
48.30500 128.000
48.32000 98.000
48.33500 106.000
48.35000 125.000
48.36500 123.000
48.38000 116.000
48.39500 128.000
48.41000 125.000
48.42500 144.000
48.44000 133.000
48.45500 139.000
48.47000 120.000
48.48500 121.000
48.50000 123.000
48.51500 126.000
48.53000 128.000
48.54500 113.000
48.56000 110.000
48.57500 98.000
48.59000 104.000
48.60500 118.000
48.62000 109.000
48.63500 123.000
48.65000 101.000
48.66500 103.000
48.68000 109.000
48.69500 106.000
48.71000 106.000
48.72500 92.000
48.74000 89.000
48.75500 104.000
48.77000 107.000
48.78500 116.000
48.80000 130.000
48.81500 114.000
48.83000 102.000
48.84500 100.000
48.86000 92.000
48.87500 102.000
48.89000 104.000
48.90500 106.000
48.92000 106.000
48.93500 114.000
48.95000 120.000
48.96500 134.000
48.98000 118.000
48.99500 114.000
49.01000 121.000
49.02500 140.000
49.04000 123.000
49.05500 141.000
49.07000 137.000
49.08500 133.000
49.10000 149.000
49.11500 137.000
49.13000 128.000
49.14500 140.000
49.16000 119.000
49.17500 110.000
49.19000 112.000
49.20500 104.000
49.22000 128.000
49.23500 100.000
49.25000 114.000
49.26500 109.000
49.28000 109.000
49.29500 104.000
49.31000 108.000
49.32500 100.000
49.34000 115.000
49.35500 116.000
49.37000 125.000
49.38500 110.000
49.40000 118.000
49.41500 125.000
49.43000 115.000
49.44500 120.000
49.46000 122.000
49.47500 104.000
49.49000 107.000
49.50500 116.000
49.52000 112.000
49.53500 112.000
49.55000 119.000
49.56500 103.000
49.58000 112.000
49.59500 105.000
49.61000 123.000
49.62500 107.000
49.64000 111.000
49.65500 111.000
49.67000 100.000
49.68500 113.000
49.70000 109.000
49.71500 111.000
49.73000 121.000
49.74500 129.000
49.76000 120.000
49.77500 108.000
49.79000 116.000
49.80500 125.000
49.82000 149.000
49.83500 137.000
49.85000 152.000
49.86500 129.000
49.88000 134.000
49.89500 135.000
49.91000 141.000
49.92500 127.000
49.94000 123.000
49.95500 131.000
49.97000 120.000
49.98500 117.000
50.00000 112.000
50.01500 132.000
50.03000 126.000
50.04500 121.000
50.06000 122.000
50.07500 137.000
50.09000 124.000
50.10500 126.000
50.12000 116.000
50.13500 114.000
50.15000 106.000
50.16500 114.000
50.18000 116.000
50.19500 112.000
50.21000 123.000
50.22500 122.000
50.24000 125.000
50.25500 114.000
50.27000 127.000
50.28500 139.000
50.30000 130.000
50.31500 125.000
50.33000 125.000
50.34500 134.000
50.36000 139.000
50.37500 148.000
50.39000 132.000
50.40500 145.000
50.42000 126.000
50.43500 133.000
50.45000 125.000
50.46500 120.000
50.48000 134.000
50.49500 121.000
50.51000 145.000
50.52500 131.000
50.54000 134.000
50.55500 135.000
50.57000 136.000
50.58500 120.000
50.60000 135.000
50.61500 138.000
50.63000 146.000
50.64500 139.000
50.66000 125.000
50.67500 147.000
50.69000 141.000
50.70500 122.000
50.72000 127.000
50.73500 141.000
50.75000 140.000
50.76500 130.000
50.78000 126.000
50.79500 113.000
50.81000 118.000
50.82500 113.000
50.84000 128.000
50.85500 110.000
50.87000 112.000
50.88500 117.000
50.90000 99.000
50.91500 97.000
50.93000 105.000
50.94500 103.000
50.96000 105.000
50.97500 99.000
50.99000 105.000
51.00500 117.000
51.02000 119.000
51.03500 110.000
51.05000 114.000
51.06500 109.000
51.08000 117.000
51.09500 109.000
51.11000 106.000
51.12500 112.000
51.14000 112.000
51.15500 123.000
51.17000 115.000
51.18500 118.000
51.20000 119.000
51.21500 117.000
51.23000 129.000
51.24500 115.000
51.26000 126.000
51.27500 125.000
51.29000 106.000
51.30500 122.000
51.32000 111.000
51.33500 107.000
51.35000 94.000
51.36500 102.000
51.38000 95.000
51.39500 100.000
51.41000 111.000
51.42500 122.000
51.44000 123.000
51.45500 107.000
51.47000 100.000
51.48500 98.000
51.50000 98.000
51.51500 85.000
51.53000 97.000
51.54500 117.000
51.56000 92.000
51.57500 105.000
51.59000 101.000
51.60500 108.000
51.62000 99.000
51.63500 104.000
51.65000 115.000
51.66500 130.000
51.68000 123.000
51.69500 102.000
51.71000 117.000
51.72500 120.000
51.74000 113.000
51.75500 120.000
51.77000 104.000
51.78500 108.000
51.80000 126.000
51.81500 111.000
51.83000 104.000
51.84500 110.000
51.86000 104.000
51.87500 100.000
51.89000 100.000
51.90500 100.000
51.92000 93.000
51.93500 105.000
51.95000 111.000
51.96500 108.000
51.98000 102.000
51.99500 102.000
52.01000 127.000
52.02500 105.000
52.04000 110.000
52.05500 112.000
52.07000 105.000
52.08500 114.000
52.10000 100.000
52.11500 98.000
52.13000 95.000
52.14500 106.000
52.16000 102.000
52.17500 105.000
52.19000 113.000
52.20500 112.000
52.22000 130.000
52.23500 125.000
52.25000 104.000
52.26500 131.000
52.28000 137.000
52.29500 131.000
52.31000 138.000
52.32500 127.000
52.34000 137.000
52.35500 124.000
52.37000 118.000
52.38500 112.000
52.40000 117.000
52.41500 117.000
52.43000 132.000
52.44500 115.000
52.46000 111.000
52.47500 113.000
52.49000 107.000
52.50500 107.000
52.52000 102.000
52.53500 100.000
52.55000 107.000
52.56500 98.000
52.58000 98.000
52.59500 114.000
52.61000 108.000
52.62500 103.000
52.64000 93.000
52.65500 105.000
52.67000 108.000
52.68500 114.000
52.70000 116.000
52.71500 121.000
52.73000 111.000
52.74500 116.000
52.76000 129.000
52.77500 128.000
52.79000 134.000
52.80500 125.000
52.82000 136.000
52.83500 141.000
52.85000 127.000
52.86500 121.000
52.88000 126.000
52.89500 127.000
52.91000 132.000
52.92500 139.000
52.94000 145.000
52.95500 148.000
52.97000 149.000
52.98500 145.000
53.00000 138.000
53.01500 145.000
53.03000 136.000
53.04500 130.000
53.06000 137.000
53.07500 127.000
53.09000 130.000
53.10500 113.000
53.12000 119.000
53.13500 107.000
53.15000 111.000
53.16500 117.000
53.18000 109.000
53.19500 108.000
53.21000 99.000
53.22500 127.000
53.24000 110.000
53.25500 94.000
53.27000 116.000
53.28500 121.000
53.30000 129.000
53.31500 129.000
53.33000 140.000
53.34500 139.000
53.36000 144.000
53.37500 147.000
53.39000 150.000
53.40500 147.000
53.42000 145.000
53.43500 143.000
53.45000 152.000
53.46500 138.000
53.48000 129.000
53.49500 141.000
53.51000 132.000
53.52500 139.000
53.54000 126.000
53.55500 131.000
53.57000 118.000
53.58500 115.000
53.60000 127.000
53.61500 132.000
53.63000 130.000
53.64500 131.000
53.66000 127.000
53.67500 133.000
53.69000 117.000
53.70500 115.000
53.72000 109.000
53.73500 110.000
53.75000 131.000
53.76500 118.000
53.78000 114.000
53.79500 122.000
53.81000 121.000
53.82500 129.000
53.84000 134.000
53.85500 120.000
53.87000 122.000
53.88500 131.000
53.90000 129.000
53.91500 140.000
53.93000 143.000
53.94500 161.000
53.96000 162.000
53.97500 176.000
53.99000 164.000
54.00500 140.000
54.02000 139.000
54.03500 146.000
54.05000 132.000
54.06500 114.000
54.08000 124.000
54.09500 139.000
54.11000 135.000
54.12500 147.000
54.14000 144.000
54.15500 161.000
54.17000 149.000
54.18500 156.000
54.20000 144.000
54.21500 127.000
54.23000 119.000
54.24500 110.000
54.26000 91.000
54.27500 114.000
54.29000 103.000
54.30500 119.000
54.32000 111.000
54.33500 106.000
54.35000 98.000
54.36500 106.000
54.38000 108.000
54.39500 122.000
54.41000 124.000
54.42500 112.000
54.44000 106.000
54.45500 103.000
54.47000 107.000
54.48500 112.000
54.50000 106.000
54.51500 109.000
54.53000 113.000
54.54500 98.000
54.56000 96.000
54.57500 115.000
54.59000 101.000
54.60500 119.000
54.62000 114.000
54.63500 126.000
54.65000 105.000
54.66500 123.000
54.68000 135.000
54.69500 130.000
54.71000 124.000
54.72500 121.000
54.74000 129.000
54.75500 109.000
54.77000 144.000
54.78500 144.000
54.80000 145.000
54.81500 146.000
54.83000 145.000
54.84500 140.000
54.86000 126.000
54.87500 113.000
54.89000 112.000
54.90500 136.000
54.92000 108.000
54.93500 124.000
54.95000 109.000
54.96500 116.000
54.98000 145.000
54.99500 134.000
55.01000 131.000
55.02500 117.000
55.04000 141.000
55.05500 134.000
55.07000 129.000
55.08500 130.000
55.10000 142.000
55.11500 142.000
55.13000 127.000
55.14500 101.000
55.16000 109.000
55.17500 107.000
55.19000 123.000
55.20500 121.000
55.22000 111.000
55.23500 108.000
55.25000 110.000
55.26500 100.000
55.28000 114.000
55.29500 133.000
55.31000 139.000
55.32500 124.000
55.34000 136.000
55.35500 117.000
55.37000 125.000
55.38500 115.000
55.40000 108.000
55.41500 94.000
55.43000 104.000
55.44500 93.000
55.46000 99.000
55.47500 113.000
55.49000 116.000
55.50500 104.000
55.52000 112.000
55.53500 124.000
55.55000 125.000
55.56500 115.000
55.58000 120.000
55.59500 115.000
55.61000 117.000
55.62500 122.000
55.64000 105.000
55.65500 121.000
55.67000 130.000
55.68500 136.000
55.70000 141.000
55.71500 140.000
55.73000 150.000
55.74500 139.000
55.76000 134.000
55.77500 138.000
55.79000 129.000
55.80500 137.000
55.82000 121.000
55.83500 123.000
55.85000 135.000
55.86500 118.000
55.88000 108.000
55.89500 109.000
55.91000 124.000
55.92500 106.000
55.94000 111.000
55.95500 99.000
55.97000 112.000
55.98500 124.000
56.00000 122.000
56.01500 114.000
56.03000 100.000
56.04500 111.000
56.06000 117.000
56.07500 107.000
56.09000 112.000
56.10500 127.000
56.12000 128.000
56.13500 120.000
56.15000 118.000
56.16500 125.000
56.18000 121.000
56.19500 110.000
56.21000 139.000
56.22500 127.000
56.24000 111.000
56.25500 102.000
56.27000 106.000
56.28500 115.000
56.30000 105.000
56.31500 118.000
56.33000 109.000
56.34500 105.000
56.36000 101.000
56.37500 112.000
56.39000 95.000
56.40500 106.000
56.42000 103.000
56.43500 106.000
56.45000 102.000
56.46500 105.000
56.48000 114.000
56.49500 95.000
56.51000 94.000
56.52500 113.000
56.54000 105.000
56.55500 99.000
56.57000 101.000
56.58500 109.000
56.60000 91.000
56.61500 95.000
56.63000 105.000
56.64500 104.000
56.66000 107.000
56.67500 101.000
56.69000 104.000
56.70500 106.000
56.72000 102.000
56.73500 105.000
56.75000 101.000
56.76500 111.000
56.78000 116.000
56.79500 81.000
56.81000 91.000
56.82500 100.000
56.84000 93.000
56.85500 117.000
56.87000 109.000
56.88500 108.000
56.90000 126.000
56.91500 116.000
56.93000 114.000
56.94500 108.000
56.96000 99.000
56.97500 103.000
56.99000 105.000
57.00500 98.000
57.02000 106.000
57.03500 106.000
57.05000 91.000
57.06500 87.000
57.08000 91.000
57.09500 106.000
57.11000 104.000
57.12500 100.000
57.14000 105.000
57.15500 116.000
57.17000 105.000
57.18500 99.000
57.20000 92.000
57.21500 93.000
57.23000 105.000
57.24500 84.000
57.26000 96.000
57.27500 101.000
57.29000 106.000
57.30500 100.000
57.32000 104.000
57.33500 104.000
57.35000 105.000
57.36500 95.000
57.38000 98.000
57.39500 104.000
57.41000 108.000
57.42500 93.000
57.44000 103.000
57.45500 93.000
57.47000 96.000
57.48500 96.000
57.50000 87.000
57.51500 90.000
57.53000 89.000
57.54500 92.000
57.56000 100.000
57.57500 94.000
57.59000 96.000
57.60500 97.000
57.62000 103.000
57.63500 83.000
57.65000 86.000
57.66500 109.000
57.68000 104.000
57.69500 99.000
57.71000 100.000
57.72500 96.000
57.74000 110.000
57.75500 103.000
57.77000 95.000
57.78500 101.000
57.80000 105.000
57.81500 105.000
57.83000 109.000
57.84500 91.000
57.86000 100.000
57.87500 106.000
57.89000 102.000
57.90500 100.000
57.92000 106.000
57.93500 95.000
57.95000 101.000
57.96500 96.000
57.98000 103.000
57.99500 102.000
58.01000 99.000
58.02500 85.000
58.04000 99.000
58.05500 101.000
58.07000 107.000
58.08500 107.000
58.10000 96.000
58.11500 115.000
58.13000 86.000
58.14500 112.000
58.16000 102.000
58.17500 116.000
58.19000 92.000
58.20500 101.000
58.22000 105.000
58.23500 109.000
58.25000 112.000
58.26500 108.000
58.28000 94.000
58.29500 103.000
58.31000 101.000
58.32500 92.000
58.34000 102.000
58.35500 109.000
58.37000 111.000
58.38500 120.000
58.40000 103.000
58.41500 114.000
58.43000 129.000
58.44500 132.000
58.46000 141.000
58.47500 134.000
58.49000 123.000
58.50500 124.000
58.52000 116.000
58.53500 134.000
58.55000 97.000
58.56500 93.000
58.58000 107.000
58.59500 124.000
58.61000 120.000
58.62500 127.000
58.64000 125.000
58.65500 135.000
58.67000 122.000
58.68500 115.000
58.70000 132.000
58.71500 102.000
58.73000 109.000
58.74500 108.000
58.76000 100.000
58.77500 91.000
58.79000 99.000
58.80500 102.000
58.82000 105.000
58.83500 110.000
58.85000 90.000
58.86500 89.000
58.88000 100.000
58.89500 100.000
58.91000 102.000
58.92500 110.000
58.94000 95.000
58.95500 102.000
58.97000 93.000
58.98500 88.000
59.00000 98.000
59.01500 97.000
59.03000 88.000
59.04500 90.000
59.06000 99.000
59.07500 83.000
59.09000 98.000
59.10500 86.000
59.12000 90.000
59.13500 100.000
59.15000 107.000
59.16500 106.000
59.18000 106.000
59.19500 97.000
59.21000 116.000
59.22500 113.000
59.24000 102.000
59.25500 113.000
59.27000 94.000
59.28500 99.000
59.30000 92.000
59.31500 99.000
59.33000 113.000
59.34500 106.000
59.36000 101.000
59.37500 94.000
59.39000 115.000
59.40500 114.000
59.42000 102.000
59.43500 107.000
59.45000 102.000
59.46500 105.000
59.48000 92.000
59.49500 90.000
59.51000 108.000
59.52500 107.000
59.54000 104.000
59.55500 111.000
59.57000 99.000
59.58500 99.000
59.60000 86.000
59.61500 107.000
59.63000 84.000
59.64500 92.000
59.66000 110.000
59.67500 87.000
59.69000 83.000
59.70500 94.000
59.72000 103.000
59.73500 92.000
59.75000 89.000
59.76500 99.000
59.78000 99.000
59.79500 106.000
59.81000 104.000
59.82500 98.000
59.84000 99.000
59.85500 107.000
59.87000 100.000
59.88500 96.000
59.90000 99.000
59.91500 121.000
59.93000 117.000
59.94500 129.000
59.96000 110.000
59.97500 102.000
59.99000 96.000
60.00500 102.000
60.02000 96.000
60.03500 97.000
60.05000 100.000
60.06500 100.000
60.08000 86.000
60.09500 89.000
60.11000 92.000
60.12500 108.000
60.14000 98.000
60.15500 88.000
60.17000 75.000
60.18500 87.000
60.20000 94.000
60.21500 92.000
60.23000 102.000
60.24500 90.000
60.26000 92.000
60.27500 106.000
60.29000 108.000
60.30500 112.000
60.32000 88.000
60.33500 82.000
60.35000 105.000
60.36500 98.000
60.38000 91.000
60.39500 88.000
60.41000 90.000
60.42500 99.000
60.44000 90.000
60.45500 93.000
60.47000 106.000
60.48500 115.000
60.50000 95.000
60.51500 99.000
60.53000 107.000
60.54500 108.000
60.56000 100.000
60.57500 77.000
60.59000 76.000
60.60500 81.000
60.62000 96.000
60.63500 88.000
60.65000 83.000
60.66500 80.000
60.68000 98.000
60.69500 99.000
60.71000 84.000
60.72500 99.000
60.74000 95.000
60.75500 91.000
60.77000 73.000
60.78500 82.000
60.80000 81.000
60.81500 81.000
60.83000 84.000
60.84500 94.000
60.86000 89.000
60.87500 85.000
60.89000 97.000
60.90500 87.000
60.92000 100.000
60.93500 89.000
60.95000 76.000
60.96500 80.000
60.98000 97.000
60.99500 83.000
61.01000 97.000
61.02500 98.000
61.04000 94.000
61.05500 102.000
61.07000 102.000
61.08500 85.000
61.10000 96.000
61.11500 92.000
61.13000 84.000
61.14500 93.000
61.16000 70.000
61.17500 94.000
61.19000 94.000
61.20500 88.000
61.22000 82.000
61.23500 78.000
61.25000 87.000
61.26500 92.000
61.28000 82.000
61.29500 99.000
61.31000 102.000
61.32500 88.000
61.34000 90.000
61.35500 93.000
61.37000 84.000
61.38500 81.000
61.40000 72.000
61.41500 83.000
61.43000 89.000
61.44500 98.000
61.46000 95.000
61.47500 92.000
61.49000 83.000
61.50500 78.000
61.52000 100.000
61.53500 90.000
61.55000 81.000
61.56500 88.000
61.58000 83.000
61.59500 82.000
61.61000 86.000
61.62500 94.000
61.64000 75.000
61.65500 78.000
61.67000 94.000
61.68500 93.000
61.70000 98.000
61.71500 99.000
61.73000 90.000
61.74500 102.000
61.76000 86.000
61.77500 97.000
61.79000 102.000
61.80500 91.000
61.82000 94.000
61.83500 97.000
61.85000 97.000
61.86500 83.000
61.88000 90.000
61.89500 88.000
61.91000 92.000
61.92500 102.000
61.94000 100.000
61.95500 95.000
61.97000 95.000
61.98500 83.000
