2.00000 537.000
2.01500 556.000
2.03000 549.000
2.04500 535.000
2.06000 564.000
2.07500 560.000
2.09000 597.000
2.10500 552.000
2.12000 571.000
2.13500 567.000
2.15000 549.000
2.16500 534.000
2.18000 556.000
2.19500 553.000
2.21000 558.000
2.22500 532.000
2.24000 500.000
2.25500 524.000
2.27000 503.000
2.28500 465.000
2.30000 458.000
2.31500 467.000
2.33000 446.000
2.34500 411.000
2.36000 404.000
2.37500 391.000
2.39000 362.000
2.40500 364.000
2.42000 358.000
2.43500 332.000
2.45000 310.000
2.46500 324.000
2.48000 319.000
2.49500 282.000
2.51000 272.000
2.52500 278.000
2.54000 264.000
2.55500 247.000
2.57000 243.000
2.58500 242.000
2.60000 250.000
2.61500 235.000
2.63000 236.000
2.64500 205.000
2.66000 207.000
2.67500 240.000
2.69000 226.000
2.70500 218.000
2.72000 208.000
2.73500 202.000
2.75000 195.000
2.76500 200.000
2.78000 197.000
2.79500 213.000
2.81000 199.000
2.82500 199.000
2.84000 181.000
2.85500 186.000
2.87000 171.000
2.88500 172.000
2.90000 183.000
2.91500 164.000
2.93000 170.000
2.94500 184.000
2.96000 167.000
2.97500 166.000
2.99000 164.000
3.00500 169.000
3.02000 152.000
3.03500 157.000
3.05000 151.000
3.06500 165.000
3.08000 153.000
3.09500 176.000
3.11000 168.000
3.12500 169.000
3.14000 169.000
3.15500 158.000
3.17000 153.000
3.18500 147.000
3.20000 154.000
3.21500 179.000
3.23000 160.000
3.24500 156.000
3.26000 148.000
3.27500 154.000
3.29000 156.000
3.30500 170.000
3.32000 163.000
3.33500 159.000
3.35000 155.000
3.36500 164.000
3.38000 151.000
3.39500 162.000
3.41000 150.000
3.42500 144.000
3.44000 160.000
3.45500 159.000
3.47000 148.000
3.48500 145.000
3.50000 145.000
3.51500 157.000
3.53000 138.000
3.54500 134.000
3.56000 149.000
3.57500 154.000
3.59000 136.000
3.60500 145.000
3.62000 124.000
3.63500 140.000
3.65000 138.000
3.66500 135.000
3.68000 147.000
3.69500 153.000
3.71000 144.000
3.72500 147.000
3.74000 138.000
3.75500 143.000
3.77000 127.000
3.78500 126.000
3.80000 130.000
3.81500 153.000
3.83000 128.000
3.84500 142.000
3.86000 132.000
3.87500 125.000
3.89000 137.000
3.90500 142.000
3.92000 127.000
3.93500 140.000
3.95000 139.000
3.96500 135.000
3.98000 132.000
3.99500 146.000
4.01000 131.000
4.02500 129.000
4.04000 137.000
4.05500 126.000
4.07000 132.000
4.08500 136.000
4.10000 134.000
4.11500 126.000
4.13000 119.000
4.14500 138.000
4.16000 122.000
4.17500 118.000
4.19000 129.000
4.20500 137.000
4.22000 120.000
4.23500 127.000
4.25000 142.000
4.26500 138.000
4.28000 113.000
4.29500 116.000
4.31000 134.000
4.32500 142.000
4.34000 150.000
4.35500 123.000
4.37000 117.000
4.38500 110.000
4.40000 119.000
4.41500 125.000
4.43000 149.000
4.44500 123.000
4.46000 115.000
4.47500 120.000
4.49000 123.000
4.50500 125.000
4.52000 119.000
4.53500 112.000
4.55000 117.000
4.56500 112.000
4.58000 110.000
4.59500 122.000
4.61000 125.000
4.62500 135.000
4.64000 104.000
4.65500 117.000
4.67000 128.000
4.68500 109.000
4.70000 127.000
4.71500 120.000
4.73000 123.000
4.74500 122.000
4.76000 118.000
4.77500 112.000
4.79000 118.000
4.80500 115.000
4.82000 110.000
4.83500 117.000
4.85000 111.000
4.86500 102.000
4.88000 111.000
4.89500 114.000
4.91000 119.000
4.92500 108.000
4.94000 117.000
4.95500 116.000
4.97000 113.000
4.98500 111.000
5.00000 121.000
5.01500 119.000
5.03000 122.000
5.04500 111.000
5.06000 106.000
5.07500 114.000
5.09000 107.000
5.10500 102.000
5.12000 102.000
5.13500 117.000
5.15000 117.000
5.16500 115.000
5.18000 107.000
5.19500 110.000
5.21000 112.000
5.22500 125.000
5.24000 127.000
5.25500 112.000
5.27000 118.000
5.28500 122.000
5.30000 111.000
5.31500 111.000
5.33000 93.000
5.34500 99.000
5.36000 112.000
5.37500 113.000
5.39000 114.000
5.40500 121.000
5.42000 110.000
5.43500 103.000
5.45000 105.000
5.46500 105.000
5.48000 105.000
5.49500 103.000
5.51000 123.000
5.52500 115.000
5.54000 108.000
5.55500 112.000
5.57000 105.000
5.58500 112.000
5.60000 111.000
5.61500 118.000
5.63000 114.000
5.64500 125.000
5.66000 117.000
5.67500 114.000
5.69000 110.000
5.70500 105.000
5.72000 112.000
5.73500 100.000
5.75000 121.000
5.76500 113.000
5.78000 114.000
5.79500 101.000
5.81000 90.000
5.82500 89.000
5.84000 107.000
5.85500 112.000
5.87000 114.000
5.88500 104.000
5.90000 104.000
5.91500 120.000
5.93000 129.000
5.94500 105.000
5.96000 116.000
5.97500 115.000
5.99000 118.000
6.00500 121.000
6.02000 110.000
6.03500 110.000
6.05000 117.000
6.06500 93.000
6.08000 102.000
6.09500 102.000
6.11000 127.000
6.12500 123.000
6.14000 98.000
6.15500 107.000
6.17000 116.000
6.18500 105.000
6.20000 109.000
6.21500 98.000
6.23000 113.000
6.24500 103.000
6.26000 109.000
6.27500 100.000
6.29000 110.000
6.30500 113.000
6.32000 123.000
6.33500 128.000
6.35000 108.000
6.36500 107.000
6.38000 100.000
6.39500 115.000
6.41000 92.000
6.42500 107.000
6.44000 103.000
6.45500 109.000
6.47000 117.000
6.48500 117.000
6.50000 118.000
6.51500 127.000
6.53000 106.000
6.54500 102.000
6.56000 119.000
6.57500 111.000
6.59000 96.000
6.60500 123.000
6.62000 104.000
6.63500 106.000
6.65000 117.000
6.66500 116.000
6.68000 125.000
6.69500 119.000
6.71000 128.000
6.72500 113.000
6.74000 112.000
6.75500 128.000
6.77000 104.000
6.78500 105.000
6.80000 125.000
6.81500 121.000
6.83000 121.000
6.84500 127.000
6.86000 127.000
6.87500 101.000
6.89000 126.000
6.90500 135.000
6.92000 137.000
6.93500 129.000
6.95000 116.000
6.96500 119.000
6.98000 107.000
6.99500 116.000
7.01000 124.000
7.02500 121.000
7.04000 96.000
7.05500 112.000
7.07000 130.000
7.08500 134.000
7.10000 129.000
7.11500 108.000
7.13000 118.000
7.14500 106.000
7.16000 114.000
7.17500 103.000
7.19000 113.000
7.20500 114.000
7.22000 125.000
7.23500 108.000
7.25000 125.000
7.26500 116.000
7.28000 119.000
7.29500 109.000
7.31000 105.000
7.32500 106.000
7.34000 104.000
7.35500 114.000
7.37000 108.000
7.38500 105.000
7.40000 114.000
7.41500 120.000
7.43000 110.000
7.44500 99.000
7.46000 121.000
7.47500 128.000
7.49000 119.000
7.50500 112.000
7.52000 122.000
7.53500 120.000
7.55000 108.000
7.56500 114.000
7.58000 119.000
7.59500 101.000
7.61000 106.000
7.62500 135.000
7.64000 121.000
7.65500 128.000
7.67000 126.000
7.68500 120.000
7.70000 125.000
7.71500 118.000
7.73000 116.000
7.74500 114.000
7.76000 127.000
7.77500 123.000
7.79000 119.000
7.80500 130.000
7.82000 124.000
7.83500 124.000
7.85000 120.000
7.86500 127.000
7.88000 111.000
7.89500 109.000
7.91000 115.000
7.92500 116.000
7.94000 122.000
7.95500 130.000
7.97000 121.000
7.98500 123.000
8.00000 118.000
8.01500 126.000
8.03000 117.000
8.04500 97.000
8.06000 107.000
8.07500 126.000
8.09000 123.000
8.10500 120.000
8.12000 124.000
8.13500 102.000
8.15000 115.000
8.16500 117.000
8.18000 129.000
8.19500 123.000
8.21000 111.000
8.22500 123.000
8.24000 121.000
8.25500 117.000
8.27000 93.000
8.28500 103.000
8.30000 114.000
8.31500 122.000
8.33000 110.000
8.34500 117.000
8.36000 108.000
8.37500 110.000
8.39000 121.000
8.40500 122.000
8.42000 121.000
8.43500 118.000
8.45000 134.000
8.46500 135.000
8.48000 125.000
8.49500 118.000
8.51000 122.000
8.52500 115.000
8.54000 120.000
8.55500 115.000
8.57000 119.000
8.58500 130.000
8.60000 119.000
8.61500 118.000
8.63000 116.000
8.64500 115.000
8.66000 113.000
8.67500 119.000
8.69000 115.000
8.70500 131.000
8.72000 124.000
8.73500 132.000
8.75000 130.000
8.76500 110.000
8.78000 108.000
8.79500 124.000
8.81000 124.000
8.82500 127.000
8.84000 124.000
8.85500 109.000
8.87000 125.000
8.88500 112.000
8.90000 103.000
8.91500 101.000
8.93000 118.000
8.94500 112.000
8.96000 116.000
8.97500 122.000
8.99000 118.000
9.00500 109.000
9.02000 119.000
9.03500 122.000
9.05000 113.000
9.06500 126.000
9.08000 124.000
9.09500 131.000
9.11000 120.000
9.12500 115.000
9.14000 123.000
9.15500 125.000
9.17000 115.000
9.18500 110.000
9.20000 107.000
9.21500 120.000
9.23000 130.000
9.24500 126.000
9.26000 105.000
9.27500 128.000
9.29000 125.000
9.30500 106.000
9.32000 122.000
9.33500 119.000
9.35000 115.000
9.36500 135.000
9.38000 121.000
9.39500 118.000
9.41000 125.000
9.42500 116.000
9.44000 121.000
9.45500 125.000
9.47000 127.000
9.48500 128.000
9.50000 119.000
9.51500 102.000
9.53000 141.000
9.54500 122.000
9.56000 119.000
9.57500 108.000
9.59000 118.000
9.60500 114.000
9.62000 117.000
9.63500 126.000
9.65000 138.000
9.66500 120.000
9.68000 117.000
9.69500 131.000
9.71000 124.000
9.72500 137.000
9.74000 122.000
9.75500 112.000
9.77000 119.000
9.78500 125.000
9.80000 118.000
9.81500 109.000
9.83000 110.000
9.84500 114.000
9.86000 111.000
9.87500 129.000
9.89000 137.000
9.90500 122.000
9.92000 112.000
9.93500 107.000
9.95000 111.000
9.96500 124.000
9.98000 134.000
9.99500 136.000
10.01000 133.000
10.02500 134.000
10.04000 117.000
10.05500 117.000
10.07000 129.000
10.08500 122.000
10.10000 115.000
10.11500 127.000
10.13000 115.000
10.14500 114.000
10.16000 108.000
10.17500 114.000
10.19000 124.000
10.20500 120.000
10.22000 115.000
10.23500 120.000
10.25000 120.000
10.26500 137.000
10.28000 133.000
10.29500 114.000
10.31000 125.000
10.32500 122.000
10.34000 117.000
10.35500 122.000
10.37000 129.000
10.38500 121.000
10.40000 126.000
10.41500 123.000
10.43000 133.000
10.44500 127.000
10.46000 133.000
10.47500 134.000
10.49000 136.000
10.50500 130.000
10.52000 135.000
10.53500 149.000
10.55000 131.000
10.56500 133.000
10.58000 133.000
10.59500 118.000
10.61000 111.000
10.62500 141.000
10.64000 122.000
10.65500 117.000
10.67000 122.000
10.68500 135.000
10.70000 128.000
10.71500 138.000
10.73000 138.000
10.74500 154.000
10.76000 128.000
10.77500 123.000
10.79000 120.000
10.80500 139.000
10.82000 147.000
10.83500 156.000
10.85000 142.000
10.86500 123.000
10.88000 116.000
10.89500 131.000
10.91000 149.000
10.92500 129.000
10.94000 130.000
10.95500 136.000
10.97000 143.000
10.98500 143.000
11.00000 131.000
11.01500 123.000
11.03000 127.000
11.04500 135.000
11.06000 139.000
11.07500 154.000
11.09000 130.000
11.10500 123.000
11.12000 141.000
11.13500 120.000
11.15000 124.000
11.16500 130.000
11.18000 133.000
11.19500 126.000
11.21000 112.000
11.22500 123.000
11.24000 135.000
11.25500 127.000
11.27000 150.000
11.28500 153.000
11.30000 134.000
11.31500 123.000
11.33000 131.000
11.34500 129.000
11.36000 147.000
11.37500 138.000
11.39000 120.000
11.40500 124.000
11.42000 129.000
11.43500 119.000
11.45000 138.000
11.46500 120.000
11.48000 123.000
11.49500 140.000
11.51000 138.000
11.52500 149.000
11.54000 140.000
11.55500 138.000
11.57000 134.000
11.58500 144.000
11.60000 120.000
11.61500 127.000
11.63000 132.000
11.64500 137.000
11.66000 133.000
11.67500 134.000
11.69000 151.000
11.70500 133.000
11.72000 129.000
11.73500 123.000
11.75000 138.000
11.76500 156.000
11.78000 147.000
11.79500 139.000
11.81000 126.000
11.82500 126.000
11.84000 138.000
11.85500 146.000
11.87000 135.000
11.88500 127.000
11.90000 135.000
11.91500 128.000
11.93000 113.000
11.94500 132.000
11.96000 124.000
11.97500 126.000
11.99000 142.000
12.00500 130.000
12.02000 126.000
12.03500 139.000
12.05000 136.000
12.06500 128.000
12.08000 127.000
12.09500 144.000
12.11000 166.000
12.12500 163.000
12.14000 155.000
12.15500 149.000
12.17000 142.000
12.18500 128.000
12.20000 131.000
12.21500 136.000
12.23000 142.000
12.24500 138.000
12.26000 159.000
12.27500 146.000
12.29000 145.000
12.30500 134.000
12.32000 151.000
12.33500 134.000
12.35000 133.000
12.36500 152.000
12.38000 143.000
12.39500 131.000
12.41000 138.000
12.42500 149.000
12.44000 154.000
12.45500 129.000
12.47000 133.000
12.48500 146.000
12.50000 145.000
12.51500 149.000
12.53000 155.000
12.54500 126.000
12.56000 159.000
12.57500 166.000
12.59000 151.000
12.60500 135.000
12.62000 154.000
12.63500 153.000
12.65000 165.000
12.66500 157.000
12.68000 160.000
12.69500 148.000
12.71000 152.000
12.72500 160.000
12.74000 134.000
12.75500 142.000
12.77000 146.000
12.78500 175.000
12.80000 159.000
12.81500 144.000
12.83000 166.000
12.84500 144.000
12.86000 158.000
12.87500 166.000
12.89000 142.000
12.90500 159.000
12.92000 167.000
12.93500 159.000
12.95000 151.000
12.96500 139.000
12.98000 145.000
12.99500 140.000
13.01000 169.000
13.02500 157.000
13.04000 151.000
13.05500 161.000
13.07000 159.000
13.08500 168.000
13.10000 148.000
13.11500 145.000
13.13000 159.000
13.14500 156.000
13.16000 141.000
13.17500 170.000
13.19000 159.000
13.20500 164.000
13.22000 165.000
13.23500 177.000
13.25000 172.000
13.26500 144.000
13.28000 161.000
13.29500 161.000
13.31000 160.000
13.32500 153.000
13.34000 166.000
13.35500 156.000
13.37000 167.000
13.38500 184.000
13.40000 169.000
13.41500 162.000
13.43000 158.000
13.44500 180.000
13.46000 165.000
13.47500 162.000
13.49000 174.000
13.50500 177.000
13.52000 162.000
13.53500 163.000
13.55000 164.000
13.56500 149.000
13.58000 170.000
13.59500 167.000
13.61000 170.000
13.62500 185.000
13.64000 186.000
13.65500 176.000
13.67000 198.000
13.68500 193.000
13.70000 168.000
13.71500 169.000
13.73000 161.000
13.74500 163.000
13.76000 156.000
13.77500 166.000
13.79000 187.000
13.80500 189.000
13.82000 174.000
13.83500 187.000
13.85000 177.000
13.86500 165.000
13.88000 171.000
13.89500 151.000
13.91000 172.000
13.92500 173.000
13.94000 172.000
13.95500 169.000
13.97000 186.000
13.98500 188.000
14.00000 192.000
14.01500 177.000
14.03000 193.000
14.04500 190.000
14.06000 159.000
14.07500 179.000
14.09000 168.000
14.10500 159.000
14.12000 174.000
14.13500 161.000
14.15000 179.000
14.16500 192.000
14.18000 183.000
14.19500 195.000
14.21000 192.000
14.22500 164.000
14.24000 184.000
14.25500 173.000
14.27000 179.000
14.28500 202.000
14.30000 190.000
14.31500 187.000
14.33000 176.000
14.34500 190.000
14.36000 200.000
14.37500 206.000
14.39000 180.000
14.40500 173.000
14.42000 173.000
14.43500 188.000
14.45000 191.000
14.46500 173.000
14.48000 177.000
14.49500 178.000
14.51000 190.000
14.52500 182.000
14.54000 164.000
14.55500 173.000
14.57000 184.000
14.58500 179.000
14.60000 191.000
14.61500 174.000
14.63000 182.000
14.64500 181.000
14.66000 184.000
14.67500 176.000
14.69000 181.000
14.70500 188.000
14.72000 177.000
14.73500 191.000
14.75000 209.000
14.76500 188.000
14.78000 175.000
14.79500 178.000
14.81000 192.000
14.82500 173.000
14.84000 207.000
14.85500 181.000
14.87000 184.000
14.88500 183.000
14.90000 194.000
14.91500 165.000
14.93000 165.000
14.94500 166.000
14.96000 164.000
14.97500 177.000
14.99000 179.000
15.00500 166.000
15.02000 166.000
15.03500 185.000
15.05000 190.000
15.06500 185.000
15.08000 184.000
15.09500 199.000
15.11000 195.000
15.12500 177.000
15.14000 190.000
15.15500 195.000
15.17000 175.000
15.18500 181.000
15.20000 174.000
15.21500 177.000
15.23000 191.000
15.24500 191.000
15.26000 182.000
15.27500 195.000
15.29000 173.000
15.30500 169.000
15.32000 180.000
15.33500 187.000
15.35000 203.000
15.36500 186.000
15.38000 183.000
15.39500 178.000
15.41000 178.000
15.42500 192.000
15.44000 191.000
15.45500 185.000
15.47000 188.000
15.48500 205.000
15.50000 191.000
15.51500 180.000
15.53000 175.000
15.54500 204.000
15.56000 167.000
15.57500 173.000
15.59000 191.000
15.60500 193.000
15.62000 199.000
15.63500 193.000
15.65000 197.000
15.66500 205.000
15.68000 216.000
15.69500 190.000
15.71000 186.000
15.72500 191.000
15.74000 193.000
15.75500 210.000
15.77000 178.000
15.78500 177.000
15.80000 192.000
15.81500 202.000
15.83000 171.000
15.84500 210.000
15.86000 207.000
15.87500 210.000
15.89000 205.000
15.90500 184.000
15.92000 205.000
15.93500 215.000
15.95000 204.000
15.96500 217.000
15.98000 202.000
15.99500 190.000
16.01000 209.000
16.02500 217.000
16.04000 199.000
16.05500 184.000
16.07000 207.000
16.08500 210.000
16.10000 203.000
16.11500 205.000
16.13000 210.000
16.14500 200.000
16.16000 202.000
16.17500 193.000
16.19000 188.000
16.20500 189.000
16.22000 186.000
16.23500 186.000
16.25000 170.000
16.26500 206.000
16.28000 196.000
16.29500 186.000
16.31000 190.000
16.32500 187.000
16.34000 199.000
16.35500 177.000
16.37000 180.000
16.38500 197.000
16.40000 188.000
16.41500 202.000
16.43000 182.000
16.44500 187.000
16.46000 197.000
16.47500 202.000
16.49000 212.000
16.50500 204.000
16.52000 198.000
16.53500 196.000
16.55000 160.000
16.56500 168.000
16.58000 195.000
16.59500 196.000
16.61000 195.000
16.62500 213.000
16.64000 187.000
16.65500 207.000
16.67000 218.000
16.68500 200.000
16.70000 214.000
16.71500 198.000
16.73000 215.000
16.74500 198.000
16.76000 182.000
16.77500 177.000
16.79000 181.000
16.80500 178.000
16.82000 210.000
16.83500 205.000
16.85000 191.000
16.86500 193.000
16.88000 196.000
16.89500 196.000
16.91000 194.000
16.92500 197.000
16.94000 181.000
16.95500 195.000
16.97000 188.000
16.98500 192.000
17.00000 191.000
17.01500 214.000
17.03000 200.000
17.04500 210.000
17.06000 215.000
17.07500 217.000
17.09000 207.000
17.10500 207.000
17.12000 203.000
17.13500 227.000
17.15000 191.000
17.16500 206.000
17.18000 201.000
17.19500 199.000
17.21000 190.000
17.22500 207.000
17.24000 203.000
17.25500 187.000
17.27000 209.000
17.28500 209.000
17.30000 211.000
17.31500 197.000
17.33000 194.000
17.34500 186.000
17.36000 188.000
17.37500 192.000
17.39000 206.000
17.40500 217.000
17.42000 211.000
17.43500 213.000
17.45000 206.000
17.46500 203.000
17.48000 217.000
17.49500 218.000
17.51000 204.000
17.52500 204.000
17.54000 198.000
17.55500 187.000
17.57000 196.000
17.58500 226.000
17.60000 207.000
17.61500 186.000
17.63000 207.000
17.64500 219.000
17.66000 205.000
17.67500 195.000
17.69000 211.000
17.70500 205.000
17.72000 208.000
17.73500 203.000
17.75000 190.000
17.76500 188.000
17.78000 204.000
17.79500 214.000
17.81000 207.000
17.82500 215.000
17.84000 208.000
17.85500 200.000
17.87000 218.000
17.88500 222.000
17.90000 205.000
17.91500 210.000
17.93000 215.000
17.94500 206.000
17.96000 201.000
17.97500 213.000
17.99000 218.000
18.00500 215.000
18.02000 216.000
18.03500 217.000
18.05000 224.000
18.06500 207.000
18.08000 202.000
18.09500 217.000
18.11000 211.000
18.12500 210.000
18.14000 223.000
18.15500 219.000
18.17000 214.000
18.18500 224.000
18.20000 238.000
18.21500 218.000
18.23000 225.000
18.24500 224.000
18.26000 214.000
18.27500 215.000
18.29000 217.000
18.30500 197.000
18.32000 199.000
18.33500 231.000
18.35000 231.000
18.36500 227.000
18.38000 239.000
18.39500 243.000
18.41000 246.000
18.42500 266.000
18.44000 251.000
18.45500 248.000
18.47000 253.000
18.48500 255.000
18.50000 257.000
18.51500 256.000
18.53000 278.000
18.54500 287.000
18.56000 287.000
18.57500 273.000
18.59000 306.000
18.60500 292.000
18.62000 318.000
18.63500 324.000
18.65000 321.000
18.66500 340.000
18.68000 306.000
18.69500 318.000
18.71000 326.000
18.72500 334.000
18.74000 338.000
18.75500 301.000
18.77000 311.000
18.78500 330.000
18.80000 321.000
18.81500 346.000
18.83000 296.000
18.84500 272.000
18.86000 296.000
18.87500 276.000
18.89000 272.000
18.90500 276.000
18.92000 269.000
18.93500 256.000
18.95000 257.000
18.96500 259.000
18.98000 247.000
18.99500 248.000
19.01000 252.000
19.02500 256.000
19.04000 237.000
19.05500 218.000
19.07000 244.000
19.08500 239.000
19.10000 215.000
19.11500 233.000
19.13000 244.000
19.14500 253.000
19.16000 249.000
19.17500 243.000
19.19000 224.000
19.20500 229.000
19.22000 204.000
19.23500 202.000
19.25000 216.000
19.26500 233.000
19.28000 204.000
19.29500 235.000
19.31000 217.000
19.32500 219.000
19.34000 221.000
19.35500 221.000
19.37000 238.000
19.38500 238.000
19.40000 237.000
19.41500 229.000
19.43000 207.000
19.44500 213.000
19.46000 224.000
19.47500 229.000
19.49000 226.000
19.50500 222.000
19.52000 218.000
19.53500 211.000
19.55000 230.000
19.56500 208.000
19.58000 222.000
19.59500 231.000
19.61000 217.000
19.62500 218.000
19.64000 215.000
19.65500 210.000
19.67000 249.000
19.68500 233.000
19.70000 215.000
19.71500 215.000
19.73000 221.000
19.74500 227.000
19.76000 229.000
19.77500 222.000
19.79000 221.000
19.80500 226.000
19.82000 212.000
19.83500 204.000
19.85000 226.000
19.86500 218.000
19.88000 239.000
19.89500 243.000
19.91000 231.000
19.92500 214.000
19.94000 202.000
19.95500 204.000
19.97000 210.000
19.98500 217.000
20.00000 236.000
20.01500 231.000
20.03000 221.000
20.04500 200.000
20.06000 218.000
20.07500 218.000
20.09000 236.000
20.10500 227.000
20.12000 239.000
20.13500 221.000
20.15000 219.000
20.16500 215.000
20.18000 233.000
20.19500 232.000
20.21000 220.000
20.22500 238.000
20.24000 241.000
20.25500 241.000
20.27000 221.000
20.28500 229.000
20.30000 216.000
20.31500 199.000
20.33000 206.000
20.34500 216.000
20.36000 216.000
20.37500 211.000
20.39000 211.000
20.40500 209.000
20.42000 221.000
20.43500 230.000
20.45000 225.000
20.46500 215.000
20.48000 225.000
20.49500 229.000
20.51000 221.000
20.52500 224.000
20.54000 245.000
20.55500 222.000
20.57000 223.000
20.58500 220.000
20.60000 209.000
20.61500 227.000
20.63000 212.000
20.64500 213.000
20.66000 237.000
20.67500 245.000
20.69000 214.000
20.70500 228.000
20.72000 223.000
20.73500 226.000
20.75000 223.000
20.76500 213.000
20.78000 208.000
20.79500 191.000
20.81000 233.000
20.82500 246.000
20.84000 242.000
20.85500 221.000
20.87000 203.000
20.88500 210.000
20.90000 198.000
20.91500 211.000
20.93000 244.000
20.94500 226.000
20.96000 240.000
20.97500 235.000
20.99000 246.000
21.00500 212.000
21.02000 211.000
21.03500 229.000
21.05000 210.000
21.06500 224.000
21.08000 242.000
21.09500 234.000
21.11000 207.000
21.12500 226.000
21.14000 227.000
21.15500 232.000
21.17000 246.000
21.18500 230.000
21.20000 228.000
21.21500 229.000
21.23000 234.000
21.24500 216.000
21.26000 247.000
21.27500 225.000
21.29000 212.000
21.30500 241.000
21.32000 244.000
21.33500 221.000
21.35000 250.000
21.36500 227.000
21.38000 217.000
21.39500 217.000
21.41000 212.000
21.42500 233.000
21.44000 228.000
21.45500 222.000
21.47000 212.000
21.48500 235.000
21.50000 218.000
21.51500 203.000
21.53000 236.000
21.54500 242.000
21.56000 220.000
21.57500 240.000
21.59000 239.000
21.60500 211.000
21.62000 247.000
21.63500 232.000
21.65000 221.000
21.66500 231.000
21.68000 251.000
21.69500 233.000
21.71000 227.000
21.72500 223.000
21.74000 249.000
21.75500 241.000
21.77000 222.000
21.78500 215.000
21.80000 228.000
21.81500 234.000
21.83000 228.000
21.84500 251.000
21.86000 237.000
21.87500 240.000
21.89000 256.000
21.90500 261.000
21.92000 240.000
21.93500 260.000
21.95000 226.000
21.96500 241.000
21.98000 252.000
21.99500 250.000
22.01000 246.000
22.02500 230.000
22.04000 244.000
22.05500 261.000
22.07000 238.000
22.08500 224.000
22.10000 255.000
22.11500 245.000
22.13000 233.000
22.14500 227.000
22.16000 227.000
22.17500 235.000
22.19000 230.000
22.20500 233.000
22.22000 226.000
22.23500 232.000
22.25000 220.000
22.26500 230.000
22.28000 214.000
22.29500 215.000
22.31000 222.000
22.32500 196.000
22.34000 234.000
22.35500 233.000
22.37000 213.000
22.38500 222.000
22.40000 217.000
22.41500 227.000
22.43000 241.000
22.44500 248.000
22.46000 248.000
22.47500 220.000
22.49000 218.000
22.50500 260.000
22.52000 264.000
22.53500 250.000
22.55000 219.000
22.56500 229.000
22.58000 225.000
22.59500 225.000
22.61000 240.000
22.62500 266.000
22.64000 226.000
22.65500 234.000
22.67000 243.000
22.68500 226.000
22.70000 221.000
22.71500 243.000
22.73000 220.000
22.74500 226.000
22.76000 228.000
22.77500 236.000
22.79000 233.000
22.80500 234.000
22.82000 240.000
22.83500 215.000
22.85000 238.000
22.86500 247.000
22.88000 230.000
22.89500 242.000
22.91000 229.000
22.92500 254.000
22.94000 231.000
22.95500 218.000
22.97000 248.000
22.98500 243.000
23.00000 236.000
23.01500 215.000
23.03000 228.000
23.04500 213.000
23.06000 224.000
23.07500 250.000
23.09000 236.000
23.10500 239.000
23.12000 230.000
23.13500 240.000
23.15000 257.000
23.16500 227.000
23.18000 234.000
23.19500 249.000
23.21000 239.000
23.22500 253.000
23.24000 237.000
23.25500 271.000
23.27000 236.000
23.28500 239.000
23.30000 235.000
23.31500 220.000
23.33000 236.000
23.34500 238.000
23.36000 237.000
23.37500 225.000
23.39000 238.000
23.40500 225.000
23.42000 259.000
23.43500 239.000
23.45000 245.000
23.46500 249.000
23.48000 240.000
23.49500 232.000
23.51000 237.000
23.52500 241.000
23.54000 262.000
23.55500 237.000
23.57000 255.000
23.58500 247.000
23.60000 256.000
23.61500 263.000
23.63000 237.000
23.64500 242.000
23.66000 249.000
23.67500 288.000
23.69000 265.000
23.70500 247.000
23.72000 255.000
23.73500 262.000
23.75000 275.000
23.76500 273.000
23.78000 246.000
23.79500 251.000
23.81000 262.000
23.82500 263.000
23.84000 262.000
23.85500 264.000
23.87000 241.000
23.88500 280.000
23.90000 284.000
23.91500 291.000
23.93000 270.000
23.94500 257.000
23.96000 256.000
23.97500 267.000
23.99000 292.000
24.00500 293.000
24.02000 312.000
24.03500 314.000
24.05000 296.000
24.06500 300.000
24.08000 298.000
24.09500 301.000
24.11000 327.000
24.12500 310.000
24.14000 297.000
24.15500 351.000
24.17000 365.000
24.18500 349.000
24.20000 352.000
24.21500 354.000
24.23000 374.000
24.24500 362.000
24.26000 385.000
24.27500 404.000
24.29000 385.000
24.30500 399.000
24.32000 417.000
24.33500 414.000
24.35000 405.000
24.36500 427.000
24.38000 411.000
24.39500 376.000
24.41000 373.000
24.42500 370.000
24.44000 368.000
24.45500 388.000
24.47000 371.000
24.48500 367.000
24.50000 365.000
24.51500 365.000
24.53000 343.000
24.54500 350.000
24.56000 315.000
24.57500 326.000
24.59000 315.000
24.60500 305.000
24.62000 312.000
24.63500 316.000
24.65000 309.000
24.66500 308.000
24.68000 295.000
24.69500 278.000
24.71000 274.000
24.72500 275.000
24.74000 289.000
24.75500 291.000
24.77000 283.000
24.78500 292.000
24.80000 254.000
24.81500 268.000
24.83000 275.000
24.84500 276.000
24.86000 261.000
24.87500 252.000
24.89000 251.000
24.90500 265.000
24.92000 277.000
24.93500 275.000
24.95000 273.000
24.96500 247.000
24.98000 252.000
24.99500 262.000
25.01000 258.000
25.02500 236.000
25.04000 230.000
25.05500 281.000
25.07000 257.000
25.08500 255.000
25.10000 240.000
25.11500 248.000
25.13000 267.000
25.14500 259.000
25.16000 248.000
25.17500 253.000
25.19000 231.000
25.20500 241.000
25.22000 250.000
25.23500 270.000
25.25000 245.000
25.26500 241.000
25.28000 237.000
25.29500 235.000
25.31000 242.000
25.32500 251.000
25.34000 231.000
25.35500 249.000
25.37000 241.000
25.38500 228.000
25.40000 226.000
25.41500 244.000
25.43000 241.000
25.44500 253.000
25.46000 225.000
25.47500 223.000
25.49000 229.000
25.50500 246.000
25.52000 245.000
25.53500 268.000
25.55000 243.000
25.56500 226.000
25.58000 244.000
25.59500 261.000
25.61000 243.000
25.62500 232.000
25.64000 217.000
25.65500 240.000
25.67000 256.000
25.68500 252.000
25.70000 253.000
25.71500 227.000
25.73000 237.000
25.74500 253.000
25.76000 228.000
25.77500 232.000
25.79000 241.000
25.80500 227.000
25.82000 218.000
25.83500 238.000
25.85000 232.000
25.86500 235.000
25.88000 237.000
25.89500 237.000
25.91000 238.000
25.92500 224.000
25.94000 219.000
25.95500 241.000
25.97000 238.000
25.98500 241.000
26.00000 212.000
26.01500 247.000
26.03000 255.000
26.04500 246.000
26.06000 238.000
26.07500 221.000
26.09000 211.000
26.10500 238.000
26.12000 257.000
26.13500 256.000
26.15000 239.000
26.16500 266.000
26.18000 255.000
26.19500 238.000
26.21000 198.000
26.22500 233.000
26.24000 241.000
26.25500 240.000
26.27000 241.000
26.28500 260.000
26.30000 254.000
26.31500 222.000
26.33000 206.000
26.34500 221.000
26.36000 235.000
26.37500 220.000
26.39000 240.000
26.40500 220.000
26.42000 220.000
26.43500 233.000
26.45000 225.000
26.46500 224.000
26.48000 236.000
26.49500 242.000
26.51000 222.000
26.52500 231.000
26.54000 241.000
26.55500 234.000
26.57000 214.000
26.58500 232.000
26.60000 240.000
26.61500 235.000
26.63000 260.000
26.64500 219.000
26.66000 227.000
26.67500 245.000
26.69000 241.000
26.70500 226.000
26.72000 224.000
26.73500 213.000
26.75000 224.000
26.76500 229.000
26.78000 238.000
26.79500 221.000
26.81000 223.000
26.82500 219.000
26.84000 234.000
26.85500 232.000
26.87000 229.000
26.88500 223.000
26.90000 257.000
26.91500 229.000
26.93000 234.000
26.94500 239.000
26.96000 263.000
26.97500 253.000
26.99000 242.000
27.00500 214.000
27.02000 229.000
27.03500 240.000
27.05000 240.000
27.06500 210.000
27.08000 215.000
27.09500 213.000
27.11000 222.000
27.12500 231.000
27.14000 222.000
27.15500 246.000
27.17000 242.000
27.18500 252.000
27.20000 206.000
27.21500 237.000
27.23000 243.000
27.24500 218.000
27.26000 236.000
27.27500 201.000
27.29000 210.000
27.30500 248.000
27.32000 236.000
27.33500 226.000
27.35000 234.000
27.36500 211.000
27.38000 238.000
27.39500 252.000
27.41000 245.000
27.42500 223.000
27.44000 237.000
27.45500 225.000
27.47000 230.000
27.48500 230.000
27.50000 229.000
27.51500 262.000
27.53000 247.000
27.54500 242.000
27.56000 245.000
27.57500 225.000
27.59000 260.000
27.60500 239.000
27.62000 255.000
27.63500 288.000
27.65000 283.000
27.66500 266.000
27.68000 271.000
27.69500 303.000
27.71000 311.000
27.72500 295.000
27.74000 295.000
27.75500 330.000
27.77000 338.000
27.78500 377.000
27.80000 371.000
27.81500 413.000
27.83000 423.000
27.84500 458.000
27.86000 420.000
27.87500 441.000
27.89000 498.000
27.90500 504.000
27.92000 537.000
27.93500 546.000
27.95000 530.000
27.96500 524.000
27.98000 526.000
27.99500 528.000
28.01000 543.000
28.02500 444.000
28.04000 415.000
28.05500 384.000
28.07000 371.000
28.08500 334.000
28.10000 319.000
28.11500 298.000
28.13000 288.000
28.14500 276.000
28.16000 282.000
28.17500 267.000
28.19000 251.000
28.20500 222.000
28.22000 255.000
28.23500 260.000
28.25000 259.000
28.26500 223.000
28.28000 239.000
28.29500 233.000
28.31000 244.000
28.32500 230.000
28.34000 221.000
28.35500 250.000
28.37000 241.000
28.38500 250.000
28.40000 228.000
28.41500 236.000
28.43000 235.000
28.44500 222.000
28.46000 209.000
28.47500 220.000
28.49000 248.000
28.50500 242.000
28.52000 241.000
28.53500 210.000
28.55000 200.000
28.56500 211.000
28.58000 204.000
28.59500 235.000
28.61000 238.000
28.62500 223.000
28.64000 206.000
28.65500 205.000
28.67000 221.000
28.68500 224.000
28.70000 212.000
28.71500 207.000
28.73000 222.000
28.74500 227.000
28.76000 221.000
28.77500 221.000
28.79000 213.000
28.80500 213.000
28.82000 196.000
28.83500 199.000
28.85000 190.000
28.86500 221.000
28.88000 194.000
28.89500 196.000
28.91000 213.000
28.92500 220.000
28.94000 208.000
28.95500 214.000
28.97000 199.000
28.98500 195.000
29.00000 203.000
29.01500 188.000
29.03000 220.000
29.04500 215.000
29.06000 220.000
29.07500 206.000
29.09000 214.000
29.10500 212.000
29.12000 216.000
29.13500 206.000
29.15000 214.000
29.16500 205.000
29.18000 201.000
29.19500 182.000
29.21000 196.000
29.22500 218.000
29.24000 220.000
29.25500 214.000
29.27000 223.000
29.28500 218.000
29.30000 206.000
29.31500 196.000
29.33000 204.000
29.34500 214.000
29.36000 181.000
29.37500 197.000
29.39000 200.000
29.40500 198.000
29.42000 181.000
29.43500 213.000
29.45000 196.000
29.46500 194.000
29.48000 192.000
29.49500 194.000
29.51000 205.000
29.52500 209.000
29.54000 200.000
29.55500 211.000
29.57000 207.000
29.58500 212.000
29.60000 217.000
29.61500 218.000
29.63000 218.000
29.64500 212.000
29.66000 211.000
29.67500 201.000
29.69000 215.000
29.70500 201.000
29.72000 192.000
29.73500 207.000
29.75000 197.000
29.76500 178.000
29.78000 204.000
29.79500 207.000
29.81000 204.000
29.82500 192.000
29.84000 214.000
29.85500 203.000
29.87000 197.000
29.88500 204.000
29.90000 197.000
29.91500 190.000
29.93000 184.000
29.94500 187.000
29.96000 192.000
29.97500 225.000
29.99000 204.000
30.00500 187.000
30.02000 191.000
30.03500 201.000
30.05000 193.000
30.06500 164.000
30.08000 202.000
30.09500 202.000
30.11000 216.000
30.12500 187.000
30.14000 178.000
30.15500 188.000
30.17000 203.000
30.18500 207.000
30.20000 196.000
30.21500 197.000
30.23000 191.000
30.24500 204.000
30.26000 200.000
30.27500 208.000
30.29000 199.000
30.30500 192.000
30.32000 206.000
30.33500 213.000
30.35000 225.000
30.36500 193.000
30.38000 190.000
30.39500 216.000
30.41000 207.000
30.42500 218.000
30.44000 212.000
30.45500 218.000
30.47000 194.000
30.48500 216.000
30.50000 220.000
30.51500 206.000
30.53000 231.000
30.54500 208.000
30.56000 221.000
30.57500 226.000
30.59000 230.000
30.60500 219.000
30.62000 199.000
30.63500 204.000
30.65000 196.000
30.66500 199.000
30.68000 197.000
30.69500 222.000
30.71000 231.000
30.72500 222.000
30.74000 205.000
30.75500 186.000
30.77000 206.000
30.78500 213.000
30.80000 208.000
30.81500 212.000
30.83000 203.000
30.84500 217.000
30.86000 218.000
30.87500 205.000
30.89000 210.000
30.90500 214.000
30.92000 205.000
30.93500 190.000
30.95000 190.000
30.96500 190.000
30.98000 195.000
30.99500 209.000
31.01000 215.000
31.02500 217.000
31.04000 190.000
31.05500 187.000
31.07000 213.000
31.08500 211.000
31.10000 204.000
31.11500 198.000
31.13000 214.000
31.14500 211.000
31.16000 176.000
31.17500 188.000
31.19000 175.000
31.20500 178.000
31.22000 176.000
31.23500 190.000
31.25000 194.000
31.26500 202.000
31.28000 182.000
31.29500 184.000
31.31000 183.000
31.32500 196.000
31.34000 203.000
31.35500 188.000
31.37000 189.000
31.38500 170.000
31.40000 177.000
31.41500 183.000
31.43000 180.000
31.44500 177.000
31.46000 189.000
31.47500 188.000
31.49000 191.000
31.50500 177.000
31.52000 158.000
31.53500 213.000
31.55000 180.000
31.56500 186.000
31.58000 176.000
31.59500 175.000
31.61000 175.000
31.62500 183.000
31.64000 192.000
31.65500 190.000
31.67000 171.000
31.68500 152.000
31.70000 179.000
31.71500 201.000
31.73000 181.000
31.74500 175.000
31.76000 171.000
31.77500 187.000
31.79000 202.000
31.80500 181.000
31.82000 174.000
31.83500 161.000
31.85000 178.000
31.86500 153.000
31.88000 176.000
31.89500 171.000
31.91000 154.000
31.92500 156.000
31.94000 164.000
31.95500 178.000
31.97000 191.000
31.98500 192.000
32.00000 187.000
32.01500 173.000
32.03000 182.000
32.04500 168.000
32.06000 161.000
32.07500 164.000
32.09000 181.000
32.10500 162.000
32.12000 162.000
32.13500 179.000
32.15000 171.000
32.16500 187.000
32.18000 167.000
32.19500 169.000
32.21000 195.000
32.22500 201.000
32.24000 184.000
32.25500 168.000
32.27000 158.000
32.28500 181.000
32.30000 189.000
32.31500 188.000
32.33000 156.000
32.34500 180.000
32.36000 164.000
32.37500 188.000
32.39000 188.000
32.40500 159.000
32.42000 171.000
32.43500 169.000
32.45000 167.000
32.46500 175.000
32.48000 181.000
32.49500 195.000
32.51000 180.000
32.52500 157.000
32.54000 171.000
32.55500 170.000
32.57000 166.000
32.58500 158.000
32.60000 158.000
32.61500 174.000
32.63000 173.000
32.64500 173.000
32.66000 198.000
32.67500 165.000
32.69000 171.000
32.70500 192.000
32.72000 171.000
32.73500 166.000
32.75000 161.000
32.76500 170.000
32.78000 172.000
32.79500 176.000
32.81000 170.000
32.82500 160.000
32.84000 176.000
32.85500 167.000
32.87000 162.000
32.88500 196.000
32.90000 202.000
32.91500 146.000
32.93000 180.000
32.94500 175.000
32.96000 188.000
32.97500 167.000
32.99000 184.000
33.00500 186.000
33.02000 182.000
33.03500 177.000
33.05000 149.000
33.06500 143.000
33.08000 175.000
33.09500 186.000
33.11000 150.000
33.12500 165.000
33.14000 163.000
33.15500 176.000
33.17000 175.000
33.18500 191.000
33.20000 160.000
33.21500 167.000
33.23000 149.000
33.24500 138.000
33.26000 163.000
33.27500 153.000
33.29000 162.000
33.30500 166.000
33.32000 171.000
33.33500 145.000
33.35000 151.000
33.36500 133.000
33.38000 139.000
33.39500 158.000
33.41000 150.000
33.42500 158.000
33.44000 169.000
33.45500 153.000
33.47000 142.000
33.48500 146.000
33.50000 144.000
33.51500 161.000
33.53000 145.000
33.54500 152.000
33.56000 164.000
33.57500 153.000
33.59000 137.000
33.60500 152.000
33.62000 159.000
33.63500 155.000
33.65000 161.000
33.66500 144.000
33.68000 165.000
33.69500 160.000
33.71000 150.000
33.72500 164.000
33.74000 153.000
33.75500 163.000
33.77000 157.000
33.78500 149.000
33.80000 148.000
33.81500 164.000
33.83000 143.000
33.84500 157.000
33.86000 164.000
33.87500 163.000
33.89000 157.000
33.90500 147.000
33.92000 153.000
33.93500 155.000
33.95000 146.000
33.96500 145.000
33.98000 148.000
33.99500 167.000
34.01000 152.000
34.02500 171.000
34.04000 158.000
34.05500 145.000
34.07000 158.000
34.08500 148.000
34.10000 121.000
34.11500 144.000
34.13000 139.000
34.14500 151.000
34.16000 158.000
34.17500 178.000
34.19000 165.000
34.20500 143.000
34.22000 136.000
34.23500 140.000
34.25000 131.000
34.26500 160.000
34.28000 169.000
34.29500 166.000
34.31000 158.000
34.32500 159.000
34.34000 134.000
34.35500 147.000
34.37000 145.000
34.38500 151.000
34.40000 167.000
34.41500 159.000
34.43000 156.000
34.44500 144.000
34.46000 162.000
34.47500 143.000
34.49000 143.000
34.50500 164.000
34.52000 158.000
34.53500 146.000
34.55000 152.000
34.56500 153.000
34.58000 142.000
34.59500 163.000
34.61000 146.000
34.62500 146.000
34.64000 139.000
34.65500 143.000
34.67000 141.000
34.68500 141.000
34.70000 150.000
34.71500 134.000
34.73000 144.000
34.74500 142.000
34.76000 146.000
34.77500 136.000
34.79000 160.000
34.80500 158.000
34.82000 141.000
34.83500 124.000
34.85000 155.000
34.86500 155.000
34.88000 163.000
34.89500 149.000
34.91000 162.000
34.92500 160.000
34.94000 149.000
34.95500 146.000
34.97000 138.000
34.98500 140.000
35.00000 146.000
35.01500 148.000
35.03000 138.000
35.04500 151.000
35.06000 141.000
35.07500 154.000
35.09000 154.000
35.10500 148.000
35.12000 157.000
35.13500 153.000
35.15000 172.000
35.16500 165.000
35.18000 147.000
35.19500 148.000
35.21000 153.000
35.22500 147.000
35.24000 131.000
35.25500 148.000
35.27000 137.000
35.28500 146.000
35.30000 145.000
35.31500 181.000
35.33000 154.000
35.34500 138.000
35.36000 145.000
35.37500 146.000
35.39000 143.000
35.40500 155.000
35.42000 139.000
35.43500 155.000
35.45000 132.000
35.46500 141.000
35.48000 150.000
35.49500 136.000
35.51000 121.000
35.52500 138.000
35.54000 142.000
35.55500 152.000
35.57000 145.000
35.58500 145.000
35.60000 145.000
35.61500 149.000
35.63000 131.000
35.64500 123.000
35.66000 160.000
35.67500 141.000
35.69000 128.000
35.70500 128.000
35.72000 150.000
35.73500 138.000
35.75000 138.000
35.76500 131.000
35.78000 136.000
35.79500 145.000
35.81000 152.000
35.82500 140.000
35.84000 143.000
35.85500 147.000
35.87000 150.000
35.88500 146.000
35.90000 136.000
35.91500 141.000
35.93000 149.000
35.94500 137.000
35.96000 139.000
35.97500 141.000
35.99000 139.000
36.00500 135.000
36.02000 154.000
36.03500 149.000
36.05000 128.000
36.06500 131.000
36.08000 155.000
36.09500 153.000
36.11000 144.000
36.12500 138.000
36.14000 143.000
36.15500 138.000
36.17000 126.000
36.18500 147.000
36.20000 145.000
36.21500 166.000
36.23000 150.000
36.24500 130.000
36.26000 136.000
36.27500 127.000
36.29000 140.000
36.30500 130.000
36.32000 128.000
36.33500 143.000
36.35000 142.000
36.36500 150.000
36.38000 155.000
36.39500 144.000
36.41000 148.000
36.42500 139.000
36.44000 135.000
36.45500 149.000
36.47000 144.000
36.48500 141.000
36.50000 134.000
36.51500 117.000
36.53000 138.000
36.54500 137.000
36.56000 121.000
36.57500 145.000
36.59000 163.000
36.60500 140.000
36.62000 141.000
36.63500 141.000
36.65000 121.000
36.66500 130.000
36.68000 129.000
36.69500 136.000
36.71000 139.000
36.72500 148.000
36.74000 132.000
36.75500 134.000
36.77000 148.000
36.78500 138.000
36.80000 145.000
36.81500 134.000
36.83000 143.000
36.84500 141.000
36.86000 144.000
36.87500 132.000
36.89000 154.000
36.90500 132.000
36.92000 133.000
36.93500 139.000
36.95000 159.000
36.96500 145.000
36.98000 122.000
36.99500 122.000
37.01000 124.000
37.02500 137.000
37.04000 127.000
37.05500 143.000
37.07000 142.000
37.08500 145.000
37.10000 143.000
37.11500 126.000
37.13000 122.000
37.14500 132.000
37.16000 136.000
37.17500 131.000
37.19000 140.000
37.20500 114.000
37.22000 130.000
37.23500 122.000
37.25000 135.000
37.26500 130.000
37.28000 126.000
37.29500 124.000
37.31000 133.000
37.32500 133.000
37.34000 136.000
37.35500 148.000
37.37000 138.000
37.38500 126.000
37.40000 122.000
37.41500 137.000
37.43000 137.000
37.44500 130.000
37.46000 136.000
37.47500 133.000
37.49000 131.000
37.50500 127.000
37.52000 138.000
37.53500 148.000
37.55000 143.000
37.56500 129.000
37.58000 127.000
37.59500 131.000
37.61000 139.000
37.62500 138.000
37.64000 132.000
37.65500 121.000
37.67000 122.000
37.68500 128.000
37.70000 134.000
37.71500 137.000
37.73000 133.000
37.74500 123.000
37.76000 132.000
37.77500 131.000
37.79000 124.000
37.80500 107.000
37.82000 110.000
37.83500 130.000
37.85000 118.000
37.86500 126.000
37.88000 129.000
37.89500 125.000
37.91000 121.000
37.92500 136.000
37.94000 132.000
37.95500 131.000
37.97000 132.000
37.98500 151.000
38.00000 145.000
38.01500 135.000
38.03000 132.000
38.04500 118.000
38.06000 137.000
38.07500 125.000
38.09000 141.000
38.10500 126.000
38.12000 133.000
38.13500 151.000
38.15000 120.000
38.16500 127.000
38.18000 115.000
38.19500 121.000
38.21000 125.000
38.22500 140.000
38.24000 128.000
38.25500 139.000
38.27000 140.000
38.28500 143.000
38.30000 130.000
38.31500 113.000
38.33000 115.000
38.34500 135.000
38.36000 129.000
38.37500 125.000
38.39000 131.000
38.40500 131.000
38.42000 139.000
38.43500 141.000
38.45000 128.000
38.46500 122.000
38.48000 159.000
38.49500 135.000
38.51000 126.000
38.52500 123.000
38.54000 141.000
38.55500 144.000
38.57000 133.000
38.58500 119.000
38.60000 121.000
38.61500 124.000
38.63000 130.000
38.64500 119.000
38.66000 137.000
38.67500 124.000
38.69000 119.000
38.70500 114.000
38.72000 133.000
38.73500 138.000
38.75000 135.000
38.76500 120.000
38.78000 112.000
38.79500 122.000
38.81000 130.000
38.82500 121.000
38.84000 138.000
38.85500 140.000
38.87000 119.000
38.88500 119.000
38.90000 128.000
38.91500 120.000
38.93000 126.000
38.94500 117.000
38.96000 113.000
38.97500 149.000
38.99000 135.000
39.00500 133.000
39.02000 134.000
39.03500 138.000
39.05000 126.000
39.06500 106.000
39.08000 133.000
39.09500 147.000
39.11000 133.000
39.12500 136.000
39.14000 133.000
39.15500 129.000
39.17000 127.000
39.18500 144.000
39.20000 131.000
39.21500 120.000
39.23000 132.000
39.24500 137.000
39.26000 146.000
39.27500 132.000
39.29000 134.000
39.30500 138.000
39.32000 132.000
39.33500 135.000
39.35000 133.000
39.36500 137.000
39.38000 111.000
39.39500 135.000
39.41000 118.000
39.42500 103.000
39.44000 111.000
39.45500 128.000
39.47000 109.000
39.48500 128.000
39.50000 124.000
39.51500 117.000
39.53000 128.000
39.54500 118.000
39.56000 126.000
39.57500 127.000
39.59000 135.000
39.60500 114.000
39.62000 127.000
39.63500 126.000
39.65000 109.000
39.66500 113.000
39.68000 140.000
39.69500 151.000
39.71000 145.000
39.72500 138.000
39.74000 139.000
39.75500 127.000
39.77000 139.000
39.78500 127.000
39.80000 122.000
39.81500 116.000
39.83000 127.000
39.84500 151.000
39.86000 131.000
39.87500 119.000
39.89000 121.000
39.90500 128.000
39.92000 125.000
39.93500 136.000
39.95000 124.000
39.96500 127.000
39.98000 133.000
39.99500 131.000
40.01000 129.000
40.02500 117.000
40.04000 120.000
40.05500 135.000
40.07000 139.000
40.08500 128.000
40.10000 130.000
40.11500 138.000
40.13000 135.000
40.14500 123.000
40.16000 113.000
40.17500 104.000
40.19000 132.000
40.20500 129.000
40.22000 128.000
40.23500 130.000
40.25000 124.000
40.26500 116.000
40.28000 121.000
40.29500 123.000
40.31000 129.000
40.32500 124.000
40.34000 125.000
40.35500 140.000
40.37000 124.000
40.38500 120.000
40.40000 115.000
40.41500 110.000
40.43000 112.000
40.44500 122.000
40.46000 130.000
40.47500 131.000
40.49000 138.000
40.50500 135.000
40.52000 128.000
40.53500 136.000
40.55000 134.000
40.56500 125.000
40.58000 125.000
40.59500 136.000
40.61000 145.000
40.62500 126.000
40.64000 110.000
40.65500 123.000
40.67000 125.000
40.68500 120.000
40.70000 123.000
40.71500 126.000
40.73000 109.000
40.74500 131.000
40.76000 151.000
40.77500 137.000
40.79000 133.000
40.80500 123.000
40.82000 118.000
40.83500 146.000
40.85000 149.000
40.86500 146.000
40.88000 128.000
40.89500 136.000
40.91000 137.000
40.92500 118.000
40.94000 141.000
40.95500 126.000
40.97000 126.000
40.98500 144.000
41.00000 112.000
41.01500 128.000
41.03000 131.000
41.04500 118.000
41.06000 126.000
41.07500 136.000
41.09000 143.000
41.10500 143.000
41.12000 132.000
41.13500 136.000
41.15000 119.000
41.16500 144.000
41.18000 130.000
41.19500 132.000
41.21000 127.000
41.22500 140.000
41.24000 127.000
41.25500 122.000
41.27000 132.000
41.28500 131.000
41.30000 136.000
41.31500 125.000
41.33000 122.000
41.34500 125.000
41.36000 119.000
41.37500 135.000
41.39000 111.000
41.40500 133.000
41.42000 140.000
41.43500 128.000
41.45000 121.000
41.46500 129.000
41.48000 129.000
41.49500 126.000
41.51000 123.000
41.52500 139.000
41.54000 139.000
41.55500 129.000
41.57000 135.000
41.58500 123.000
41.60000 142.000
41.61500 129.000
41.63000 124.000
41.64500 129.000
41.66000 135.000
41.67500 128.000
41.69000 130.000
41.70500 117.000
41.72000 124.000
41.73500 144.000
41.75000 131.000
41.76500 134.000
41.78000 129.000
41.79500 139.000
41.81000 128.000
41.82500 121.000
41.84000 126.000
41.85500 136.000
41.87000 126.000
41.88500 120.000
41.90000 121.000
41.91500 136.000
41.93000 134.000
41.94500 128.000
41.96000 124.000
41.97500 126.000
41.99000 122.000
42.00500 135.000
42.02000 137.000
42.03500 138.000
42.05000 140.000
42.06500 136.000
42.08000 126.000
42.09500 142.000
42.11000 137.000
42.12500 143.000
42.14000 134.000
42.15500 135.000
42.17000 134.000
42.18500 139.000
42.20000 128.000
42.21500 131.000
42.23000 131.000
42.24500 141.000
42.26000 130.000
42.27500 113.000
42.29000 145.000
42.30500 119.000
42.32000 141.000
42.33500 131.000
42.35000 130.000
42.36500 145.000
42.38000 138.000
42.39500 124.000
42.41000 136.000
42.42500 162.000
42.44000 134.000
42.45500 119.000
42.47000 122.000
42.48500 123.000
42.50000 136.000
42.51500 127.000
42.53000 125.000
42.54500 138.000
42.56000 135.000
42.57500 124.000
42.59000 127.000
42.60500 115.000
42.62000 142.000
42.63500 137.000
42.65000 134.000
42.66500 131.000
42.68000 117.000
42.69500 145.000
42.71000 150.000
42.72500 144.000
42.74000 131.000
42.75500 115.000
42.77000 119.000
42.78500 138.000
42.80000 121.000
42.81500 141.000
42.83000 141.000
42.84500 139.000
42.86000 140.000
42.87500 135.000
42.89000 158.000
42.90500 143.000
42.92000 122.000
42.93500 129.000
42.95000 114.000
42.96500 117.000
42.98000 122.000
42.99500 121.000
43.01000 136.000
43.02500 146.000
43.04000 136.000
43.05500 120.000
43.07000 120.000
43.08500 125.000
43.10000 136.000
43.11500 113.000
43.13000 130.000
43.14500 121.000
43.16000 117.000
43.17500 129.000
43.19000 146.000
43.20500 138.000
43.22000 128.000
43.23500 128.000
43.25000 137.000
43.26500 144.000
43.28000 130.000
43.29500 138.000
43.31000 157.000
43.32500 133.000
43.34000 122.000
43.35500 155.000
43.37000 140.000
43.38500 139.000
43.40000 133.000
43.41500 137.000
43.43000 136.000
43.44500 152.000
43.46000 151.000
43.47500 142.000
43.49000 127.000
43.50500 145.000
43.52000 153.000
43.53500 135.000
43.55000 134.000
43.56500 139.000
43.58000 135.000
43.59500 157.000
43.61000 144.000
43.62500 141.000
43.64000 153.000
43.65500 140.000
43.67000 146.000
43.68500 131.000
43.70000 146.000
43.71500 131.000
43.73000 145.000
43.74500 136.000
43.76000 121.000
43.77500 122.000
43.79000 131.000
43.80500 136.000
43.82000 143.000
43.83500 133.000
43.85000 131.000
43.86500 138.000
43.88000 134.000
43.89500 138.000
43.91000 138.000
43.92500 146.000
43.94000 146.000
43.95500 148.000
43.97000 133.000
43.98500 147.000
44.00000 153.000
44.01500 142.000
44.03000 151.000
44.04500 145.000
44.06000 156.000
44.07500 143.000
44.09000 129.000
44.10500 131.000
44.12000 121.000
44.13500 120.000
44.15000 122.000
44.16500 138.000
44.18000 118.000
44.19500 126.000
44.21000 127.000
44.22500 128.000
44.24000 148.000
44.25500 140.000
44.27000 145.000
44.28500 138.000
44.30000 140.000
44.31500 132.000
44.33000 119.000
44.34500 122.000
44.36000 121.000
44.37500 125.000
44.39000 144.000
44.40500 141.000
44.42000 122.000
44.43500 134.000
44.45000 134.000
44.46500 116.000
44.48000 135.000
44.49500 136.000
44.51000 126.000
44.52500 141.000
44.54000 154.000
44.55500 138.000
44.57000 125.000
44.58500 117.000
44.60000 140.000
44.61500 137.000
44.63000 123.000
44.64500 114.000
44.66000 122.000
44.67500 146.000
44.69000 129.000
44.70500 130.000
44.72000 126.000
44.73500 134.000
44.75000 117.000
44.76500 124.000
44.78000 133.000
44.79500 121.000
44.81000 113.000
44.82500 126.000
44.84000 135.000
44.85500 138.000
44.87000 132.000
44.88500 146.000
44.90000 134.000
44.91500 137.000
44.93000 134.000
44.94500 123.000
44.96000 122.000
44.97500 141.000
44.99000 125.000
45.00500 137.000
45.02000 116.000
45.03500 132.000
45.05000 149.000
45.06500 117.000
45.08000 129.000
45.09500 133.000
45.11000 129.000
45.12500 147.000
45.14000 123.000
45.15500 126.000
45.17000 122.000
45.18500 130.000
45.20000 115.000
45.21500 118.000
45.23000 128.000
45.24500 141.000
45.26000 147.000
45.27500 134.000
45.29000 138.000
45.30500 125.000
45.32000 127.000
45.33500 136.000
45.35000 138.000
45.36500 142.000
45.38000 134.000
45.39500 136.000
45.41000 127.000
45.42500 113.000
45.44000 107.000
45.45500 121.000
45.47000 128.000
45.48500 120.000
45.50000 122.000
45.51500 126.000
45.53000 127.000
45.54500 125.000
45.56000 129.000
45.57500 126.000
45.59000 137.000
45.60500 128.000
45.62000 128.000
45.63500 137.000
45.65000 127.000
45.66500 121.000
45.68000 108.000
45.69500 116.000
45.71000 132.000
45.72500 127.000
45.74000 108.000
45.75500 124.000
45.77000 125.000
45.78500 113.000
45.80000 127.000
45.81500 136.000
45.83000 132.000
45.84500 139.000
45.86000 140.000
45.87500 131.000
45.89000 120.000
45.90500 143.000
45.92000 152.000
45.93500 124.000
45.95000 111.000
45.96500 134.000
45.98000 141.000
45.99500 142.000
46.01000 127.000
46.02500 126.000
46.04000 126.000
46.05500 123.000
46.07000 129.000
46.08500 117.000
46.10000 127.000
46.11500 130.000
46.13000 127.000
46.14500 138.000
46.16000 133.000
46.17500 127.000
46.19000 117.000
46.20500 114.000
46.22000 125.000
46.23500 124.000
46.25000 123.000
46.26500 116.000
46.28000 142.000
46.29500 128.000
46.31000 121.000
46.32500 118.000
46.34000 138.000
46.35500 117.000
46.37000 122.000
46.38500 143.000
46.40000 128.000
46.41500 125.000
46.43000 123.000
46.44500 132.000
46.46000 132.000
46.47500 129.000
46.49000 126.000
46.50500 123.000
46.52000 127.000
46.53500 135.000
46.55000 132.000
46.56500 127.000
46.58000 139.000
46.59500 128.000
46.61000 142.000
46.62500 139.000
46.64000 128.000
46.65500 127.000
46.67000 129.000
46.68500 119.000
46.70000 110.000
46.71500 123.000
46.73000 130.000
46.74500 135.000
46.76000 123.000
46.77500 126.000
46.79000 122.000
46.80500 134.000
46.82000 121.000
46.83500 118.000
46.85000 136.000
46.86500 127.000
46.88000 121.000
46.89500 122.000
46.91000 112.000
46.92500 117.000
46.94000 127.000
46.95500 130.000
46.97000 130.000
46.98500 134.000
47.00000 127.000
47.01500 136.000
47.03000 131.000
47.04500 122.000
47.06000 121.000
47.07500 127.000
47.09000 136.000
47.10500 108.000
47.12000 120.000
47.13500 125.000
47.15000 129.000
47.16500 117.000
47.18000 123.000
47.19500 125.000
47.21000 121.000
47.22500 112.000
47.24000 139.000
47.25500 128.000
47.27000 115.000
47.28500 135.000
47.30000 137.000
47.31500 151.000
47.33000 123.000
47.34500 120.000
47.36000 122.000
47.37500 117.000
47.39000 108.000
47.40500 128.000
47.42000 126.000
47.43500 127.000
47.45000 127.000
47.46500 130.000
47.48000 135.000
47.49500 134.000
47.51000 125.000
47.52500 135.000
47.54000 118.000
47.55500 115.000
47.57000 133.000
47.58500 129.000
47.60000 127.000
47.61500 122.000
47.63000 121.000
47.64500 125.000
47.66000 132.000
47.67500 126.000
47.69000 134.000
47.70500 120.000
47.72000 121.000
47.73500 130.000
47.75000 135.000
47.76500 139.000
47.78000 119.000
47.79500 119.000
47.81000 137.000
47.82500 115.000
47.84000 121.000
47.85500 138.000
47.87000 118.000
47.88500 117.000
47.90000 112.000
47.91500 109.000
47.93000 123.000
47.94500 123.000
47.96000 125.000
47.97500 134.000
47.99000 129.000
48.00500 134.000
48.02000 120.000
48.03500 112.000
48.05000 115.000
48.06500 150.000
48.08000 128.000
48.09500 132.000
48.11000 120.000
48.12500 122.000
48.14000 119.000
48.15500 127.000
48.17000 113.000
48.18500 120.000
48.20000 119.000
48.21500 141.000
48.23000 130.000
48.24500 129.000
48.26000 132.000
48.27500 131.000
48.29000 123.000
48.30500 118.000
48.32000 126.000
48.33500 128.000
48.35000 109.000
48.36500 100.000
48.38000 116.000
48.39500 116.000
48.41000 124.000
48.42500 137.000
48.44000 131.000
48.45500 105.000
48.47000 102.000
48.48500 121.000
48.50000 122.000
48.51500 113.000
48.53000 118.000
48.54500 105.000
48.56000 114.000
48.57500 120.000
48.59000 119.000
48.60500 110.000
48.62000 112.000
48.63500 127.000
48.65000 127.000
48.66500 114.000
48.68000 135.000
48.69500 128.000
48.71000 135.000
48.72500 108.000
48.74000 104.000
48.75500 118.000
48.77000 115.000
48.78500 117.000
48.80000 118.000
48.81500 125.000
48.83000 136.000
48.84500 133.000
48.86000 124.000
48.87500 123.000
48.89000 124.000
48.90500 125.000
48.92000 118.000
48.93500 121.000
48.95000 134.000
48.96500 130.000
48.98000 133.000
48.99500 140.000
49.01000 127.000
49.02500 135.000
49.04000 124.000
49.05500 119.000
49.07000 116.000
49.08500 126.000
49.10000 128.000
49.11500 118.000
49.13000 135.000
49.14500 119.000
49.16000 119.000
49.17500 121.000
49.19000 121.000
49.20500 113.000
49.22000 110.000
49.23500 128.000
49.25000 116.000
49.26500 116.000
49.28000 120.000
49.29500 126.000
49.31000 108.000
49.32500 119.000
49.34000 133.000
49.35500 130.000
49.37000 114.000
49.38500 132.000
49.40000 125.000
49.41500 120.000
49.43000 117.000
49.44500 132.000
49.46000 132.000
49.47500 117.000
49.49000 121.000
49.50500 108.000
49.52000 115.000
49.53500 110.000
49.55000 102.000
49.56500 120.000
49.58000 114.000
49.59500 114.000
49.61000 118.000
49.62500 99.000
49.64000 111.000
49.65500 136.000
49.67000 137.000
49.68500 118.000
49.70000 116.000
49.71500 122.000
49.73000 124.000
49.74500 104.000
49.76000 115.000
49.77500 116.000
49.79000 114.000
49.80500 128.000
49.82000 133.000
49.83500 115.000
49.85000 112.000
49.86500 117.000
49.88000 116.000
49.89500 127.000
49.91000 114.000
49.92500 114.000
49.94000 109.000
49.95500 117.000
49.97000 112.000
49.98500 117.000
50.00000 121.000
50.01500 127.000
50.03000 119.000
50.04500 123.000
50.06000 108.000
50.07500 123.000
50.09000 118.000
50.10500 108.000
50.12000 108.000
50.13500 103.000
50.15000 118.000
50.16500 122.000
50.18000 115.000
50.19500 123.000
50.21000 107.000
50.22500 111.000
50.24000 118.000
50.25500 116.000
50.27000 128.000
50.28500 116.000
50.30000 125.000
50.31500 105.000
50.33000 109.000
50.34500 118.000
50.36000 126.000
50.37500 115.000
50.39000 117.000
50.40500 116.000
50.42000 114.000
50.43500 112.000
50.45000 120.000
50.46500 124.000
50.48000 122.000
50.49500 122.000
50.51000 113.000
50.52500 105.000
50.54000 110.000
50.55500 115.000
50.57000 121.000
50.58500 112.000
50.60000 120.000
50.61500 120.000
50.63000 117.000
50.64500 114.000
50.66000 104.000
50.67500 104.000
50.69000 120.000
50.70500 120.000
50.72000 119.000
50.73500 124.000
50.75000 109.000
50.76500 119.000
50.78000 123.000
50.79500 132.000
50.81000 130.000
50.82500 119.000
50.84000 143.000
50.85500 108.000
50.87000 136.000
50.88500 129.000
50.90000 116.000
50.91500 115.000
50.93000 105.000
50.94500 121.000
50.96000 113.000
50.97500 100.000
50.99000 104.000
51.00500 117.000
51.02000 121.000
51.03500 131.000
51.05000 120.000
51.06500 129.000
51.08000 120.000
51.09500 129.000
51.11000 127.000
51.12500 127.000
51.14000 131.000
51.15500 116.000
51.17000 116.000
51.18500 100.000
51.20000 111.000
51.21500 128.000
51.23000 106.000
51.24500 115.000
51.26000 112.000
51.27500 117.000
51.29000 131.000
51.30500 115.000
51.32000 102.000
51.33500 102.000
51.35000 123.000
51.36500 108.000
51.38000 112.000
51.39500 111.000
51.41000 129.000
51.42500 113.000
51.44000 111.000
51.45500 119.000
51.47000 127.000
51.48500 127.000
51.50000 126.000
51.51500 123.000
51.53000 117.000
51.54500 118.000
51.56000 112.000
51.57500 114.000
51.59000 125.000
51.60500 129.000
51.62000 128.000
51.63500 129.000
51.65000 134.000
51.66500 112.000
51.68000 122.000
51.69500 119.000
51.71000 127.000
51.72500 109.000
51.74000 127.000
51.75500 100.000
51.77000 133.000
51.78500 104.000
51.80000 108.000
51.81500 108.000
51.83000 109.000
51.84500 119.000
51.86000 122.000
51.87500 125.000
51.89000 112.000
51.90500 127.000
51.92000 127.000
51.93500 117.000
51.95000 119.000
51.96500 111.000
51.98000 118.000
51.99500 118.000
52.01000 125.000
52.02500 123.000
52.04000 124.000
52.05500 128.000
52.07000 123.000
52.08500 111.000
52.10000 100.000
52.11500 116.000
52.13000 105.000
52.14500 111.000
52.16000 128.000
52.17500 124.000
52.19000 120.000
52.20500 109.000
52.22000 112.000
52.23500 97.000
52.25000 115.000
52.26500 116.000
52.28000 120.000
52.29500 109.000
52.31000 100.000
52.32500 95.000
52.34000 103.000
52.35500 108.000
52.37000 112.000
52.38500 110.000
52.40000 113.000
52.41500 114.000
52.43000 110.000
52.44500 111.000
52.46000 119.000
52.47500 132.000
52.49000 111.000
52.50500 117.000
52.52000 123.000
52.53500 112.000
52.55000 100.000
52.56500 107.000
52.58000 117.000
52.59500 117.000
52.61000 115.000
52.62500 116.000
52.64000 108.000
52.65500 99.000
52.67000 117.000
52.68500 121.000
52.70000 119.000
52.71500 122.000
52.73000 118.000
52.74500 116.000
52.76000 118.000
52.77500 121.000
52.79000 110.000
52.80500 122.000
52.82000 119.000
52.83500 108.000
52.85000 106.000
52.86500 110.000
52.88000 125.000
52.89500 125.000
52.91000 118.000
52.92500 120.000
52.94000 124.000
52.95500 111.000
52.97000 107.000
52.98500 102.000
53.00000 99.000
53.01500 109.000
53.03000 108.000
53.04500 113.000
53.06000 110.000
53.07500 112.000
53.09000 111.000
53.10500 120.000
53.12000 109.000
53.13500 107.000
53.15000 124.000
53.16500 124.000
53.18000 119.000
53.19500 123.000
53.21000 136.000
53.22500 132.000
53.24000 127.000
53.25500 126.000
53.27000 118.000
53.28500 124.000
53.30000 109.000
53.31500 103.000
53.33000 104.000
53.34500 122.000
53.36000 124.000
53.37500 92.000
53.39000 113.000
53.40500 103.000
53.42000 116.000
53.43500 111.000
53.45000 117.000
53.46500 121.000
53.48000 117.000
53.49500 100.000
53.51000 122.000
53.52500 106.000
53.54000 118.000
53.55500 113.000
53.57000 113.000
53.58500 133.000
53.60000 119.000
53.61500 111.000
53.63000 122.000
53.64500 115.000
53.66000 113.000
53.67500 107.000
53.69000 117.000
53.70500 106.000
53.72000 109.000
53.73500 109.000
53.75000 115.000
53.76500 104.000
53.78000 117.000
53.79500 127.000
53.81000 115.000
53.82500 109.000
53.84000 119.000
53.85500 122.000
53.87000 95.000
53.88500 100.000
53.90000 107.000
53.91500 116.000
53.93000 104.000
53.94500 94.000
53.96000 104.000
53.97500 117.000
53.99000 112.000
54.00500 114.000
54.02000 121.000
54.03500 108.000
54.05000 96.000
54.06500 96.000
54.08000 113.000
54.09500 125.000
54.11000 129.000
54.12500 125.000
54.14000 115.000
54.15500 103.000
54.17000 101.000
54.18500 120.000
54.20000 116.000
54.21500 117.000
54.23000 111.000
54.24500 109.000
54.26000 107.000
54.27500 95.000
54.29000 102.000
54.30500 106.000
54.32000 103.000
54.33500 110.000
54.35000 106.000
54.36500 103.000
54.38000 108.000
54.39500 117.000
54.41000 121.000
54.42500 114.000
54.44000 106.000
54.45500 107.000
54.47000 98.000
54.48500 101.000
54.50000 97.000
54.51500 114.000
54.53000 103.000
54.54500 121.000
54.56000 106.000
54.57500 110.000
54.59000 112.000
54.60500 110.000
54.62000 106.000
54.63500 114.000
54.65000 132.000
54.66500 117.000
54.68000 109.000
54.69500 110.000
54.71000 105.000
54.72500 119.000
54.74000 118.000
54.75500 115.000
54.77000 100.000
54.78500 91.000
54.80000 103.000
54.81500 103.000
54.83000 116.000
54.84500 102.000
54.86000 112.000
54.87500 116.000
54.89000 112.000
54.90500 107.000
54.92000 120.000
54.93500 125.000
54.95000 117.000
54.96500 115.000
54.98000 109.000
54.99500 100.000
55.01000 108.000
55.02500 102.000
55.04000 103.000
55.05500 109.000
55.07000 111.000
55.08500 110.000
55.10000 104.000
55.11500 117.000
55.13000 113.000
55.14500 101.000
55.16000 97.000
55.17500 109.000
55.19000 112.000
55.20500 113.000
55.22000 115.000
55.23500 99.000
55.25000 120.000
55.26500 102.000
55.28000 112.000
55.29500 118.000
55.31000 105.000
55.32500 108.000
55.34000 106.000
55.35500 100.000
55.37000 110.000
55.38500 99.000
55.40000 106.000
55.41500 94.000
55.43000 100.000
55.44500 97.000
55.46000 107.000
55.47500 105.000
55.49000 99.000
55.50500 119.000
55.52000 107.000
55.53500 90.000
55.55000 108.000
55.56500 102.000
55.58000 97.000
55.59500 105.000
55.61000 99.000
55.62500 107.000
55.64000 116.000
55.65500 112.000
55.67000 111.000
55.68500 111.000
55.70000 111.000
55.71500 108.000
55.73000 94.000
55.74500 106.000
55.76000 115.000
55.77500 102.000
55.79000 98.000
55.80500 103.000
55.82000 109.000
55.83500 103.000
55.85000 105.000
55.86500 93.000
55.88000 108.000
55.89500 113.000
55.91000 111.000
55.92500 110.000
55.94000 109.000
55.95500 116.000
55.97000 102.000
55.98500 99.000
56.00000 107.000
56.01500 96.000
56.03000 107.000
56.04500 109.000
56.06000 119.000
56.07500 102.000
56.09000 99.000
56.10500 105.000
56.12000 99.000
56.13500 113.000
56.15000 104.000
56.16500 98.000
56.18000 111.000
56.19500 121.000
56.21000 98.000
56.22500 110.000
56.24000 104.000
56.25500 88.000
56.27000 94.000
56.28500 96.000
56.30000 106.000
56.31500 87.000
56.33000 103.000
56.34500 106.000
56.36000 102.000
56.37500 111.000
56.39000 109.000
56.40500 113.000
56.42000 112.000
56.43500 104.000
56.45000 105.000
56.46500 104.000
56.48000 104.000
56.49500 111.000
56.51000 92.000
56.52500 108.000
56.54000 114.000
56.55500 98.000
56.57000 99.000
56.58500 95.000
56.60000 87.000
56.61500 101.000
56.63000 92.000
56.64500 103.000
56.66000 123.000
56.67500 115.000
56.69000 118.000
56.70500 115.000
56.72000 105.000
56.73500 106.000
56.75000 103.000
56.76500 92.000
56.78000 93.000
56.79500 111.000
56.81000 111.000
56.82500 119.000
56.84000 105.000
56.85500 105.000
56.87000 94.000
56.88500 89.000
56.90000 108.000
56.91500 105.000
56.93000 105.000
56.94500 115.000
56.96000 122.000
56.97500 111.000
56.99000 105.000
57.00500 110.000
57.02000 115.000
57.03500 97.000
57.05000 87.000
57.06500 88.000
57.08000 111.000
57.09500 113.000
57.11000 104.000
57.12500 111.000
57.14000 102.000
57.15500 93.000
57.17000 90.000
57.18500 94.000
57.20000 82.000
57.21500 101.000
57.23000 102.000
57.24500 92.000
57.26000 105.000
57.27500 97.000
57.29000 103.000
57.30500 101.000
57.32000 113.000
57.33500 107.000
57.35000 106.000
57.36500 97.000
57.38000 100.000
57.39500 94.000
57.41000 101.000
57.42500 95.000
57.44000 88.000
57.45500 101.000
57.47000 109.000
57.48500 96.000
57.50000 102.000
57.51500 116.000
57.53000 107.000
57.54500 114.000
57.56000 102.000
57.57500 121.000
57.59000 98.000
57.60500 93.000
57.62000 99.000
57.63500 113.000
57.65000 130.000
57.66500 122.000
57.68000 101.000
57.69500 114.000
57.71000 112.000
57.72500 109.000
57.74000 113.000
57.75500 121.000
57.77000 113.000
57.78500 111.000
57.80000 100.000
57.81500 130.000
57.83000 111.000
57.84500 94.000
57.86000 94.000
57.87500 91.000
57.89000 93.000
57.90500 111.000
57.92000 114.000
57.93500 113.000
57.95000 99.000
57.96500 115.000
57.98000 100.000
57.99500 97.000
58.01000 123.000
58.02500 112.000
58.04000 105.000
58.05500 102.000
58.07000 108.000
58.08500 107.000
58.10000 96.000
58.11500 112.000
58.13000 97.000
58.14500 116.000
58.16000 113.000
58.17500 122.000
58.19000 107.000
58.20500 102.000
58.22000 103.000
58.23500 96.000
58.25000 106.000
58.26500 91.000
58.28000 92.000
58.29500 98.000
58.31000 96.000
58.32500 94.000
58.34000 94.000
58.35500 108.000
58.37000 93.000
58.38500 108.000
58.40000 129.000
58.41500 113.000
58.43000 113.000
58.44500 112.000
58.46000 101.000
58.47500 95.000
58.49000 96.000
58.50500 99.000
58.52000 105.000
58.53500 97.000
58.55000 92.000
58.56500 111.000
58.58000 96.000
58.59500 92.000
58.61000 106.000
58.62500 106.000
58.64000 98.000
58.65500 98.000
58.67000 108.000
58.68500 100.000
58.70000 101.000
58.71500 105.000
58.73000 109.000
58.74500 89.000
58.76000 84.000
58.77500 82.000
58.79000 92.000
58.80500 101.000
58.82000 96.000
58.83500 98.000
58.85000 103.000
58.86500 105.000
58.88000 110.000
58.89500 113.000
58.91000 112.000
58.92500 92.000
58.94000 103.000
58.95500 92.000
58.97000 96.000
58.98500 110.000
59.00000 106.000
59.01500 87.000
59.03000 97.000
59.04500 110.000
59.06000 102.000
59.07500 97.000
59.09000 102.000
59.10500 103.000
59.12000 100.000
59.13500 101.000
59.15000 98.000
59.16500 102.000
59.18000 96.000
59.19500 106.000
59.21000 92.000
59.22500 112.000
59.24000 108.000
59.25500 107.000
59.27000 96.000
59.28500 100.000
59.30000 95.000
59.31500 85.000
59.33000 84.000
59.34500 103.000
59.36000 100.000
59.37500 104.000
59.39000 108.000
59.40500 96.000
59.42000 104.000
59.43500 111.000
59.45000 105.000
59.46500 96.000
59.48000 107.000
59.49500 120.000
59.51000 107.000
59.52500 104.000
59.54000 115.000
59.55500 103.000
59.57000 104.000
59.58500 93.000
59.60000 84.000
59.61500 91.000
59.63000 88.000
59.64500 89.000
59.66000 100.000
59.67500 89.000
59.69000 87.000
59.70500 94.000
59.72000 93.000
59.73500 90.000
59.75000 91.000
59.76500 85.000
59.78000 101.000
59.79500 114.000
59.81000 100.000
59.82500 95.000
59.84000 101.000
59.85500 101.000
59.87000 96.000
59.88500 90.000
59.90000 100.000
59.91500 96.000
59.93000 108.000
59.94500 96.000
59.96000 97.000
59.97500 93.000
59.99000 105.000
60.00500 93.000
60.02000 89.000
60.03500 104.000
60.05000 114.000
60.06500 96.000
60.08000 97.000
60.09500 88.000
60.11000 83.000
60.12500 95.000
60.14000 97.000
60.15500 91.000
60.17000 86.000
60.18500 100.000
60.20000 97.000
60.21500 93.000
60.23000 101.000
60.24500 110.000
60.26000 96.000
60.27500 95.000
60.29000 97.000
60.30500 94.000
60.32000 85.000
60.33500 83.000
60.35000 92.000
60.36500 95.000
60.38000 92.000
60.39500 112.000
60.41000 98.000
60.42500 88.000
60.44000 89.000
60.45500 97.000
60.47000 107.000
60.48500 103.000
60.50000 87.000
60.51500 89.000
60.53000 97.000
60.54500 91.000
60.56000 104.000
60.57500 116.000
60.59000 97.000
60.60500 99.000
60.62000 100.000
60.63500 113.000
60.65000 105.000
60.66500 103.000
60.68000 101.000
60.69500 105.000
60.71000 103.000
60.72500 89.000
60.74000 91.000
60.75500 86.000
60.77000 98.000
60.78500 91.000
60.80000 99.000
60.81500 112.000
60.83000 90.000
60.84500 104.000
60.86000 90.000
60.87500 92.000
60.89000 96.000
60.90500 117.000
60.92000 107.000
60.93500 93.000
60.95000 109.000
60.96500 120.000
60.98000 98.000
60.99500 88.000
61.01000 90.000
61.02500 102.000
61.04000 94.000
61.05500 92.000
61.07000 98.000
61.08500 99.000
61.10000 94.000
61.11500 102.000
61.13000 99.000
61.14500 97.000
61.16000 93.000
61.17500 90.000
61.19000 102.000
61.20500 91.000
61.22000 98.000
61.23500 82.000
61.25000 91.000
61.26500 92.000
61.28000 89.000
61.29500 99.000
61.31000 93.000
61.32500 88.000
61.34000 87.000
61.35500 81.000
61.37000 88.000
61.38500 106.000
61.40000 88.000
61.41500 96.000
61.43000 103.000
61.44500 114.000
61.46000 86.000
61.47500 91.000
61.49000 95.000
61.50500 91.000
61.52000 78.000
61.53500 100.000
61.55000 90.000
61.56500 106.000
61.58000 97.000
61.59500 109.000
61.61000 100.000
61.62500 93.000
61.64000 92.000
61.65500 104.000
61.67000 96.000
61.68500 100.000
61.70000 87.000
61.71500 99.000
61.73000 96.000
61.74500 105.000
61.76000 107.000
61.77500 106.000
61.79000 100.000
61.80500 93.000
61.82000 101.000
61.83500 93.000
61.85000 107.000
61.86500 92.000
61.88000 106.000
61.89500 95.000
61.91000 105.000
61.92500 106.000
61.94000 90.000
61.95500 98.000
61.97000 95.000
61.98500 94.000
