2.0 886.0
2.015 864.0
2.03 854.0
2.045 892.0
2.06 841.0
2.075 811.0
2.09 818.0
2.105 810.0
2.12 743.0
2.135 776.0
2.15 759.0
2.165 747.0
2.18 718.0
2.195 714.0
2.21 677.0
2.225 664.0
2.24 670.0
2.255 654.0
2.27 650.0
2.285 641.0
2.3 654.0
2.315 644.0
2.33 601.0
2.345 622.0
2.36 599.0
2.375 604.0
2.39 588.0
2.405 603.0
2.42 554.0
2.435 548.0
2.45 523.0
2.465 561.0
2.48 550.0
2.495 542.0
2.51 533.0
2.525 516.0
2.54 483.0
2.555 464.0
2.57 483.0
2.585 505.0
2.6 514.0
2.615 492.0
2.63 495.0
2.645 478.0
2.66 462.0
2.675 459.0
2.69 502.0
2.705 466.0
2.72 448.0
2.735 435.0
2.75 463.0
2.765 467.0
2.78 450.0
2.795 447.0
2.81 454.0
2.825 431.0
2.84 416.0
2.855 455.0
2.87 425.0
2.885 420.0
2.9 420.0
2.915 382.0
2.93 411.0
2.945 434.0
2.96 425.0
2.975 447.0
2.99 405.0
3.005 402.0
3.02 412.0
3.035 385.0
3.05 377.0
3.065 379.0
3.08 389.0
3.095 396.0
3.11 375.0
3.125 357.0
3.14 344.0
3.155 353.0
3.17 383.0
3.185 341.0
3.2 367.0
3.215 394.0
3.23 372.0
3.245 358.0
3.26 328.0
3.275 344.0
3.29 363.0
3.305 343.0
3.32 362.0
3.335 361.0
3.35 329.0
3.365 354.0
3.38 315.0
3.395 343.0
3.41 358.0
3.425 321.0
3.44 332.0
3.455 333.0
3.47 313.0
3.485 338.0
3.5 332.0
3.515 358.0
3.53 343.0
3.545 325.0
3.56 333.0
3.575 330.0
3.59 309.0
3.605 332.0
3.62 337.0
3.635 338.0
3.65 336.0
3.665 303.0
3.68 309.0
3.695 320.0
3.71 321.0
3.725 328.0
3.74 324.0
3.755 304.0
3.77 300.0
3.785 291.0
3.8 315.0
3.815 306.0
3.83 307.0
3.845 302.0
3.86 302.0
3.875 290.0
3.89 299.0
3.905 304.0
3.92 306.0
3.935 297.0
3.95 285.0
3.965 309.0
3.98 321.0
3.995 304.0
4.01 300.0
4.025 316.0
4.04 318.0
4.055 320.0
4.07 354.0
4.085 313.0
4.1 303.0
4.115 303.0
4.13 288.0
4.145 315.0
4.16 290.0
4.175 312.0
4.19 306.0
4.205 289.0
4.22 319.0
4.235 308.0
4.25 288.0
4.265 292.0
4.28 298.0
4.295 342.0
4.31 339.0
4.325 314.0
4.34 293.0
4.355 308.0
4.37 278.0
4.385 283.0
4.4 304.0
4.415 271.0
4.43 266.0
4.445 291.0
4.46 321.0
4.475 329.0
4.49 302.0
4.505 274.0
4.52 294.0
4.535 298.0
4.55 298.0
4.565 293.0
4.58 297.0
4.595 308.0
4.61 288.0
4.625 313.0
4.64 294.0
4.655 291.0
4.67 276.0
4.685 287.0
4.7 286.0
4.715 299.0
4.73 293.0
4.745 291.0
4.76 282.0
4.775 294.0
4.79 295.0
4.805 290.0
4.82 302.0
4.835 286.0
4.85 301.0
4.865 275.0
4.88 295.0
4.895 290.0
4.91 286.0
4.925 287.0
4.94 308.0
4.955 295.0
4.97 293.0
4.985 297.0
5.0 315.0
5.015 299.0
5.03 285.0
5.045 293.0
5.06 282.0
5.075 296.0
5.09 280.0
5.105 268.0
5.12 274.0
5.135 273.0
5.15 289.0
5.165 292.0
5.18 280.0
5.195 261.0
5.21 263.0
5.225 263.0
5.24 274.0
5.255 297.0
5.27 287.0
5.285 292.0
5.3 281.0
5.315 280.0
5.33 292.0
5.345 293.0
5.36 299.0
5.375 300.0
5.39 281.0
5.405 279.0
5.42 300.0
5.435 279.0
5.45 267.0
5.465 260.0
5.48 283.0
5.495 286.0
5.51 272.0
5.525 271.0
5.54 283.0
5.555 319.0
5.57 299.0
5.585 294.0
5.6 319.0
5.615 313.0
5.63 279.0
5.645 277.0
5.66 277.0
5.675 283.0
5.69 287.0
5.705 284.0
5.72 263.0
5.735 282.0
5.75 282.0
5.765 282.0
5.78 289.0
5.795 293.0
5.81 270.0
5.825 274.0
5.84 283.0
5.855 288.0
5.87 281.0
5.885 295.0
5.9 288.0
5.915 300.0
5.93 316.0
5.945 303.0
5.96 295.0
5.975 302.0
5.99 289.0
6.005 315.0
6.02 301.0
6.035 300.0
6.05 294.0
6.065 295.0
6.08 293.0
6.095 279.0
6.11 283.0
6.125 296.0
6.14 275.0
6.155 331.0
6.17 302.0
6.185 293.0
6.2 283.0
6.215 283.0
6.23 275.0
6.245 267.0
6.26 308.0
6.275 302.0
6.29 296.0
6.305 292.0
6.32 279.0
6.335 295.0
6.35 286.0
6.365 284.0
6.38 305.0
6.395 294.0
6.41 304.0
6.425 283.0
6.44 306.0
6.455 290.0
6.47 285.0
6.485 298.0
6.5 264.0
6.515 297.0
6.53 281.0
6.545 292.0
6.56 288.0
6.575 277.0
6.59 312.0
6.605 290.0
6.62 291.0
6.635 293.0
6.65 300.0
6.665 289.0
6.68 302.0
6.695 286.0
6.71 304.0
6.725 304.0
6.74 307.0
6.755 311.0
6.77 315.0
6.785 319.0
6.8 312.0
6.815 306.0
6.83 311.0
6.845 291.0
6.86 298.0
6.875 276.0
6.89 281.0
6.905 290.0
6.92 293.0
6.935 306.0
6.95 281.0
6.965 284.0
6.98 295.0
6.995 245.0
7.01 280.0
7.025 300.0
7.04 292.0
7.055 312.0
7.07 319.0
7.085 288.0
7.1 281.0
7.115 276.0
7.13 300.0
7.145 288.0
7.16 303.0
7.175 315.0
7.19 298.0
7.205 271.0
7.22 259.0
7.235 289.0
7.25 305.0
7.265 310.0
7.28 286.0
7.295 284.0
7.31 319.0
7.325 316.0
7.34 306.0
7.355 290.0
7.37 284.0
7.385 297.0
7.4 276.0
7.415 289.0
7.43 315.0
7.445 300.0
7.46 267.0
7.475 307.0
7.49 318.0
7.505 306.0
7.52 287.0
7.535 303.0
7.55 271.0
7.565 275.0
7.58 281.0
7.595 301.0
7.61 296.0
7.625 305.0
7.64 301.0
7.655 266.0
7.67 266.0
7.685 290.0
7.7 292.0
7.715 286.0
7.73 310.0
7.745 296.0
7.76 300.0
7.775 276.0
7.79 265.0
7.805 316.0
7.82 279.0
7.835 283.0
7.85 309.0
7.865 304.0
7.88 301.0
7.895 302.0
7.91 313.0
7.925 316.0
7.94 299.0
7.955 300.0
7.97 288.0
7.985 300.0
8.0 297.0
8.015 296.0
8.03 312.0
8.045 320.0
8.06 287.0
8.075 303.0
8.09 309.0
8.105 321.0
8.12 296.0
8.135 341.0
8.15 296.0
8.165 299.0
8.18 310.0
8.195 305.0
8.21 308.0
8.225 326.0
8.24 336.0
8.255 307.0
8.27 320.0
8.285 370.0
8.3 334.0
8.315 372.0
8.33 327.0
8.345 343.0
8.36 358.0
8.375 343.0
8.39 348.0
8.405 349.0
8.42 359.0
8.435 356.0
8.45 342.0
8.465 375.0
8.48 369.0
8.495 393.0
8.51 412.0
8.525 399.0
8.54 413.0
8.555 390.0
8.57 371.0
8.585 391.0
8.6 411.0
8.615 426.0
8.63 397.0
8.645 397.0
8.66 382.0
8.675 390.0
8.69 411.0
8.705 367.0
8.72 345.0
8.735 368.0
8.75 370.0
8.765 361.0
8.78 361.0
8.795 344.0
8.81 346.0
8.825 353.0
8.84 321.0
8.855 308.0
8.87 326.0
8.885 354.0
8.9 323.0
8.915 312.0
8.93 328.0
8.945 310.0
8.96 316.0
8.975 308.0
8.99 327.0
9.005 340.0
9.02 323.0
9.035 314.0
9.05 311.0
9.065 313.0
9.08 306.0
9.095 302.0
9.11 312.0
9.125 311.0
9.14 283.0
9.155 311.0
9.17 310.0
9.185 310.0
9.2 299.0
9.215 304.0
9.23 309.0
9.245 289.0
9.26 295.0
9.275 304.0
9.29 321.0
9.305 302.0
9.32 310.0
9.335 297.0
9.35 313.0
9.365 319.0
9.38 275.0
9.395 293.0
9.41 311.0
9.425 290.0
9.44 313.0
9.455 305.0
9.47 335.0
9.485 335.0
9.5 304.0
9.515 298.0
9.53 300.0
9.545 302.0
9.56 296.0
9.575 302.0
9.59 300.0
9.605 295.0
9.62 325.0
9.635 311.0
9.65 305.0
9.665 294.0
9.68 288.0
9.695 300.0
9.71 296.0
9.725 309.0
9.74 292.0
9.755 298.0
9.77 313.0
9.785 320.0
9.8 321.0
9.815 283.0
9.83 269.0
9.845 291.0
9.86 290.0
9.875 306.0
9.89 325.0
9.905 311.0
9.92 331.0
9.935 320.0
9.95 338.0
9.965 327.0
9.98 350.0
9.995 347.0
10.01 367.0
10.025 330.0
10.04 327.0
10.055 332.0
10.07 353.0
10.085 342.0
10.1 336.0
10.115 357.0
10.13 321.0
10.145 306.0
10.16 317.0
10.175 300.0
10.19 278.0
10.205 290.0
10.22 298.0
10.235 295.0
10.25 308.0
10.265 312.0
10.28 301.0
10.295 284.0
10.31 313.0
10.325 302.0
10.34 291.0
10.355 306.0
10.37 323.0
10.385 320.0
10.4 306.0
10.415 313.0
10.43 320.0
10.445 320.0
10.46 302.0
10.475 287.0
10.49 317.0
10.505 312.0
10.52 326.0
10.535 325.0
10.55 299.0
10.565 311.0
10.58 299.0
10.595 295.0
10.61 311.0
10.625 307.0
10.64 318.0
10.655 332.0
10.67 325.0
10.685 315.0
10.7 321.0
10.715 322.0
10.73 350.0
10.745 305.0
10.76 306.0
10.775 325.0
10.79 311.0
10.805 320.0
10.82 303.0
10.835 327.0
10.85 349.0
10.865 321.0
10.88 310.0
10.895 318.0
10.91 361.0
10.925 362.0
10.94 326.0
10.955 334.0
10.97 336.0
10.985 323.0
11.0 331.0
11.015 320.0
11.03 367.0
11.045 343.0
11.06 381.0
11.075 374.0
11.09 381.0
11.105 379.0
11.12 384.0
11.135 398.0
11.15 353.0
11.165 409.0
11.18 417.0
11.195 406.0
11.21 432.0
11.225 435.0
11.24 428.0
11.255 429.0
11.27 473.0
11.285 504.0
11.3 480.0
11.315 514.0
11.33 516.0
11.345 548.0
11.36 619.0
11.375 649.0
11.39 710.0
11.405 724.0
11.42 740.0
11.435 797.0
11.45 792.0
11.465 803.0
11.48 803.0
11.495 908.0
11.51 934.0
11.525 908.0
11.54 878.0
11.555 914.0
11.57 979.0
11.585 928.0
11.6 896.0
11.615 798.0
11.63 779.0
11.645 831.0
11.66 793.0
11.675 729.0
11.69 769.0
11.705 727.0
11.72 692.0
11.735 669.0
11.75 688.0
11.765 645.0
11.78 625.0
11.795 627.0
11.81 613.0
11.825 600.0
11.84 615.0
11.855 623.0
11.87 585.0
11.885 568.0
11.9 572.0
11.915 540.0
11.93 525.0
11.945 524.0
11.96 524.0
11.975 493.0
11.99 476.0
12.005 439.0
12.02 452.0
12.035 447.0
12.05 419.0
12.065 383.0
12.08 364.0
12.095 376.0
12.11 350.0
12.125 333.0
12.14 346.0
12.155 332.0
12.17 350.0
12.185 321.0
12.2 341.0
12.215 344.0
12.23 322.0
12.245 311.0
12.26 327.0
12.275 332.0
12.29 300.0
12.305 300.0
12.32 331.0
12.335 301.0
12.35 285.0
12.365 315.0
12.38 320.0
12.395 324.0
12.41 306.0
12.425 295.0
12.44 314.0
12.455 305.0
12.47 332.0
12.485 325.0
12.5 327.0
12.515 322.0
12.53 359.0
12.545 303.0
12.56 320.0
12.575 318.0
12.59 339.0
12.605 328.0
12.62 313.0
12.635 311.0
12.65 292.0
12.665 328.0
12.68 330.0
12.695 349.0
12.71 364.0
12.725 361.0
12.74 349.0
12.755 354.0
12.77 360.0
12.785 386.0
12.8 371.0
12.815 388.0
12.83 375.0
12.845 382.0
12.86 388.0
12.875 393.0
12.89 406.0
12.905 365.0
12.92 376.0
12.935 383.0
12.95 386.0
12.965 382.0
12.98 361.0
12.995 361.0
13.01 374.0
13.025 379.0
13.04 378.0
13.055 347.0
13.07 374.0
13.085 381.0
13.1 403.0
13.115 375.0
13.13 353.0
13.145 370.0
13.16 349.0
13.175 375.0
13.19 359.0
13.205 360.0
13.22 367.0
13.235 354.0
13.25 391.0
13.265 384.0
13.28 393.0
13.295 364.0
13.31 361.0
13.325 360.0
13.34 368.0
13.355 334.0
13.37 316.0
13.385 357.0
13.4 356.0
13.415 353.0
13.43 321.0
13.445 346.0
13.46 328.0
13.475 305.0
13.49 339.0
13.505 317.0
13.52 291.0
13.535 302.0
13.55 317.0
13.565 287.0
13.58 254.0
13.595 301.0
13.61 308.0
13.625 299.0
13.64 297.0
13.655 305.0
13.67 313.0
13.685 321.0
13.7 305.0
13.715 302.0
13.73 290.0
13.745 326.0
13.76 298.0
13.775 280.0
13.79 296.0
13.805 315.0
13.82 310.0
13.835 287.0
13.85 323.0
13.865 309.0
13.88 300.0
13.895 296.0
13.91 293.0
13.925 300.0
13.94 302.0
13.955 284.0
13.97 293.0
13.985 311.0
14.0 318.0
14.015 310.0
14.03 316.0
14.045 310.0
14.06 291.0
14.075 298.0
14.09 283.0
14.105 302.0
14.12 302.0
14.135 300.0
14.15 307.0
14.165 305.0
14.18 325.0
14.195 312.0
14.21 297.0
14.225 315.0
14.24 316.0
14.255 335.0
14.27 298.0
14.285 321.0
14.3 304.0
14.315 285.0
14.33 304.0
14.345 304.0
14.36 301.0
14.375 281.0
14.39 298.0
14.405 308.0
14.42 301.0
14.435 302.0
14.45 306.0
14.465 288.0
14.48 301.0
14.495 287.0
14.51 294.0
14.525 311.0
14.54 329.0
14.555 328.0
14.57 308.0
14.585 304.0
14.6 324.0
14.615 301.0
14.63 297.0
14.645 353.0
14.66 316.0
14.675 294.0
14.69 296.0
14.705 288.0
14.72 293.0
14.735 287.0
14.75 290.0
14.765 316.0
14.78 326.0
14.795 323.0
14.81 313.0
14.825 326.0
14.84 317.0
14.855 328.0
14.87 307.0
14.885 312.0
14.9 313.0
14.915 291.0
14.93 294.0
14.945 290.0
14.96 319.0
14.975 308.0
14.99 326.0
15.005 324.0
15.02 308.0
15.035 304.0
15.05 311.0
15.065 330.0
15.08 293.0
15.095 299.0
15.11 308.0
15.125 308.0
15.14 286.0
15.155 284.0
15.17 303.0
15.185 309.0
15.2 315.0
15.215 297.0
15.23 279.0
15.245 316.0
15.26 325.0
15.275 322.0
15.29 317.0
15.305 291.0
15.32 286.0
15.335 280.0
15.35 309.0
15.365 308.0
15.38 297.0
15.395 278.0
15.41 320.0
15.425 316.0
15.44 284.0
15.455 312.0
15.47 298.0
15.485 314.0
15.5 282.0
15.515 278.0
15.53 280.0
15.545 321.0
15.56 291.0
15.575 273.0
15.59 299.0
15.605 304.0
15.62 293.0
15.635 315.0
15.65 329.0
15.665 315.0
15.68 315.0
15.695 319.0
15.71 287.0
15.725 318.0
15.74 310.0
15.755 291.0
15.77 315.0
15.785 306.0
15.8 303.0
15.815 319.0
15.83 336.0
15.845 308.0
15.86 327.0
15.875 331.0
15.89 343.0
15.905 332.0
15.92 320.0
15.935 307.0
15.95 298.0
15.965 327.0
15.98 326.0
15.995 308.0
16.01 327.0
16.025 340.0
16.04 307.0
16.055 302.0
16.07 308.0
16.085 330.0
16.1 292.0
16.115 292.0
16.13 318.0
16.145 301.0
16.16 291.0
16.175 320.0
16.19 322.0
16.205 365.0
16.22 333.0
16.235 336.0
16.25 310.0
16.265 354.0
16.28 333.0
16.295 297.0
16.31 302.0
16.325 301.0
16.34 309.0
16.355 305.0
16.37 319.0
16.385 310.0
16.4 337.0
16.415 320.0
16.43 324.0
16.445 299.0
16.46 306.0
16.475 320.0
16.49 328.0
16.505 326.0
16.52 328.0
16.535 312.0
16.55 325.0
16.565 306.0
16.58 334.0
16.595 320.0
16.61 295.0
16.625 308.0
16.64 303.0
16.655 314.0
16.67 313.0
16.685 321.0
16.7 310.0
16.715 311.0
16.73 323.0
16.745 337.0
16.76 333.0
16.775 320.0
16.79 320.0
16.805 316.0
16.82 323.0
16.835 319.0
16.85 326.0
16.865 327.0
16.88 332.0
16.895 330.0
16.91 311.0
16.925 314.0
16.94 337.0
16.955 315.0
16.97 309.0
16.985 303.0
17.0 343.0
17.015 324.0
17.03 298.0
17.045 319.0
17.06 327.0
17.075 332.0
17.09 302.0
17.105 322.0
17.12 309.0
17.135 317.0
17.15 314.0
17.165 313.0
17.18 346.0
17.195 339.0
17.21 319.0
17.225 332.0
17.24 329.0
17.255 364.0
17.27 332.0
17.285 317.0
17.3 335.0
17.315 339.0
17.33 334.0
17.345 330.0
17.36 331.0
17.375 319.0
17.39 341.0
17.405 339.0
17.42 321.0
17.435 336.0
17.45 339.0
17.465 346.0
17.48 339.0
17.495 352.0
17.51 333.0
17.525 311.0
17.54 335.0
17.555 348.0
17.57 335.0
17.585 361.0
17.6 308.0
17.615 323.0
17.63 323.0
17.645 335.0
17.66 324.0
17.675 324.0
17.69 326.0
17.705 303.0
17.72 341.0
17.735 362.0
17.75 356.0
17.765 353.0
17.78 327.0
17.795 330.0
17.81 340.0
17.825 347.0
17.84 345.0
17.855 304.0
17.87 334.0
17.885 390.0
17.9 385.0
17.915 316.0
17.93 332.0
17.945 341.0
17.96 342.0
17.975 345.0
17.99 360.0
18.005 361.0
18.02 355.0
18.035 364.0
18.05 331.0
18.065 342.0
18.08 354.0
18.095 344.0
18.11 351.0
18.125 353.0
18.14 364.0
18.155 402.0
18.17 353.0
18.185 351.0
18.2 371.0
18.215 367.0
18.23 348.0
18.245 365.0
18.26 348.0
18.275 355.0
18.29 364.0
18.305 365.0
18.32 385.0
18.335 392.0
18.35 343.0
18.365 355.0
18.38 353.0
18.395 357.0
18.41 372.0
18.425 378.0
18.44 385.0
18.455 398.0
18.47 373.0
18.485 361.0
18.5 359.0
18.515 375.0
18.53 379.0
18.545 400.0
18.56 388.0
18.575 372.0
18.59 360.0
18.605 356.0
18.62 379.0
18.635 384.0
18.65 379.0
18.665 348.0
18.68 373.0
18.695 392.0
18.71 372.0
18.725 352.0
18.74 383.0
18.755 390.0
18.77 376.0
18.785 375.0
18.8 386.0
18.815 392.0
18.83 373.0
18.845 394.0
18.86 369.0
18.875 387.0
18.89 372.0
18.905 357.0
18.92 341.0
18.935 396.0
18.95 384.0
18.965 371.0
18.98 351.0
18.995 364.0
19.01 400.0
19.025 382.0
19.04 362.0
19.055 358.0
19.07 367.0
19.085 367.0
19.1 372.0
19.115 387.0
19.13 388.0
19.145 412.0
19.16 408.0
19.175 373.0
19.19 413.0
19.205 377.0
19.22 387.0
19.235 375.0
19.25 373.0
19.265 376.0
19.28 383.0
19.295 387.0
19.31 375.0
19.325 382.0
19.34 360.0
19.355 376.0
19.37 384.0
19.385 377.0
19.4 398.0
19.415 368.0
19.43 388.0
19.445 383.0
19.46 372.0
19.475 361.0
19.49 386.0
19.505 383.0
19.52 360.0
19.535 391.0
19.55 365.0
19.565 367.0
19.58 403.0
19.595 387.0
19.61 402.0
19.625 417.0
19.64 408.0
19.655 399.0
19.67 379.0
19.685 391.0
19.7 367.0
19.715 393.0
19.73 393.0
19.745 396.0
19.76 367.0
19.775 381.0
19.79 414.0
19.805 430.0
19.82 386.0
19.835 370.0
19.85 369.0
19.865 382.0
19.88 377.0
19.895 401.0
19.91 388.0
19.925 370.0
19.94 377.0
19.955 379.0
19.97 400.0
19.985 397.0
20.0 382.0
20.015 378.0
20.03 392.0
20.045 392.0
20.06 393.0
20.075 412.0
20.09 398.0
20.105 408.0
20.12 420.0
20.135 383.0
20.15 404.0
20.165 402.0
20.18 390.0
20.195 418.0
20.21 420.0
20.225 434.0
20.24 424.0
20.255 393.0
20.27 408.0
20.285 396.0
20.3 411.0
20.315 458.0
20.33 412.0
20.345 388.0
20.36 427.0
20.375 381.0
20.39 388.0
20.405 390.0
20.42 420.0
20.435 404.0
20.45 393.0
20.465 383.0
20.48 417.0
20.495 404.0
20.51 420.0
20.525 423.0
20.54 394.0
20.555 373.0
20.57 402.0
20.585 407.0
20.6 421.0
20.615 418.0
20.63 402.0
20.645 390.0
20.66 402.0
20.675 372.0
20.69 440.0
20.705 433.0
20.72 423.0
20.735 419.0
20.75 382.0
20.765 395.0
20.78 420.0
20.795 415.0
20.81 402.0
20.825 427.0
20.84 419.0
20.855 398.0
20.87 385.0
20.885 406.0
20.9 410.0
20.915 400.0
20.93 417.0
20.945 424.0
20.96 426.0
20.975 397.0
20.99 410.0
21.005 410.0
21.02 410.0
21.035 430.0
21.05 432.0
21.065 405.0
21.08 414.0
21.095 394.0
21.11 439.0
21.125 418.0
21.14 392.0
21.155 422.0
21.17 413.0
21.185 423.0
21.2 403.0
21.215 384.0
21.23 378.0
21.245 388.0
21.26 387.0
21.275 416.0
21.29 429.0
21.305 415.0
21.32 451.0
21.335 418.0
21.35 385.0
21.365 413.0
21.38 412.0
21.395 418.0
21.41 405.0
21.425 426.0
21.44 419.0
21.455 442.0
21.47 381.0
21.485 432.0
21.5 425.0
21.515 414.0
21.53 445.0
21.545 409.0
21.56 399.0
21.575 420.0
21.59 440.0
21.605 430.0
21.62 440.0
21.635 438.0
21.65 437.0
21.665 426.0
21.68 422.0
21.695 422.0
21.71 426.0
21.725 451.0
21.74 399.0
21.755 425.0
21.77 426.0
21.785 432.0
21.8 429.0
21.815 435.0
21.83 417.0
21.845 398.0
21.86 387.0
21.875 406.0
21.89 409.0
21.905 419.0
21.92 443.0
21.935 420.0
21.95 430.0
21.965 426.0
21.98 434.0
21.995 422.0
22.01 409.0
22.025 399.0
22.04 435.0
22.055 427.0
22.07 419.0
22.085 431.0
22.1 421.0
22.115 427.0
22.13 421.0
22.145 433.0
22.16 444.0
22.175 412.0
22.19 448.0
22.205 443.0
22.22 446.0
22.235 439.0
22.25 468.0
22.265 438.0
22.28 443.0
22.295 439.0
22.31 421.0
22.325 410.0
22.34 435.0
22.355 456.0
22.37 467.0
22.385 412.0
22.4 451.0
22.415 442.0
22.43 438.0
22.445 430.0
22.46 450.0
22.475 477.0
22.49 456.0
22.505 429.0
22.52 435.0
22.535 479.0
22.55 436.0
22.565 436.0
22.58 433.0
22.595 417.0
22.61 455.0
22.625 488.0
22.64 457.0
22.655 464.0
22.67 457.0
22.685 478.0
22.7 444.0
22.715 445.0
22.73 415.0
22.745 394.0
22.76 427.0
22.775 409.0
22.79 419.0
22.805 422.0
22.82 431.0
22.835 422.0
22.85 442.0
22.865 476.0
22.88 471.0
22.895 471.0
22.91 441.0
22.925 456.0
22.94 446.0
22.955 444.0
22.97 443.0
22.985 462.0
23.0 449.0
23.015 511.0
23.03 491.0
23.045 417.0
23.06 428.0
23.075 464.0
23.09 443.0
23.105 478.0
23.12 468.0
23.135 463.0
23.15 489.0
23.165 512.0
23.18 466.0
23.195 463.0
23.21 500.0
23.225 477.0
23.24 504.0
23.255 485.0
23.27 472.0
23.285 465.0
23.3 471.0
23.315 478.0
23.33 483.0
23.345 442.0
23.36 441.0
23.375 465.0
23.39 454.0
23.405 449.0
23.42 439.0
23.435 438.0
23.45 444.0
23.465 469.0
23.48 461.0
23.495 448.0
23.51 472.0
23.525 476.0
23.54 479.0
23.555 486.0
23.57 481.0
23.585 482.0
23.6 449.0
23.615 466.0
23.63 454.0
23.645 494.0
23.66 481.0
23.675 435.0
23.69 452.0
23.705 458.0
23.72 495.0
23.735 454.0
23.75 460.0
23.765 430.0
23.78 454.0
23.795 472.0
23.81 497.0
23.825 505.0
23.84 469.0
23.855 463.0
23.87 499.0
23.885 477.0
23.9 449.0
23.915 445.0
23.93 480.0
23.945 498.0
23.96 481.0
23.975 475.0
23.99 488.0
24.005 491.0
24.02 480.0
24.035 485.0
24.05 468.0
24.065 491.0
24.08 511.0
24.095 529.0
24.11 488.0
24.125 480.0
24.14 441.0
24.155 466.0
24.17 492.0
24.185 501.0
24.2 507.0
24.215 510.0
24.23 473.0
24.245 475.0
24.26 500.0
24.275 531.0
24.29 493.0
24.305 467.0
24.32 495.0
24.335 506.0
24.35 499.0
24.365 460.0
24.38 486.0
24.395 510.0
24.41 508.0
24.425 486.0
24.44 506.0
24.455 528.0
24.47 498.0
24.485 485.0
24.5 478.0
24.515 493.0
24.53 500.0
24.545 523.0
24.56 472.0
24.575 520.0
24.59 524.0
24.605 499.0
24.62 489.0
24.635 487.0
24.65 535.0
24.665 497.0
24.68 527.0
24.695 485.0
24.71 504.0
24.725 536.0
24.74 569.0
24.755 535.0
24.77 516.0
24.785 527.0
24.8 512.0
24.815 527.0
24.83 548.0
24.845 515.0
24.86 532.0
24.875 534.0
24.89 554.0
24.905 536.0
24.92 544.0
24.935 548.0
24.95 548.0
24.965 571.0
24.98 610.0
24.995 596.0
25.01 586.0
25.025 597.0
25.04 628.0
25.055 643.0
25.07 631.0
25.085 599.0
25.1 600.0
25.115 587.0
25.13 595.0
25.145 607.0
25.16 606.0
25.175 618.0
25.19 614.0
25.205 616.0
25.22 651.0
25.235 646.0
25.25 643.0
25.265 701.0
25.28 722.0
25.295 717.0
25.31 732.0
25.325 722.0
25.34 758.0
25.355 748.0
25.37 771.0
25.385 771.0
25.4 798.0
25.415 796.0
25.43 819.0
25.445 848.0
25.46 880.0
25.475 922.0
25.49 916.0
25.505 889.0
25.52 896.0
25.535 950.0
25.55 911.0
25.565 956.0
25.58 938.0
25.595 844.0
25.61 906.0
25.625 885.0
25.64 865.0
25.655 897.0
25.67 826.0
25.685 776.0
25.7 763.0
25.715 736.0
25.73 728.0
25.745 700.0
25.76 687.0
25.775 736.0
25.79 702.0
25.805 671.0
25.82 650.0
25.835 656.0
25.85 677.0
25.865 630.0
25.88 655.0
25.895 652.0
25.91 622.0
25.925 613.0
25.94 609.0
25.955 601.0
25.97 605.0
25.985 609.0
26.0 592.0
26.015 599.0
26.03 604.0
26.045 615.0
26.06 595.0
26.075 589.0
26.09 600.0
26.105 571.0
26.12 554.0
26.135 539.0
26.15 546.0
26.165 569.0
26.18 556.0
26.195 559.0
26.21 585.0
26.225 558.0
26.24 583.0
26.255 558.0
26.27 573.0
26.285 576.0
26.3 574.0
26.315 542.0
26.33 539.0
26.345 544.0
26.36 555.0
26.375 588.0
26.39 570.0
26.405 570.0
26.42 571.0
26.435 574.0
26.45 578.0
26.465 586.0
26.48 611.0
26.495 589.0
26.51 613.0
26.525 585.0
26.54 566.0
26.555 592.0
26.57 608.0
26.585 602.0
26.6 586.0
26.615 586.0
26.63 590.0
26.645 577.0
26.66 563.0
26.675 611.0
26.69 581.0
26.705 586.0
26.72 605.0
26.735 626.0
26.75 627.0
26.765 598.0
26.78 574.0
26.795 592.0
26.81 610.0
26.825 628.0
26.84 627.0
26.855 613.0
26.87 622.0
26.885 614.0
26.9 624.0
26.915 639.0
26.93 672.0
26.945 644.0
26.96 627.0
26.975 664.0
26.99 712.0
27.005 712.0
27.02 736.0
27.035 745.0
27.05 691.0
27.065 770.0
27.08 796.0
27.095 784.0
27.11 783.0
27.125 788.0
27.14 806.0
27.155 829.0
27.17 764.0
27.185 776.0
27.2 796.0
27.215 796.0
27.23 839.0
27.245 830.0
27.26 848.0
27.275 886.0
27.29 854.0
27.305 850.0
27.32 903.0
27.335 895.0
27.35 870.0
27.365 868.0
27.38 944.0
27.395 969.0
27.41 956.0
27.425 940.0
27.44 955.0
27.455 1004.0
27.47 952.0
27.485 1000.0
27.5 940.0
27.515 965.0
27.53 921.0
27.545 911.0
27.56 859.0
27.575 883.0
27.59 873.0
27.605 820.0
27.62 785.0
27.635 813.0
27.65 787.0
27.665 774.0
27.68 726.0
27.695 699.0
27.71 688.0
27.725 643.0
27.74 600.0
27.755 633.0
27.77 615.0
27.785 592.0
27.8 582.0
27.815 561.0
27.83 605.0
27.845 602.0
27.86 516.0
27.875 521.0
27.89 513.0
27.905 501.0
27.92 529.0
27.935 551.0
27.95 524.0
27.965 505.0
27.98 496.0
27.995 471.0
28.01 527.0
28.025 514.0
28.04 510.0
28.055 505.0
28.07 467.0
28.085 476.0
28.1 451.0
28.115 439.0
28.13 452.0
28.145 467.0
28.16 465.0
28.175 441.0
28.19 460.0
28.205 460.0
28.22 487.0
28.235 460.0
28.25 443.0
28.265 447.0
28.28 426.0
28.295 441.0
28.31 440.0
28.325 427.0
28.34 442.0
28.355 452.0
28.37 451.0
28.385 424.0
28.4 441.0
28.415 447.0
28.43 451.0
28.445 457.0
28.46 450.0
28.475 414.0
28.49 423.0
28.505 418.0
28.52 402.0
28.535 431.0
28.55 431.0
28.565 434.0
28.58 448.0
28.595 400.0
28.61 400.0
28.625 392.0
28.64 413.0
28.655 420.0
28.67 411.0
28.685 409.0
28.7 416.0
28.715 417.0
28.73 418.0
28.745 415.0
28.76 426.0
28.775 415.0
28.79 411.0
28.805 435.0
28.82 415.0
28.835 424.0
28.85 421.0
28.865 406.0
28.88 405.0
28.895 395.0
28.91 413.0
28.925 423.0
28.94 402.0
28.955 391.0
28.97 394.0
28.985 387.0
29.0 428.0
29.015 412.0
29.03 389.0
29.045 382.0
29.06 383.0
29.075 425.0
29.09 441.0
29.105 396.0
29.12 393.0
29.135 384.0
29.15 423.0
29.165 390.0
29.18 386.0
29.195 392.0
29.21 425.0
29.225 419.0
29.24 393.0
29.255 369.0
29.27 400.0
29.285 431.0
29.3 414.0
29.315 432.0
29.33 386.0
29.345 407.0
29.36 433.0
29.375 398.0
29.39 427.0
29.405 384.0
29.42 387.0
29.435 395.0
29.45 410.0
29.465 396.0
29.48 393.0
29.495 409.0
29.51 381.0
29.525 396.0
29.54 395.0
29.555 420.0
29.57 407.0
29.585 395.0
29.6 386.0
29.615 386.0
29.63 388.0
29.645 385.0
29.66 406.0
29.675 404.0
29.69 402.0
29.705 391.0
29.72 416.0
29.735 405.0
29.75 429.0
29.765 406.0
29.78 380.0
29.795 400.0
29.81 391.0
29.825 392.0
29.84 397.0
29.855 398.0
29.87 409.0
29.885 395.0
29.9 429.0
29.915 423.0
29.93 408.0
29.945 406.0
29.96 412.0
29.975 385.0
29.99 398.0
30.005 426.0
30.02 390.0
30.035 421.0
30.05 389.0
30.065 421.0
30.08 395.0
30.095 394.0
30.11 386.0
30.125 413.0
30.14 409.0
30.155 415.0
30.17 431.0
30.185 450.0
30.2 415.0
30.215 439.0
30.23 428.0
30.245 417.0
30.26 443.0
30.275 452.0
30.29 440.0
30.305 430.0
30.32 449.0
30.335 428.0
30.35 444.0
30.365 429.0
30.38 455.0
30.395 470.0
30.41 424.0
30.425 443.0
30.44 457.0
30.455 444.0
30.47 441.0
30.485 454.0
30.5 469.0
30.515 431.0
30.53 419.0
30.545 447.0
30.56 454.0
30.575 430.0
30.59 406.0
30.605 381.0
30.62 417.0
30.635 438.0
30.65 411.0
30.665 397.0
30.68 416.0
30.695 392.0
30.71 392.0
30.725 370.0
30.74 359.0
30.755 389.0
30.77 413.0
30.785 387.0
30.8 362.0
30.815 374.0
30.83 397.0
30.845 351.0
30.86 363.0
30.875 368.0
30.89 384.0
30.905 382.0
30.92 392.0
30.935 384.0
30.95 348.0
30.965 377.0
30.98 370.0
30.995 344.0
31.01 384.0
31.025 375.0
31.04 342.0
31.055 341.0
31.07 364.0
31.085 328.0
31.1 344.0
31.115 343.0
31.13 350.0
31.145 354.0
31.16 346.0
31.175 330.0
31.19 364.0
31.205 349.0
31.22 338.0
31.235 333.0
31.25 367.0
31.265 370.0
31.28 358.0
31.295 362.0
31.31 375.0
31.325 383.0
31.34 351.0
31.355 341.0
31.37 344.0
31.385 360.0
31.4 337.0
31.415 321.0
31.43 336.0
31.445 296.0
31.46 322.0
31.475 339.0
31.49 308.0
31.505 337.0
31.52 342.0
31.535 319.0
31.55 349.0
31.565 355.0
31.58 373.0
31.595 349.0
31.61 356.0
31.625 310.0
31.64 326.0
31.655 350.0
31.67 334.0
31.685 357.0
31.7 352.0
31.715 340.0
31.73 334.0
31.745 332.0
31.76 322.0
31.775 307.0
31.79 314.0
31.805 304.0
31.82 306.0
31.835 339.0
31.85 345.0
31.865 326.0
31.88 327.0
31.895 335.0
31.91 321.0
31.925 321.0
31.94 310.0
31.955 318.0
31.97 321.0
31.985 328.0
32.0 338.0
32.015 330.0
32.03 307.0
32.045 320.0
32.06 346.0
32.075 295.0
32.09 296.0
32.105 322.0
32.12 315.0
32.135 323.0
32.15 325.0
32.165 334.0
32.18 317.0
32.195 337.0
32.21 301.0
32.225 316.0
32.24 335.0
32.255 314.0
32.27 334.0
32.285 351.0
32.3 317.0
32.315 317.0
32.33 305.0
32.345 322.0
32.36 327.0
32.375 333.0
32.39 333.0
32.405 343.0
32.42 299.0
32.435 309.0
32.45 294.0
32.465 292.0
32.48 326.0
32.495 306.0
32.51 320.0
32.525 319.0
32.54 321.0
32.555 289.0
32.57 297.0
32.585 334.0
32.6 321.0
32.615 301.0
32.63 302.0
32.645 312.0
32.66 296.0
32.675 288.0
32.69 272.0
32.705 290.0
32.72 315.0
32.735 319.0
32.75 325.0
32.765 304.0
32.78 291.0
32.795 300.0
32.81 298.0
32.825 307.0
32.84 333.0
32.855 277.0
32.87 304.0
32.885 294.0
32.9 296.0
32.915 309.0
32.93 301.0
32.945 283.0
32.96 313.0
32.975 314.0
32.99 289.0
33.005 274.0
33.02 283.0
33.035 304.0
33.05 266.0
33.065 293.0
33.08 288.0
33.095 302.0
33.11 302.0
33.125 296.0
33.14 286.0
33.155 308.0
33.17 303.0
33.185 310.0
33.2 282.0
33.215 259.0
33.23 298.0
33.245 280.0
33.26 288.0
33.275 268.0
33.29 275.0
33.305 299.0
33.32 285.0
33.335 298.0
33.35 302.0
33.365 300.0
33.38 281.0
33.395 280.0
33.41 275.0
33.425 286.0
33.44 271.0
33.455 264.0
33.47 269.0
33.485 284.0
33.5 291.0
33.515 270.0
33.53 256.0
33.545 282.0
33.56 254.0
33.575 287.0
33.59 290.0
33.605 277.0
33.62 284.0
33.635 272.0
33.65 293.0
33.665 295.0
33.68 284.0
33.695 285.0
33.71 319.0
33.725 306.0
33.74 280.0
33.755 295.0
33.77 271.0
33.785 248.0
33.8 268.0
33.815 281.0
33.83 280.0
33.845 280.0
33.86 274.0
33.875 282.0
33.89 290.0
33.905 286.0
33.92 265.0
33.935 257.0
33.95 254.0
33.965 285.0
33.98 286.0
33.995 287.0
34.01 266.0
34.025 259.0
34.04 293.0
34.055 276.0
34.07 260.0
34.085 284.0
34.1 273.0
34.115 275.0
34.13 285.0
34.145 284.0
34.16 281.0
34.175 262.0
34.19 272.0
34.205 266.0
34.22 274.0
34.235 266.0
34.25 273.0
34.265 269.0
34.28 256.0
34.295 269.0
34.31 286.0
34.325 285.0
34.34 276.0
34.355 257.0
34.37 259.0
34.385 253.0
34.4 282.0
34.415 251.0
34.43 269.0
34.445 282.0
34.46 248.0
34.475 250.0
34.49 251.0
34.505 274.0
34.52 271.0
34.535 246.0
34.55 237.0
34.565 265.0
34.58 254.0
34.595 263.0
34.61 266.0
34.625 281.0
34.64 248.0
34.655 229.0
34.67 258.0
34.685 253.0
34.7 231.0
34.715 275.0
34.73 248.0
34.745 251.0
34.76 262.0
34.775 241.0
34.79 227.0
34.805 284.0
34.82 259.0
34.835 262.0
34.85 253.0
34.865 267.0
34.88 239.0
34.895 247.0
34.91 250.0
34.925 276.0
34.94 252.0
34.955 232.0
34.97 276.0
34.985 283.0
35.0 244.0
35.015 253.0
35.03 237.0
35.045 258.0
35.06 259.0
35.075 252.0
35.09 260.0
35.105 242.0
35.12 254.0
35.135 249.0
35.15 233.0
35.165 265.0
35.18 258.0
35.195 238.0
35.21 248.0
35.225 239.0
35.24 252.0
35.255 239.0
35.27 231.0
35.285 250.0
35.3 245.0
35.315 262.0
35.33 240.0
35.345 237.0
35.36 258.0
35.375 265.0
35.39 264.0
35.405 255.0
35.42 226.0
35.435 230.0
35.45 240.0
35.465 240.0
35.48 229.0
35.495 239.0
35.51 224.0
35.525 233.0
35.54 236.0
35.555 241.0
35.57 231.0
35.585 235.0
35.6 263.0
35.615 254.0
35.63 233.0
35.645 248.0
35.66 215.0
35.675 246.0
35.69 250.0
35.705 245.0
35.72 242.0
35.735 245.0
35.75 223.0
35.765 230.0
35.78 221.0
35.795 246.0
35.81 231.0
35.825 235.0
35.84 249.0
35.855 237.0
35.87 240.0
35.885 228.0
35.9 236.0
35.915 228.0
35.93 250.0
35.945 234.0
35.96 238.0
35.975 236.0
35.99 244.0
36.005 224.0
36.02 213.0
36.035 224.0
36.05 235.0
36.065 224.0
36.08 225.0
36.095 240.0
36.11 245.0
36.125 230.0
36.14 208.0
36.155 196.0
36.17 212.0
36.185 220.0
36.2 221.0
36.215 215.0
36.23 231.0
36.245 210.0
36.26 253.0
36.275 221.0
36.29 216.0
36.305 235.0
36.32 230.0
36.335 241.0
36.35 238.0
36.365 205.0
36.38 227.0
36.395 219.0
36.41 216.0
36.425 223.0
36.44 195.0
36.455 197.0
36.47 200.0
36.485 227.0
36.5 229.0
36.515 212.0
36.53 211.0
36.545 208.0
36.56 227.0
36.575 205.0
36.59 219.0
36.605 203.0
36.62 215.0
36.635 199.0
36.65 215.0
36.665 218.0
36.68 233.0
36.695 233.0
36.71 223.0
36.725 243.0
36.74 210.0
36.755 205.0
36.77 204.0
36.785 196.0
36.8 216.0
36.815 216.0
36.83 197.0
36.845 196.0
36.86 214.0
36.875 221.0
36.89 217.0
36.905 216.0
36.92 205.0
36.935 225.0
36.95 204.0
36.965 205.0
36.98 216.0
36.995 243.0
37.01 216.0
37.025 216.0
37.04 208.0
37.055 215.0
37.07 225.0
37.085 202.0
37.1 204.0
37.115 217.0
37.13 228.0
37.145 227.0
37.16 232.0
37.175 226.0
37.19 197.0
37.205 212.0
37.22 209.0
37.235 216.0
37.25 207.0
37.265 202.0
37.28 197.0
37.295 215.0
37.31 216.0
37.325 225.0
37.34 214.0
37.355 196.0
37.37 205.0
37.385 212.0
37.4 217.0
37.415 234.0
37.43 214.0
37.445 197.0
37.46 205.0
37.475 201.0
37.49 211.0
37.505 205.0
37.52 190.0
37.535 193.0
37.55 167.0
37.565 216.0
37.58 204.0
37.595 217.0
37.61 213.0
37.625 196.0
37.64 201.0
37.655 182.0
37.67 188.0
37.685 204.0
37.7 201.0
37.715 202.0
37.73 216.0
37.745 204.0
37.76 192.0
37.775 194.0
37.79 198.0
37.805 179.0
37.82 201.0
37.835 212.0
37.85 210.0
37.865 197.0
37.88 199.0
37.895 199.0
37.91 194.0
37.925 185.0
37.94 184.0
37.955 206.0
37.97 190.0
37.985 195.0
38.0 186.0
38.015 201.0
38.03 197.0
38.045 209.0
38.06 202.0
38.075 209.0
38.09 205.0
38.105 201.0
38.12 202.0
38.135 204.0
38.15 209.0
38.165 195.0
38.18 202.0
38.195 200.0
38.21 219.0
38.225 207.0
38.24 205.0
38.255 205.0
38.27 203.0
38.285 203.0
38.3 206.0
38.315 204.0
38.33 209.0
38.345 217.0
38.36 197.0
38.375 201.0
38.39 192.0
38.405 188.0
38.42 198.0
38.435 209.0
38.45 196.0
38.465 202.0
38.48 184.0
38.495 175.0
38.51 185.0
38.525 178.0
38.54 176.0
38.555 202.0
38.57 194.0
38.585 195.0
38.6 194.0
38.615 201.0
38.63 210.0
38.645 184.0
38.66 184.0
38.675 196.0
38.69 192.0
38.705 193.0
38.72 219.0
38.735 190.0
38.75 187.0
38.765 205.0
38.78 199.0
38.795 183.0
38.81 208.0
38.825 213.0
38.84 200.0
38.855 195.0
38.87 189.0
38.885 200.0
38.9 179.0
38.915 184.0
38.93 200.0
38.945 183.0
38.96 186.0
38.975 198.0
38.99 187.0
39.005 193.0
39.02 195.0
39.035 205.0
39.05 186.0
39.065 192.0
39.08 196.0
39.095 204.0
39.11 178.0
39.125 199.0
39.14 193.0
39.155 201.0
39.17 212.0
39.185 215.0
39.2 175.0
39.215 190.0
39.23 205.0
39.245 192.0
39.26 193.0
39.275 191.0
39.29 180.0
39.305 188.0
39.32 205.0
39.335 203.0
39.35 224.0
39.365 223.0
39.38 215.0
39.395 186.0
39.41 188.0
39.425 204.0
39.44 195.0
39.455 195.0
39.47 191.0
39.485 211.0
39.5 219.0
39.515 200.0
39.53 203.0
39.545 193.0
39.56 204.0
39.575 208.0
39.59 194.0
39.605 195.0
39.62 214.0
39.635 217.0
39.65 218.0
39.665 200.0
39.68 201.0
39.695 204.0
39.71 200.0
39.725 225.0
39.74 214.0
39.755 207.0
39.77 209.0
39.785 210.0
39.8 208.0
39.815 205.0
39.83 208.0
39.845 187.0
39.86 210.0
39.875 193.0
39.89 197.0
39.905 203.0
39.92 203.0
39.935 200.0
39.95 203.0
39.965 212.0
39.98 193.0
39.995 208.0
40.01 207.0
40.025 190.0
40.04 217.0
40.055 213.0
40.07 198.0
40.085 211.0
40.1 219.0
40.115 205.0
40.13 200.0
40.145 191.0
40.16 212.0
40.175 216.0
40.19 218.0
40.205 209.0
40.22 205.0
40.235 214.0
40.25 205.0
40.265 222.0
40.28 208.0
40.295 218.0
40.31 202.0
40.325 219.0
40.34 210.0
40.355 224.0
40.37 225.0
40.385 201.0
40.4 211.0
40.415 211.0
40.43 215.0
40.445 205.0
40.46 201.0
40.475 213.0
40.49 225.0
40.505 225.0
40.52 194.0
40.535 220.0
40.55 221.0
40.565 206.0
40.58 212.0
40.595 215.0
40.61 221.0
40.625 206.0
40.64 181.0
40.655 194.0
40.67 219.0
40.685 219.0
40.7 216.0
40.715 206.0
40.73 207.0
40.745 210.0
40.76 212.0
40.775 219.0
40.79 197.0
40.805 181.0
40.82 183.0
40.835 192.0
40.85 223.0
40.865 193.0
40.88 202.0
40.895 203.0
40.91 225.0
40.925 184.0
40.94 191.0
40.955 207.0
40.97 209.0
40.985 208.0
41.0 209.0
41.015 225.0
41.03 209.0
41.045 196.0
41.06 190.0
41.075 195.0
41.09 212.0
41.105 212.0
41.12 213.0
41.135 206.0
41.15 202.0
41.165 213.0
41.18 222.0
41.195 220.0
41.21 221.0
41.225 197.0
41.24 197.0
41.255 223.0
41.27 195.0
41.285 212.0
41.3 214.0
41.315 217.0
41.33 204.0
41.345 194.0
41.36 195.0
41.375 193.0
41.39 207.0
41.405 184.0
41.42 201.0
41.435 181.0
41.45 194.0
41.465 226.0
41.48 205.0
41.495 201.0
41.51 211.0
41.525 207.0
41.54 193.0
41.555 217.0
41.57 214.0
41.585 209.0
41.6 200.0
41.615 199.0
41.63 206.0
41.645 195.0
41.66 220.0
41.675 194.0
41.69 218.0
41.705 211.0
41.72 197.0
41.735 222.0
41.75 202.0
41.765 200.0
41.78 203.0
41.795 176.0
41.81 193.0
41.825 180.0
41.84 203.0
41.855 197.0
41.87 179.0
41.885 192.0
41.9 185.0
41.915 197.0
41.93 207.0
41.945 208.0
41.96 194.0
41.975 175.0
41.99 194.0
42.005 199.0
42.02 194.0
42.035 195.0
42.05 189.0
42.065 190.0
42.08 176.0
42.095 182.0
42.11 201.0
42.125 184.0
42.14 186.0
42.155 197.0
42.17 172.0
42.185 180.0
42.2 200.0
42.215 186.0
42.23 189.0
42.245 187.0
42.26 191.0
42.275 188.0
42.29 189.0
42.305 190.0
42.32 205.0
42.335 194.0
42.35 195.0
42.365 188.0
42.38 212.0
42.395 195.0
42.41 205.0
42.425 199.0
42.44 205.0
42.455 192.0
42.47 198.0
42.485 196.0
42.5 190.0
42.515 197.0
42.53 185.0
42.545 207.0
42.56 208.0
42.575 178.0
42.59 190.0
42.605 193.0
42.62 200.0
42.635 216.0
42.65 184.0
42.665 193.0
42.68 199.0
42.695 196.0
42.71 195.0
42.725 196.0
42.74 181.0
42.755 217.0
42.77 202.0
42.785 178.0
42.8 208.0
42.815 192.0
42.83 174.0
42.845 177.0
42.86 198.0
42.875 189.0
42.89 200.0
42.905 176.0
42.92 182.0
42.935 191.0
42.95 191.0
42.965 196.0
42.98 199.0
42.995 187.0
43.01 195.0
43.025 214.0
43.04 183.0
43.055 197.0
43.07 192.0
43.085 196.0
43.1 183.0
43.115 173.0
43.13 172.0
43.145 177.0
43.16 186.0
43.175 183.0
43.19 186.0
43.205 180.0
43.22 197.0
43.235 201.0
43.25 182.0
43.265 192.0
43.28 187.0
43.295 182.0
43.31 180.0
43.325 176.0
43.34 176.0
43.355 205.0
43.37 198.0
43.385 188.0
43.4 199.0
43.415 171.0
43.43 173.0
43.445 201.0
43.46 190.0
43.475 206.0
43.49 181.0
43.505 185.0
43.52 192.0
43.535 174.0
43.55 183.0
43.565 192.0
43.58 193.0
43.595 182.0
43.61 192.0
43.625 187.0
43.64 196.0
43.655 186.0
43.67 190.0
43.685 171.0
43.7 186.0
43.715 218.0
43.73 204.0
43.745 188.0
43.76 179.0
43.775 190.0
43.79 181.0
43.805 185.0
43.82 179.0
43.835 199.0
43.85 188.0
43.865 166.0
43.88 173.0
43.895 181.0
43.91 177.0
43.925 194.0
43.94 200.0
43.955 169.0
43.97 169.0
43.985 163.0
44.0 166.0
44.015 195.0
44.03 209.0
44.045 189.0
44.06 189.0
44.075 199.0
44.09 182.0
44.105 177.0
44.12 172.0
44.135 179.0
44.15 172.0
44.165 198.0
44.18 206.0
44.195 185.0
44.21 189.0
44.225 202.0
44.24 192.0
44.255 186.0
44.27 180.0
44.285 197.0
44.3 195.0
44.315 202.0
44.33 174.0
44.345 181.0
44.36 179.0
44.375 189.0
44.39 187.0
44.405 190.0
44.42 211.0
44.435 187.0
44.45 174.0
44.465 175.0
44.48 186.0
44.495 169.0
44.51 165.0
44.525 179.0
44.54 185.0
44.555 177.0
44.57 171.0
44.585 179.0
44.6 183.0
44.615 180.0
44.63 170.0
44.645 184.0
44.66 192.0
44.675 175.0
44.69 166.0
44.705 181.0
44.72 184.0
44.735 192.0
44.75 172.0
44.765 167.0
44.78 168.0
44.795 173.0
44.81 160.0
44.825 174.0
44.84 195.0
44.855 171.0
44.87 180.0
44.885 173.0
44.9 179.0
44.915 179.0
44.93 195.0
44.945 183.0
44.96 196.0
44.975 183.0
44.99 207.0
45.005 190.0
45.02 192.0
45.035 186.0
45.05 191.0
45.065 199.0
45.08 196.0
45.095 178.0
45.11 184.0
45.125 199.0
45.14 197.0
45.155 200.0
45.17 202.0
45.185 177.0
45.2 154.0
45.215 167.0
45.23 187.0
45.245 174.0
45.26 190.0
45.275 195.0
45.29 184.0
45.305 172.0
45.32 193.0
45.335 185.0
45.35 181.0
45.365 147.0
45.38 168.0
45.395 171.0
45.41 182.0
45.425 202.0
45.44 190.0
45.455 189.0
45.47 193.0
45.485 176.0
45.5 166.0
45.515 187.0
45.53 174.0
45.545 181.0
45.56 186.0
45.575 191.0
45.59 182.0
45.605 178.0
45.62 175.0
45.635 190.0
45.65 196.0
45.665 184.0
45.68 187.0
45.695 196.0
45.71 192.0
45.725 175.0
45.74 189.0
45.755 198.0
45.77 188.0
45.785 205.0
45.8 196.0
45.815 188.0
45.83 194.0
45.845 192.0
45.86 186.0
45.875 166.0
45.89 194.0
45.905 170.0
45.92 180.0
45.935 216.0
45.95 190.0
45.965 170.0
45.98 182.0
45.995 181.0
46.01 199.0
46.025 179.0
46.04 172.0
46.055 171.0
46.07 189.0
46.085 201.0
46.1 175.0
46.115 176.0
46.13 170.0
46.145 179.0
46.16 173.0
46.175 175.0
46.19 165.0
46.205 164.0
46.22 159.0
46.235 171.0
46.25 179.0
46.265 166.0
46.28 177.0
46.295 185.0
46.31 175.0
46.325 192.0
46.34 178.0
46.355 181.0
46.37 189.0
46.385 192.0
46.4 199.0
46.415 187.0
46.43 176.0
46.445 185.0
46.46 182.0
46.475 185.0
46.49 184.0
46.505 158.0
46.52 154.0
46.535 167.0
46.55 184.0
46.565 171.0
46.58 144.0
46.595 174.0
46.61 193.0
46.625 190.0
46.64 198.0
46.655 203.0
46.67 191.0
46.685 180.0
46.7 162.0
46.715 173.0
46.73 181.0
46.745 162.0
46.76 164.0
46.775 173.0
46.79 195.0
46.805 172.0
46.82 160.0
46.835 156.0
46.85 168.0
46.865 159.0
46.88 157.0
46.895 179.0
46.91 163.0
46.925 166.0
46.94 170.0
46.955 153.0
46.97 176.0
46.985 165.0
47.0 170.0
47.015 170.0
47.03 181.0
47.045 174.0
47.06 164.0
47.075 181.0
47.09 183.0
47.105 170.0
47.12 187.0
47.135 176.0
47.15 171.0
47.165 182.0
47.18 186.0
47.195 175.0
47.21 179.0
47.225 175.0
47.24 152.0
47.255 142.0
47.27 164.0
47.285 148.0
47.3 166.0
47.315 189.0
47.33 178.0
47.345 169.0
47.36 151.0
47.375 158.0
47.39 169.0
47.405 172.0
47.42 171.0
47.435 175.0
47.45 164.0
47.465 156.0
47.48 171.0
47.495 172.0
47.51 171.0
47.525 189.0
47.54 175.0
47.555 165.0
47.57 171.0
47.585 171.0
47.6 182.0
47.615 178.0
47.63 162.0
47.645 164.0
47.66 167.0
47.675 157.0
47.69 165.0
47.705 155.0
47.72 171.0
47.735 166.0
47.75 159.0
47.765 165.0
47.78 156.0
47.795 164.0
47.81 159.0
47.825 174.0
47.84 177.0
47.855 190.0
47.87 167.0
47.885 162.0
47.9 175.0
47.915 167.0
47.93 176.0
47.945 194.0
47.96 165.0
47.975 163.0
47.99 150.0
48.005 157.0
48.02 158.0
48.035 157.0
48.05 162.0
48.065 169.0
48.08 183.0
48.095 165.0
48.11 188.0
48.125 198.0
48.14 185.0
48.155 194.0
48.17 182.0
48.185 173.0
48.2 157.0
48.215 151.0
48.23 159.0
48.245 182.0
48.26 163.0
48.275 158.0
48.29 165.0
48.305 166.0
48.32 175.0
48.335 172.0
48.35 160.0
48.365 157.0
48.38 162.0
48.395 172.0
48.41 175.0
48.425 154.0
48.44 163.0
48.455 161.0
48.47 170.0
48.485 149.0
48.5 151.0
48.515 165.0
48.53 170.0
48.545 174.0
48.56 173.0
48.575 157.0
48.59 147.0
48.605 163.0
48.62 167.0
48.635 165.0
48.65 179.0
48.665 163.0
48.68 166.0
48.695 180.0
48.71 170.0
48.725 163.0
48.74 169.0
48.755 157.0
48.77 173.0
48.785 156.0
48.8 168.0
48.815 165.0
48.83 166.0
48.845 177.0
48.86 158.0
48.875 156.0
48.89 175.0
48.905 161.0
48.92 159.0
48.935 164.0
48.95 150.0
48.965 147.0
48.98 168.0
48.995 167.0
49.01 166.0
49.025 163.0
49.04 160.0
49.055 147.0
49.07 141.0
49.085 146.0
49.1 156.0
49.115 146.0
49.13 158.0
49.145 173.0
49.16 157.0
49.175 165.0
49.19 168.0
49.205 153.0
49.22 160.0
49.235 147.0
49.25 160.0
49.265 149.0
49.28 135.0
49.295 166.0
49.31 160.0
49.325 141.0
49.34 155.0
49.355 160.0
49.37 163.0
49.385 159.0
49.4 150.0
49.415 156.0
49.43 173.0
49.445 158.0
49.46 166.0
49.475 177.0
49.49 165.0
49.505 161.0
49.52 186.0
49.535 163.0
49.55 158.0
49.565 163.0
49.58 154.0
49.595 148.0
49.61 165.0
49.625 171.0
49.64 167.0
49.655 167.0
49.67 156.0
49.685 153.0
49.7 147.0
49.715 153.0
49.73 147.0
49.745 166.0
49.76 163.0
49.775 168.0
49.79 157.0
49.805 167.0
49.82 171.0
49.835 162.0
49.85 166.0
49.865 142.0
49.88 158.0
49.895 162.0
49.91 146.0
49.925 151.0
49.94 154.0
49.955 179.0
49.97 151.0
49.985 156.0
50.0 143.0
50.015 158.0
50.03 149.0
50.045 174.0
50.06 161.0
50.075 156.0
50.09 152.0
50.105 145.0
50.12 155.0
50.135 169.0
50.15 172.0
50.165 165.0
50.18 158.0
50.195 147.0
50.21 166.0
50.225 172.0
50.24 150.0
50.255 165.0
50.27 149.0
50.285 150.0
50.3 144.0
50.315 151.0
50.33 143.0
50.345 146.0
50.36 137.0
50.375 156.0
50.39 141.0
50.405 157.0
50.42 164.0
50.435 175.0
50.45 154.0
50.465 154.0
50.48 164.0
50.495 184.0
50.51 163.0
50.525 156.0
50.54 144.0
50.555 150.0
50.57 158.0
50.585 159.0
50.6 155.0
50.615 163.0
50.63 160.0
50.645 149.0
50.66 167.0
50.675 145.0
50.69 160.0
50.705 166.0
50.72 166.0
50.735 155.0
50.75 142.0
50.765 171.0
50.78 165.0
50.795 151.0
50.81 152.0
50.825 146.0
50.84 143.0
50.855 164.0
50.87 152.0
50.885 171.0
50.9 161.0
50.915 124.0
50.93 148.0
50.945 149.0
50.96 154.0
50.975 168.0
50.99 166.0
51.005 160.0
51.02 162.0
51.035 155.0
51.05 158.0
51.065 150.0
51.08 151.0
51.095 154.0
51.11 174.0
51.125 163.0
51.14 165.0
51.155 164.0
51.17 159.0
51.185 154.0
51.2 143.0
51.215 189.0
51.23 163.0
51.245 159.0
51.26 152.0
51.275 154.0
51.29 158.0
51.305 161.0
51.32 159.0
51.335 148.0
51.35 145.0
51.365 151.0
51.38 153.0
51.395 145.0
51.41 169.0
51.425 163.0
51.44 166.0
51.455 167.0
51.47 148.0
51.485 170.0
51.5 162.0
51.515 168.0
51.53 155.0
51.545 154.0
51.56 146.0
51.575 153.0
51.59 149.0
51.605 164.0
51.62 154.0
51.635 155.0
51.65 141.0
51.665 140.0
51.68 152.0
51.695 151.0
51.71 150.0
51.725 170.0
51.74 165.0
51.755 163.0
51.77 161.0
51.785 163.0
51.8 156.0
51.815 166.0
51.83 173.0
51.845 154.0
51.86 156.0
51.875 155.0
51.89 177.0
51.905 152.0
51.92 142.0
51.935 177.0
51.95 160.0
51.965 154.0
51.98 153.0
51.995 154.0
52.01 151.0
52.025 159.0
52.04 173.0
52.055 148.0
52.07 165.0
52.085 173.0
52.1 167.0
52.115 159.0
52.13 154.0
52.145 158.0
52.16 149.0
52.175 169.0
52.19 153.0
52.205 164.0
52.22 157.0
52.235 155.0
52.25 168.0
52.265 136.0
52.28 154.0
52.295 149.0
52.31 146.0
52.325 160.0
52.34 145.0
52.355 149.0
52.37 167.0
52.385 145.0
52.4 142.0
52.415 158.0
52.43 142.0
52.445 146.0
52.46 151.0
52.475 136.0
52.49 171.0
52.505 166.0
52.52 171.0
52.535 159.0
52.55 155.0
52.565 146.0
52.58 157.0
52.595 181.0
52.61 166.0
52.625 153.0
52.64 166.0
52.655 165.0
52.67 143.0
52.685 173.0
52.7 162.0
52.715 156.0
52.73 159.0
52.745 156.0
52.76 165.0
52.775 148.0
52.79 177.0
52.805 156.0
52.82 160.0
52.835 159.0
52.85 160.0
52.865 161.0
52.88 158.0
52.895 143.0
52.91 160.0
52.925 173.0
52.94 153.0
52.955 151.0
52.97 156.0
52.985 165.0
53.0 162.0
53.015 161.0
53.03 159.0
53.045 142.0
53.06 148.0
53.075 148.0
53.09 170.0
53.105 168.0
53.12 158.0
53.135 159.0
53.15 170.0
53.165 162.0
53.18 163.0
53.195 140.0
53.21 148.0
53.225 140.0
53.24 161.0
53.255 161.0
53.27 183.0
53.285 157.0
53.3 171.0
53.315 160.0
53.33 147.0
53.345 151.0
53.36 162.0
53.375 166.0
53.39 160.0
53.405 161.0
53.42 140.0
53.435 149.0
53.45 148.0
53.465 162.0
53.48 148.0
53.495 143.0
53.51 166.0
53.525 159.0
53.54 167.0
53.555 164.0
53.57 144.0
53.585 163.0
53.6 167.0
53.615 153.0
53.63 173.0
53.645 160.0
53.66 152.0
53.675 164.0
53.69 143.0
53.705 154.0
53.72 148.0
53.735 169.0
53.75 149.0
53.765 157.0
53.78 158.0
53.795 171.0
53.81 170.0
53.825 162.0
53.84 161.0
53.855 155.0
53.87 144.0
53.885 148.0
53.9 158.0
53.915 155.0
53.93 166.0
53.945 165.0
53.96 167.0
53.975 171.0
53.99 172.0
54.005 165.0
54.02 145.0
54.035 158.0
54.05 162.0
54.065 163.0
54.08 169.0
54.095 153.0
54.11 176.0
54.125 141.0
54.14 155.0
54.155 154.0
54.17 162.0
54.185 150.0
54.2 153.0
54.215 153.0
54.23 171.0
54.245 163.0
54.26 167.0
54.275 165.0
54.29 145.0
54.305 178.0
54.32 173.0
54.335 172.0
54.35 153.0
54.365 165.0
54.38 163.0
54.395 166.0
54.41 159.0
54.425 155.0
54.44 173.0
54.455 153.0
54.47 160.0
54.485 157.0
54.5 132.0
54.515 150.0
54.53 167.0
54.545 160.0
54.56 153.0
54.575 158.0
54.59 184.0
54.605 147.0
54.62 141.0
54.635 139.0
54.65 159.0
54.665 168.0
54.68 166.0
54.695 148.0
54.71 153.0
54.725 153.0
54.74 136.0
54.755 152.0
54.77 158.0
54.785 166.0
54.8 158.0
54.815 133.0
54.83 149.0
54.845 159.0
54.86 152.0
54.875 168.0
54.89 156.0
54.905 154.0
54.92 143.0
54.935 149.0
54.95 152.0
54.965 166.0
54.98 162.0
54.995 155.0
55.01 168.0
55.025 149.0
55.04 152.0
55.055 151.0
55.07 158.0
55.085 168.0
55.1 159.0
55.115 169.0
55.13 166.0
55.145 164.0
55.16 162.0
55.175 159.0
55.19 134.0
55.205 140.0
55.22 157.0
55.235 172.0
55.25 159.0
55.265 149.0
55.28 149.0
55.295 138.0
55.31 148.0
55.325 147.0
55.34 166.0
55.355 157.0
55.37 150.0
55.385 163.0
55.4 158.0
55.415 152.0
55.43 147.0
55.445 157.0
55.46 167.0
55.475 147.0
55.49 141.0
55.505 140.0
55.52 129.0
55.535 148.0
55.55 135.0
55.565 151.0
55.58 158.0
55.595 156.0
55.61 166.0
55.625 154.0
55.64 149.0
55.655 144.0
55.67 154.0
55.685 153.0
55.7 153.0
55.715 143.0
55.73 147.0
55.745 168.0
55.76 142.0
55.775 148.0
55.79 149.0
55.805 156.0
55.82 149.0
55.835 131.0
55.85 152.0
55.865 151.0
55.88 151.0
55.895 147.0
55.91 149.0
55.925 142.0
55.94 129.0
55.955 153.0
55.97 165.0
55.985 135.0
56.0 148.0
56.015 145.0
56.03 162.0
56.045 154.0
56.06 145.0
56.075 159.0
56.09 162.0
56.105 158.0
56.12 152.0
56.135 155.0
56.15 143.0
56.165 157.0
56.18 147.0
56.195 156.0
56.21 153.0
56.225 138.0
56.24 152.0
56.255 164.0
56.27 152.0
56.285 154.0
56.3 153.0
56.315 155.0
56.33 159.0
56.345 167.0
56.36 154.0
56.375 138.0
56.39 158.0
56.405 163.0
56.42 154.0
56.435 143.0
56.45 130.0
56.465 153.0
56.48 163.0
56.495 135.0
56.51 138.0
56.525 146.0
56.54 147.0
56.555 141.0
56.57 165.0
56.585 157.0
56.6 161.0
56.615 156.0
56.63 149.0
56.645 160.0
56.66 159.0
56.675 142.0
56.69 143.0
56.705 155.0
56.72 149.0
56.735 153.0
56.75 153.0
56.765 151.0
56.78 150.0
56.795 152.0
56.81 149.0
56.825 166.0
56.84 147.0
56.855 125.0
56.87 152.0
56.885 149.0
56.9 138.0
56.915 155.0
56.93 162.0
56.945 140.0
56.96 139.0
56.975 156.0
56.99 153.0
57.005 138.0
57.02 135.0
57.035 149.0
57.05 140.0
57.065 146.0
57.08 144.0
57.095 167.0
57.11 162.0
57.125 152.0
57.14 135.0
57.155 156.0
57.17 156.0
57.185 153.0
57.2 156.0
57.215 158.0
57.23 139.0
57.245 140.0
57.26 144.0
57.275 160.0
57.29 148.0
57.305 153.0
57.32 159.0
57.335 158.0
57.35 149.0
57.365 138.0
57.38 156.0
57.395 144.0
57.41 162.0
57.425 164.0
57.44 172.0
57.455 148.0
57.47 153.0
57.485 155.0
57.5 141.0
57.515 145.0
57.53 146.0
57.545 148.0
57.56 149.0
57.575 148.0
57.59 164.0
57.605 142.0
57.62 130.0
57.635 130.0
57.65 134.0
57.665 149.0
57.68 137.0
57.695 151.0
57.71 138.0
57.725 155.0
57.74 161.0
57.755 153.0
57.77 137.0
57.785 148.0
57.8 147.0
57.815 166.0
57.83 172.0
57.845 137.0
57.86 147.0
57.875 155.0
57.89 147.0
57.905 151.0
57.92 135.0
57.935 145.0
57.95 127.0
57.965 147.0
57.98 157.0
57.995 140.0
58.01 155.0
58.025 135.0
58.04 136.0
58.055 156.0
58.07 143.0
58.085 132.0
58.1 149.0
58.115 146.0
58.13 145.0
58.145 138.0
58.16 142.0
58.175 145.0
58.19 131.0
58.205 162.0
58.22 147.0
58.235 132.0
58.25 138.0
58.265 141.0
58.28 127.0
58.295 148.0
58.31 136.0
58.325 157.0
58.34 161.0
58.355 140.0
58.37 140.0
58.385 145.0
58.4 139.0
58.415 144.0
58.43 161.0
58.445 155.0
58.46 155.0
58.475 146.0
58.49 127.0
58.505 140.0
58.52 154.0
58.535 156.0
58.55 140.0
58.565 140.0
58.58 136.0
58.595 142.0
58.61 147.0
58.625 149.0
58.64 146.0
58.655 148.0
58.67 159.0
58.685 135.0
58.7 141.0
58.715 141.0
58.73 155.0
58.745 147.0
58.76 144.0
58.775 159.0
58.79 157.0
58.805 130.0
58.82 152.0
58.835 144.0
58.85 141.0
58.865 153.0
58.88 153.0
58.895 144.0
58.91 128.0
58.925 148.0
58.94 150.0
58.955 133.0
58.97 148.0
58.985 150.0
59.0 140.0
59.015 137.0
59.03 147.0
59.045 130.0
59.06 148.0
59.075 156.0
59.09 143.0
59.105 132.0
59.12 145.0
59.135 153.0
59.15 143.0
59.165 137.0
59.18 147.0
59.195 156.0
59.21 149.0
59.225 152.0
59.24 143.0
59.255 155.0
59.27 145.0
59.285 145.0
59.3 137.0
59.315 149.0
59.33 153.0
59.345 151.0
59.36 158.0
59.375 161.0
59.39 148.0
59.405 141.0
59.42 143.0
59.435 138.0
59.45 174.0
59.465 152.0
59.48 155.0
59.495 146.0
59.51 131.0
59.525 158.0
59.54 139.0
59.555 145.0
59.57 129.0
59.585 140.0
59.6 149.0
59.615 157.0
59.63 147.0
59.645 150.0
59.66 146.0
59.675 157.0
59.69 150.0
59.705 139.0
59.72 160.0
59.735 144.0
59.75 123.0
59.765 156.0
59.78 169.0
59.795 150.0
59.81 148.0
59.825 159.0
59.84 146.0
59.855 146.0
59.87 140.0
59.885 135.0
59.9 146.0
59.915 145.0
59.93 140.0
59.945 140.0
59.96 134.0
59.975 148.0
59.99 141.0
60.005 147.0
60.02 142.0
60.035 144.0
60.05 153.0
60.065 145.0
60.08 147.0
60.095 142.0
60.11 142.0
60.125 127.0
60.14 143.0
60.155 140.0
60.17 155.0
60.185 141.0
60.2 142.0
60.215 137.0
60.23 153.0
60.245 138.0
60.26 134.0
60.275 134.0
60.29 147.0
60.305 137.0
60.32 143.0
60.335 145.0
60.35 160.0
60.365 134.0
60.38 141.0
60.395 142.0
60.41 143.0
60.425 138.0
60.44 137.0
60.455 123.0
60.47 122.0
60.485 146.0
60.5 140.0
60.515 156.0
60.53 154.0
60.545 144.0
60.56 131.0
60.575 130.0
60.59 158.0
60.605 166.0
60.62 169.0
60.635 132.0
60.65 152.0
60.665 142.0
60.68 144.0
60.695 145.0
60.71 137.0
60.725 129.0
60.74 124.0
60.755 129.0
60.77 144.0
60.785 125.0
60.8 128.0
60.815 122.0
60.83 148.0
60.845 165.0
60.86 145.0
60.875 140.0
60.89 147.0
60.905 160.0
60.92 135.0
60.935 133.0
60.95 143.0
60.965 136.0
60.98 125.0
60.995 115.0
61.01 135.0
61.025 150.0
61.04 140.0
61.055 147.0
61.07 143.0
61.085 150.0
61.1 163.0
61.115 145.0
61.13 152.0
61.145 146.0
61.16 137.0
61.175 150.0
61.19 160.0
61.205 141.0
61.22 134.0
61.235 133.0
61.25 148.0
61.265 140.0
61.28 131.0
61.295 151.0
61.31 139.0
61.325 132.0
61.34 137.0
61.355 138.0
61.37 146.0
61.385 155.0
61.4 135.0
61.415 137.0
61.43 155.0
61.445 146.0
61.46 138.0
61.475 129.0
61.49 138.0
61.505 131.0
61.52 154.0
61.535 161.0
61.55 132.0
61.565 141.0
61.58 138.0
61.595 138.0
61.61 146.0
61.625 151.0
61.64 136.0
61.655 137.0
61.67 154.0
61.685 140.0
61.7 131.0
61.715 135.0
61.73 140.0
61.745 142.0
61.76 135.0
61.775 140.0
61.79 127.0
61.805 123.0
61.82 144.0
61.835 142.0
61.85 144.0
61.865 146.0
61.88 152.0
61.895 147.0
61.91 154.0
61.925 145.0
61.94 127.0
61.955 138.0
61.97 158.0
61.985 138.0
