2.00000 6.000
2.01500 3.000
2.03000 6.000
2.04500 4.000
2.06000 1.000
2.07500 4.000
2.09000 4.000
2.10500 3.000
2.12000 4.000
2.13500 2.000
2.15000 6.000
2.16500 4.000
2.18000 7.000
2.19500 4.000
2.21000 6.000
2.22500 1.000
2.24000 2.000
2.25500 4.000
2.27000 3.000
2.28500 4.000
2.30000 4.000
2.31500 2.000
2.33000 3.000
2.34500 6.000
2.36000 4.000
2.37500 3.000
2.39000 3.000
2.40500 7.000
2.42000 4.000
2.43500 3.000
2.45000 0.000
2.46500 1.000
2.48000 3.000
2.49500 3.000
2.51000 3.000
2.52500 4.000
2.54000 4.000
2.55500 6.000
2.57000 5.000
2.58500 7.000
2.60000 6.000
2.61500 5.000
2.63000 4.000
2.64500 5.000
2.66000 6.000
2.67500 8.000
2.69000 8.000
2.70500 12.000
2.72000 17.000
2.73500 21.000
2.75000 23.000
2.76500 24.000
2.78000 39.000
2.79500 60.000
2.81000 76.000
2.82500 97.000
2.84000 129.000
2.85500 168.000
2.87000 183.000
2.88500 218.000
2.90000 236.000
2.91500 246.000
2.93000 241.000
2.94500 244.000
2.96000 266.000
2.97500 263.000
2.99000 271.000
3.00500 264.000
3.02000 264.000
3.03500 275.000
3.05000 263.000
3.06500 248.000
3.08000 259.000
3.09500 261.000
3.11000 270.000
3.12500 254.000
3.14000 275.000
3.15500 275.000
3.17000 248.000
3.18500 273.000
3.20000 255.000
3.21500 256.000
3.23000 279.000
3.24500 286.000
3.26000 270.000
3.27500 263.000
3.29000 267.000
3.30500 261.000
3.32000 286.000
3.33500 297.000
3.35000 291.000
3.36500 274.000
3.38000 278.000
3.39500 288.000
3.41000 280.000
3.42500 278.000
3.44000 305.000
3.45500 271.000
3.47000 298.000
3.48500 300.000
3.50000 290.000
3.51500 301.000
3.53000 300.000
3.54500 280.000
3.56000 303.000
3.57500 298.000
3.59000 299.000
3.60500 283.000
3.62000 276.000
3.63500 297.000
3.65000 325.000
3.66500 298.000
3.68000 319.000
3.69500 320.000
3.71000 307.000
3.72500 308.000
3.74000 316.000
3.75500 325.000
3.77000 297.000
3.78500 298.000
3.80000 286.000
3.81500 302.000
3.83000 293.000
3.84500 301.000
3.86000 299.000
3.87500 300.000
3.89000 289.000
3.90500 305.000
3.92000 322.000
3.93500 323.000
3.95000 311.000
3.96500 331.000
3.98000 335.000
3.99500 313.000
4.01000 318.000
4.02500 324.000
4.04000 360.000
4.05500 323.000
4.07000 324.000
4.08500 346.000
4.10000 322.000
4.11500 340.000
4.13000 358.000
4.14500 340.000
4.16000 361.000
4.17500 345.000
4.19000 355.000
4.20500 342.000
4.22000 344.000
4.23500 344.000
4.25000 328.000
4.26500 319.000
4.28000 320.000
4.29500 354.000
4.31000 355.000
4.32500 336.000
4.34000 351.000
4.35500 344.000
4.37000 348.000
4.38500 362.000
4.40000 354.000
4.41500 350.000
4.43000 340.000
4.44500 346.000
4.46000 363.000
4.47500 365.000
4.49000 338.000
4.50500 361.000
4.52000 359.000
4.53500 385.000
4.55000 380.000
4.56500 333.000
4.58000 357.000
4.59500 361.000
4.61000 363.000
4.62500 342.000
4.64000 354.000
4.65500 367.000
4.67000 378.000
4.68500 397.000
4.70000 431.000
4.71500 377.000
4.73000 341.000
4.74500 383.000
4.76000 349.000
4.77500 370.000
4.79000 352.000
4.80500 365.000
4.82000 365.000
4.83500 355.000
4.85000 356.000
4.86500 361.000
4.88000 370.000
4.89500 386.000
4.91000 392.000
4.92500 380.000
4.94000 362.000
4.95500 392.000
4.97000 379.000
4.98500 403.000
5.00000 375.000
5.01500 336.000
5.03000 383.000
5.04500 387.000
5.06000 379.000
5.07500 385.000
5.09000 369.000
5.10500 376.000
5.12000 399.000
5.13500 394.000
5.15000 394.000
5.16500 377.000
5.18000 395.000
5.19500 385.000
5.21000 415.000
5.22500 402.000
5.24000 414.000
5.25500 384.000
5.27000 388.000
5.28500 415.000
5.30000 387.000
5.31500 413.000
5.33000 399.000
5.34500 399.000
5.36000 406.000
5.37500 397.000
5.39000 377.000
5.40500 423.000
5.42000 430.000
5.43500 407.000
5.45000 409.000
5.46500 423.000
5.48000 406.000
5.49500 410.000
5.51000 397.000
5.52500 399.000
5.54000 416.000
5.55500 403.000
5.57000 424.000
5.58500 401.000
5.60000 369.000
5.61500 400.000
5.63000 385.000
5.64500 398.000
5.66000 389.000
5.67500 374.000
5.69000 398.000
5.70500 398.000
5.72000 391.000
5.73500 412.000
5.75000 408.000
5.76500 428.000
5.78000 436.000
5.79500 440.000
5.81000 439.000
5.82500 392.000
5.84000 446.000
5.85500 429.000
5.87000 394.000
5.88500 417.000
5.90000 417.000
5.91500 393.000
5.93000 403.000
5.94500 409.000
5.96000 412.000
5.97500 409.000
5.99000 424.000
6.00500 389.000
6.02000 412.000
6.03500 413.000
6.05000 455.000
6.06500 427.000
6.08000 415.000
6.09500 404.000
6.11000 418.000
6.12500 410.000
6.14000 408.000
6.15500 408.000
6.17000 417.000
6.18500 438.000
6.20000 420.000
6.21500 420.000
6.23000 443.000
6.24500 440.000
6.26000 404.000
6.27500 433.000
6.29000 413.000
6.30500 462.000
6.32000 417.000
6.33500 426.000
6.35000 397.000
6.36500 427.000
6.38000 464.000
6.39500 439.000
6.41000 421.000
6.42500 421.000
6.44000 430.000
6.45500 450.000
6.47000 431.000
6.48500 397.000
6.50000 405.000
6.51500 418.000
6.53000 446.000
6.54500 447.000
6.56000 434.000
6.57500 446.000
6.59000 477.000
6.60500 455.000
6.62000 460.000
6.63500 426.000
6.65000 424.000
6.66500 460.000
6.68000 445.000
6.69500 451.000
6.71000 463.000
6.72500 448.000
6.74000 448.000
6.75500 469.000
6.77000 472.000
6.78500 465.000
6.80000 426.000
6.81500 438.000
6.83000 443.000
6.84500 439.000
6.86000 460.000
6.87500 432.000
6.89000 453.000
6.90500 436.000
6.92000 476.000
6.93500 495.000
6.95000 461.000
6.96500 470.000
6.98000 463.000
6.99500 461.000
7.01000 453.000
7.02500 453.000
7.04000 452.000
7.05500 482.000
7.07000 467.000
7.08500 457.000
7.10000 467.000
7.11500 472.000
7.13000 475.000
7.14500 468.000
7.16000 447.000
7.17500 437.000
7.19000 486.000
7.20500 490.000
7.22000 452.000
7.23500 463.000
7.25000 483.000
7.26500 485.000
7.28000 498.000
7.29500 461.000
7.31000 513.000
7.32500 502.000
7.34000 486.000
7.35500 491.000
7.37000 474.000
7.38500 495.000
7.40000 463.000
7.41500 458.000
7.43000 454.000
7.44500 450.000
7.46000 457.000
7.47500 454.000
7.49000 483.000
7.50500 481.000
7.52000 472.000
7.53500 518.000
7.55000 476.000
7.56500 542.000
7.58000 544.000
7.59500 535.000
7.61000 542.000
7.62500 549.000
7.64000 562.000
7.65500 561.000
7.67000 572.000
7.68500 603.000
7.70000 611.000
7.71500 650.000
7.73000 685.000
7.74500 718.000
7.76000 748.000
7.77500 777.000
7.79000 798.000
7.80500 837.000
7.82000 915.000
7.83500 933.000
7.85000 994.000
7.86500 1140.000
7.88000 1203.000
7.89500 1362.000
7.91000 1414.000
7.92500 1619.000
7.94000 1781.000
7.95500 1959.000
7.97000 1978.000
7.98500 1808.000
8.00000 1502.000
8.01500 1187.000
8.03000 1040.000
8.04500 894.000
8.06000 860.000
8.07500 805.000
8.09000 803.000
8.10500 684.000
8.12000 728.000
8.13500 687.000
8.15000 665.000
8.16500 655.000
8.18000 662.000
8.19500 646.000
8.21000 641.000
8.22500 631.000
8.24000 619.000
8.25500 611.000
8.27000 574.000
8.28500 545.000
8.30000 570.000
8.31500 562.000
8.33000 564.000
8.34500 565.000
8.36000 551.000
8.37500 527.000
8.39000 543.000
8.40500 539.000
8.42000 553.000
8.43500 561.000
8.45000 546.000
8.46500 529.000
8.48000 533.000
8.49500 580.000
8.51000 548.000
8.52500 569.000
8.54000 563.000
8.55500 521.000
8.57000 547.000
8.58500 560.000
8.60000 531.000
8.61500 497.000
8.63000 549.000
8.64500 568.000
8.66000 538.000
8.67500 549.000
8.69000 518.000
8.70500 488.000
8.72000 491.000
8.73500 523.000
8.75000 535.000
8.76500 552.000
8.78000 510.000
8.79500 528.000
8.81000 518.000
8.82500 518.000
8.84000 543.000
8.85500 539.000
8.87000 566.000
8.88500 554.000
8.90000 561.000
8.91500 551.000
8.93000 558.000
8.94500 523.000
8.96000 520.000
8.97500 525.000
8.99000 545.000
9.00500 536.000
9.02000 541.000
9.03500 574.000
9.05000 555.000
9.06500 519.000
9.08000 533.000
9.09500 534.000
9.11000 530.000
9.12500 514.000
9.14000 523.000
9.15500 536.000
9.17000 543.000
9.18500 550.000
9.20000 555.000
9.21500 548.000
9.23000 514.000
9.24500 553.000
9.26000 546.000
9.27500 543.000
9.29000 541.000
9.30500 537.000
9.32000 556.000
9.33500 553.000
9.35000 531.000
9.36500 544.000
9.38000 538.000
9.39500 543.000
9.41000 581.000
9.42500 532.000
9.44000 549.000
9.45500 538.000
9.47000 543.000
9.48500 555.000
9.50000 548.000
9.51500 569.000
9.53000 557.000
9.54500 587.000
9.56000 570.000
9.57500 593.000
9.59000 574.000
9.60500 554.000
9.62000 547.000
9.63500 580.000
9.65000 587.000
9.66500 599.000
9.68000 574.000
9.69500 576.000
9.71000 592.000
9.72500 597.000
9.74000 588.000
9.75500 628.000
9.77000 614.000
9.78500 653.000
9.80000 637.000
9.81500 670.000
9.83000 639.000
9.84500 650.000
9.86000 656.000
9.87500 674.000
9.89000 719.000
9.90500 754.000
9.92000 767.000
9.93500 762.000
9.95000 748.000
9.96500 774.000
9.98000 835.000
9.99500 840.000
10.01000 905.000
10.02500 907.000
10.04000 956.000
10.05500 958.000
10.07000 948.000
10.08500 1026.000
10.10000 990.000
10.11500 966.000
10.13000 922.000
10.14500 927.000
10.16000 882.000
10.17500 822.000
10.19000 834.000
10.20500 776.000
10.22000 706.000
10.23500 729.000
10.25000 718.000
10.26500 654.000
10.28000 660.000
10.29500 642.000
10.31000 609.000
10.32500 596.000
10.34000 622.000
10.35500 604.000
10.37000 592.000
10.38500 604.000
10.40000 575.000
10.41500 579.000
10.43000 550.000
10.44500 538.000
10.46000 567.000
10.47500 580.000
10.49000 545.000
10.50500 540.000
10.52000 518.000
10.53500 548.000
10.55000 545.000
10.56500 575.000
10.58000 556.000
10.59500 546.000
10.61000 518.000
10.62500 525.000
10.64000 534.000
10.65500 544.000
10.67000 530.000
10.68500 542.000
10.70000 541.000
10.71500 545.000
10.73000 533.000
10.74500 514.000
10.76000 505.000
10.77500 529.000
10.79000 513.000
10.80500 549.000
10.82000 543.000
10.83500 534.000
10.85000 539.000
10.86500 502.000
10.88000 493.000
10.89500 526.000
10.91000 502.000
10.92500 522.000
10.94000 543.000
10.95500 550.000
10.97000 568.000
10.98500 570.000
11.00000 528.000
11.01500 531.000
11.03000 527.000
11.04500 517.000
11.06000 530.000
11.07500 506.000
11.09000 516.000
11.10500 549.000
11.12000 532.000
11.13500 538.000
11.15000 541.000
11.16500 512.000
11.18000 510.000
11.19500 503.000
11.21000 518.000
11.22500 531.000
11.24000 505.000
11.25500 498.000
11.27000 527.000
11.28500 567.000
11.30000 551.000
11.31500 514.000
11.33000 474.000
11.34500 506.000
11.36000 535.000
11.37500 500.000
11.39000 513.000
11.40500 515.000
11.42000 510.000
11.43500 499.000
11.45000 514.000
11.46500 504.000
11.48000 480.000
11.49500 525.000
11.51000 529.000
11.52500 510.000
11.54000 529.000
11.55500 534.000
11.57000 531.000
11.58500 515.000
11.60000 513.000
11.61500 514.000
11.63000 503.000
11.64500 510.000
11.66000 506.000
11.67500 517.000
11.69000 508.000
11.70500 545.000
11.72000 523.000
11.73500 524.000
11.75000 519.000
11.76500 475.000
11.78000 489.000
11.79500 514.000
11.81000 526.000
11.82500 529.000
11.84000 530.000
11.85500 507.000
11.87000 496.000
11.88500 520.000
11.90000 504.000
11.91500 507.000
11.93000 513.000
11.94500 505.000
11.96000 490.000
11.97500 483.000
11.99000 480.000
12.00500 520.000
12.02000 519.000
12.03500 494.000
12.05000 498.000
12.06500 503.000
12.08000 498.000
12.09500 497.000
12.11000 519.000
12.12500 512.000
12.14000 498.000
12.15500 506.000
12.17000 532.000
12.18500 494.000
12.20000 481.000
12.21500 461.000
12.23000 490.000
12.24500 504.000
12.26000 482.000
12.27500 493.000
12.29000 475.000
12.30500 511.000
12.32000 482.000
12.33500 517.000
12.35000 470.000
12.36500 494.000
12.38000 487.000
12.39500 505.000
12.41000 484.000
12.42500 486.000
12.44000 501.000
12.45500 512.000
12.47000 500.000
12.48500 507.000
12.50000 489.000
12.51500 518.000
12.53000 506.000
12.54500 517.000
12.56000 498.000
12.57500 486.000
12.59000 506.000
12.60500 485.000
12.62000 487.000
12.63500 515.000
12.65000 511.000
12.66500 515.000
12.68000 501.000
12.69500 511.000
12.71000 487.000
12.72500 523.000
12.74000 510.000
12.75500 493.000
12.77000 488.000
12.78500 532.000
12.80000 525.000
12.81500 475.000
12.83000 489.000
12.84500 477.000
12.86000 491.000
12.87500 491.000
12.89000 490.000
12.90500 492.000
12.92000 509.000
12.93500 505.000
12.95000 531.000
12.96500 488.000
12.98000 506.000
12.99500 479.000
13.01000 480.000
13.02500 478.000
13.04000 474.000
13.05500 499.000
13.07000 496.000
13.08500 508.000
13.10000 496.000
13.11500 497.000
13.13000 485.000
13.14500 465.000
13.16000 478.000
13.17500 481.000
13.19000 503.000
13.20500 490.000
13.22000 489.000
13.23500 497.000
13.25000 474.000
13.26500 477.000
13.28000 491.000
13.29500 479.000
13.31000 518.000
13.32500 492.000
13.34000 513.000
13.35500 494.000
13.37000 509.000
13.38500 480.000
13.40000 494.000
13.41500 488.000
13.43000 501.000
13.44500 505.000
13.46000 460.000
13.47500 495.000
13.49000 497.000
13.50500 507.000
13.52000 494.000
13.53500 503.000
13.55000 485.000
13.56500 497.000
13.58000 487.000
13.59500 475.000
13.61000 483.000
13.62500 483.000
13.64000 476.000
13.65500 474.000
13.67000 510.000
13.68500 488.000
13.70000 493.000
13.71500 446.000
13.73000 474.000
13.74500 501.000
13.76000 514.000
13.77500 491.000
13.79000 478.000
13.80500 479.000
13.82000 492.000
13.83500 518.000
13.85000 514.000
13.86500 496.000
13.88000 467.000
13.89500 496.000
13.91000 460.000
13.92500 475.000
13.94000 500.000
13.95500 516.000
13.97000 529.000
13.98500 509.000
14.00000 504.000
14.01500 527.000
14.03000 496.000
14.04500 477.000
14.06000 475.000
14.07500 494.000
14.09000 498.000
14.10500 462.000
14.12000 476.000
14.13500 510.000
14.15000 505.000
14.16500 468.000
14.18000 477.000
14.19500 496.000
14.21000 506.000
14.22500 507.000
14.24000 513.000
14.25500 474.000
14.27000 494.000
14.28500 478.000
14.30000 496.000
14.31500 506.000
14.33000 477.000
14.34500 451.000
14.36000 500.000
14.37500 495.000
14.39000 478.000
14.40500 479.000
14.42000 481.000
14.43500 493.000
14.45000 481.000
14.46500 490.000
14.48000 499.000
14.49500 481.000
14.51000 478.000
14.52500 510.000
14.54000 523.000
14.55500 494.000
14.57000 517.000
14.58500 521.000
14.60000 516.000
14.61500 473.000
14.63000 498.000
14.64500 524.000
14.66000 509.000
14.67500 494.000
14.69000 496.000
14.70500 491.000
14.72000 495.000
14.73500 534.000
14.75000 487.000
14.76500 517.000
14.78000 506.000
14.79500 493.000
14.81000 499.000
14.82500 466.000
14.84000 501.000
14.85500 512.000
14.87000 506.000
14.88500 502.000
14.90000 505.000
14.91500 497.000
14.93000 518.000
14.94500 517.000
14.96000 528.000
14.97500 532.000
14.99000 534.000
15.00500 579.000
15.02000 560.000
15.03500 558.000
15.05000 552.000
15.06500 560.000
15.08000 586.000
15.09500 604.000
15.11000 636.000
15.12500 608.000
15.14000 583.000
15.15500 607.000
15.17000 614.000
15.18500 604.000
15.20000 580.000
15.21500 590.000
15.23000 585.000
15.24500 558.000
15.26000 548.000
15.27500 585.000
15.29000 587.000
15.30500 542.000
15.32000 569.000
15.33500 545.000
15.35000 538.000
15.36500 558.000
15.38000 522.000
15.39500 519.000
15.41000 547.000
15.42500 523.000
15.44000 512.000
15.45500 476.000
15.47000 534.000
15.48500 525.000
15.50000 508.000
15.51500 501.000
15.53000 479.000
15.54500 488.000
15.56000 494.000
15.57500 503.000
15.59000 495.000
15.60500 502.000
15.62000 498.000
15.63500 483.000
15.65000 508.000
15.66500 490.000
15.68000 499.000
15.69500 474.000
15.71000 508.000
15.72500 522.000
15.74000 502.000
15.75500 461.000
15.77000 494.000
15.78500 509.000
15.80000 483.000
15.81500 481.000
15.83000 499.000
15.84500 486.000
15.86000 474.000
15.87500 486.000
15.89000 501.000
15.90500 546.000
15.92000 512.000
15.93500 537.000
15.95000 517.000
15.96500 505.000
15.98000 526.000
15.99500 505.000
16.01000 510.000
16.02500 463.000
16.04000 492.000
16.05500 491.000
16.07000 454.000
16.08500 488.000
16.10000 491.000
16.11500 477.000
16.13000 484.000
16.14500 481.000
16.16000 477.000
16.17500 472.000
16.19000 474.000
16.20500 495.000
16.22000 485.000
16.23500 474.000
16.25000 500.000
16.26500 493.000
16.28000 496.000
16.29500 507.000
16.31000 475.000
16.32500 473.000
16.34000 477.000
16.35500 472.000
16.37000 454.000
16.38500 451.000
16.40000 469.000
16.41500 491.000
16.43000 486.000
16.44500 467.000
16.46000 491.000
16.47500 482.000
16.49000 504.000
16.50500 503.000
16.52000 462.000
16.53500 479.000
16.55000 517.000
16.56500 482.000
16.58000 521.000
16.59500 494.000
16.61000 472.000
16.62500 476.000
16.64000 471.000
16.65500 461.000
16.67000 478.000
16.68500 448.000
16.70000 462.000
16.71500 483.000
16.73000 484.000
16.74500 499.000
16.76000 485.000
16.77500 499.000
16.79000 480.000
16.80500 500.000
16.82000 502.000
16.83500 506.000
16.85000 509.000
16.86500 461.000
16.88000 449.000
16.89500 477.000
16.91000 477.000
16.92500 481.000
16.94000 481.000
16.95500 484.000
16.97000 480.000
16.98500 479.000
17.00000 474.000
17.01500 515.000
17.03000 498.000
17.04500 529.000
17.06000 501.000
17.07500 503.000
17.09000 499.000
17.10500 462.000
17.12000 486.000
17.13500 496.000
17.15000 501.000
17.16500 483.000
17.18000 486.000
17.19500 486.000
17.21000 501.000
17.22500 472.000
17.24000 458.000
17.25500 498.000
17.27000 508.000
17.28500 497.000
17.30000 508.000
17.31500 485.000
17.33000 491.000
17.34500 486.000
17.36000 489.000
17.37500 512.000
17.39000 495.000
17.40500 524.000
17.42000 488.000
17.43500 502.000
17.45000 477.000
17.46500 467.000
17.48000 494.000
17.49500 479.000
17.51000 539.000
17.52500 536.000
17.54000 506.000
17.55500 512.000
17.57000 502.000
17.58500 535.000
17.60000 502.000
17.61500 503.000
17.63000 528.000
17.64500 509.000
17.66000 545.000
17.67500 518.000
17.69000 511.000
17.70500 524.000
17.72000 499.000
17.73500 476.000
17.75000 500.000
17.76500 520.000
17.78000 509.000
17.79500 537.000
17.81000 522.000
17.82500 516.000
17.84000 512.000
17.85500 516.000
17.87000 494.000
17.88500 483.000
17.90000 463.000
17.91500 493.000
17.93000 492.000
17.94500 495.000
17.96000 518.000
17.97500 497.000
17.99000 514.000
18.00500 499.000
18.02000 476.000
18.03500 485.000
18.05000 484.000
18.06500 504.000
18.08000 506.000
18.09500 510.000
18.11000 493.000
18.12500 510.000
18.14000 529.000
18.15500 478.000
18.17000 524.000
18.18500 515.000
18.20000 533.000
18.21500 502.000
18.23000 527.000
18.24500 533.000
18.26000 477.000
18.27500 489.000
18.29000 494.000
18.30500 517.000
18.32000 514.000
18.33500 513.000
18.35000 517.000
18.36500 548.000
18.38000 573.000
18.39500 595.000
18.41000 576.000
18.42500 600.000
18.44000 609.000
18.45500 594.000
18.47000 582.000
18.48500 602.000
18.50000 571.000
18.51500 613.000
18.53000 578.000
18.54500 610.000
18.56000 661.000
18.57500 696.000
18.59000 647.000
18.60500 662.000
18.62000 681.000
18.63500 701.000
18.65000 732.000
18.66500 686.000
18.68000 669.000
18.69500 681.000
18.71000 657.000
18.72500 675.000
18.74000 638.000
18.75500 642.000
18.77000 650.000
18.78500 644.000
18.80000 580.000
18.81500 602.000
18.83000 548.000
18.84500 566.000
18.86000 542.000
18.87500 545.000
18.89000 537.000
18.90500 524.000
18.92000 531.000
18.93500 557.000
18.95000 530.000
18.96500 525.000
18.98000 560.000
18.99500 557.000
19.01000 541.000
19.02500 545.000
19.04000 529.000
19.05500 533.000
19.07000 525.000
19.08500 527.000
19.10000 542.000
19.11500 542.000
19.13000 537.000
19.14500 533.000
19.16000 520.000
19.17500 537.000
19.19000 549.000
19.20500 536.000
19.22000 543.000
19.23500 521.000
19.25000 505.000
19.26500 540.000
19.28000 507.000
19.29500 527.000
19.31000 496.000
19.32500 494.000
19.34000 498.000
19.35500 487.000
19.37000 498.000
19.38500 507.000
19.40000 485.000
19.41500 494.000
19.43000 503.000
19.44500 529.000
19.46000 552.000
19.47500 524.000
19.49000 528.000
19.50500 517.000
19.52000 538.000
19.53500 515.000
19.55000 519.000
19.56500 502.000
19.58000 506.000
19.59500 511.000
19.61000 515.000
19.62500 504.000
19.64000 530.000
19.65500 532.000
19.67000 514.000
19.68500 512.000
19.70000 517.000
19.71500 554.000
19.73000 559.000
19.74500 530.000
19.76000 488.000
19.77500 514.000
19.79000 524.000
19.80500 528.000
19.82000 526.000
19.83500 519.000
19.85000 519.000
19.86500 499.000
19.88000 510.000
19.89500 538.000
19.91000 531.000
19.92500 545.000
19.94000 546.000
19.95500 556.000
19.97000 549.000
19.98500 518.000
20.00000 506.000
20.01500 555.000
20.03000 541.000
20.04500 557.000
20.06000 535.000
20.07500 523.000
20.09000 530.000
20.10500 525.000
20.12000 578.000
20.13500 516.000
20.15000 521.000
20.16500 501.000
20.18000 526.000
20.19500 531.000
20.21000 540.000
20.22500 497.000
20.24000 522.000
20.25500 531.000
20.27000 530.000
20.28500 555.000
20.30000 533.000
20.31500 530.000
20.33000 555.000
20.34500 574.000
20.36000 540.000
20.37500 557.000
20.39000 563.000
20.40500 547.000
20.42000 533.000
20.43500 527.000
20.45000 503.000
20.46500 514.000
20.48000 555.000
20.49500 540.000
20.51000 558.000
20.52500 551.000
20.54000 528.000
20.55500 570.000
20.57000 546.000
20.58500 526.000
20.60000 560.000
20.61500 524.000
20.63000 528.000
20.64500 535.000
20.66000 525.000
20.67500 514.000
20.69000 545.000
20.70500 545.000
20.72000 547.000
20.73500 544.000
20.75000 539.000
20.76500 539.000
20.78000 544.000
20.79500 552.000
20.81000 520.000
20.82500 564.000
20.84000 587.000
20.85500 515.000
20.87000 547.000
20.88500 571.000
20.90000 583.000
20.91500 565.000
20.93000 540.000
20.94500 546.000
20.96000 541.000
20.97500 537.000
20.99000 571.000
21.00500 550.000
21.02000 554.000
21.03500 577.000
21.05000 563.000
21.06500 579.000
21.08000 555.000
21.09500 607.000
21.11000 554.000
21.12500 555.000
21.14000 553.000
21.15500 554.000
21.17000 534.000
21.18500 552.000
21.20000 567.000
21.21500 593.000
21.23000 570.000
21.24500 551.000
21.26000 534.000
21.27500 570.000
21.29000 606.000
21.30500 614.000
21.32000 631.000
21.33500 579.000
21.35000 582.000
21.36500 583.000
21.38000 556.000
21.39500 569.000
21.41000 557.000
21.42500 557.000
21.44000 561.000
21.45500 566.000
21.47000 540.000
21.48500 606.000
21.50000 564.000
21.51500 570.000
21.53000 547.000
21.54500 592.000
21.56000 598.000
21.57500 590.000
21.59000 596.000
21.60500 581.000
21.62000 581.000
21.63500 569.000
21.65000 632.000
21.66500 604.000
21.68000 587.000
21.69500 586.000
21.71000 610.000
21.72500 609.000
21.74000 629.000
21.75500 611.000
21.77000 576.000
21.78500 575.000
21.80000 630.000
21.81500 668.000
21.83000 642.000
21.84500 643.000
21.86000 662.000
21.87500 634.000
21.89000 666.000
21.90500 694.000
21.92000 723.000
21.93500 696.000
21.95000 691.000
21.96500 680.000
21.98000 673.000
21.99500 721.000
22.01000 724.000
22.02500 739.000
22.04000 759.000
22.05500 744.000
22.07000 712.000
22.08500 737.000
22.10000 746.000
22.11500 746.000
22.13000 795.000
22.14500 773.000
22.16000 713.000
22.17500 710.000
22.19000 691.000
22.20500 697.000
22.22000 676.000
22.23500 699.000
22.25000 691.000
22.26500 665.000
22.28000 695.000
22.29500 689.000
22.31000 679.000
22.32500 700.000
22.34000 676.000
22.35500 670.000
22.37000 671.000
22.38500 643.000
22.40000 640.000
22.41500 633.000
22.43000 644.000
22.44500 635.000
22.46000 621.000
22.47500 638.000
22.49000 647.000
22.50500 610.000
22.52000 653.000
22.53500 656.000
22.55000 678.000
22.56500 703.000
22.58000 672.000
22.59500 719.000
22.61000 633.000
22.62500 669.000
22.64000 665.000
22.65500 694.000
22.67000 731.000
22.68500 690.000
22.70000 732.000
22.71500 720.000
22.73000 723.000
22.74500 685.000
22.76000 757.000
22.77500 787.000
22.79000 764.000
22.80500 795.000
22.82000 849.000
22.83500 830.000
22.85000 795.000
22.86500 826.000
22.88000 859.000
22.89500 860.000
22.91000 879.000
22.92500 871.000
22.94000 834.000
22.95500 871.000
22.97000 874.000
22.98500 898.000
23.00000 853.000
23.01500 821.000
23.03000 856.000
23.04500 878.000
23.06000 877.000
23.07500 816.000
23.09000 848.000
23.10500 816.000
23.12000 806.000
23.13500 795.000
23.15000 753.000
23.16500 756.000
23.18000 764.000
23.19500 755.000
23.21000 729.000
23.22500 730.000
23.24000 707.000
23.25500 744.000
23.27000 725.000
23.28500 691.000
23.30000 714.000
23.31500 714.000
23.33000 701.000
23.34500 713.000
23.36000 696.000
23.37500 676.000
23.39000 673.000
23.40500 666.000
23.42000 654.000
23.43500 655.000
23.45000 713.000
23.46500 694.000
23.48000 735.000
23.49500 696.000
23.51000 644.000
23.52500 647.000
23.54000 657.000
23.55500 685.000
23.57000 656.000
23.58500 659.000
23.60000 670.000
23.61500 649.000
23.63000 627.000
23.64500 610.000
23.66000 632.000
23.67500 693.000
23.69000 678.000
23.70500 641.000
23.72000 644.000
23.73500 657.000
23.75000 645.000
23.76500 664.000
23.78000 682.000
23.79500 683.000
23.81000 671.000
23.82500 665.000
23.84000 671.000
23.85500 631.000
23.87000 645.000
23.88500 673.000
23.90000 638.000
23.91500 665.000
23.93000 697.000
23.94500 659.000
23.96000 701.000
23.97500 681.000
23.99000 693.000
24.00500 710.000
24.02000 673.000
24.03500 710.000
24.05000 728.000
24.06500 714.000
24.08000 715.000
24.09500 716.000
24.11000 688.000
24.12500 670.000
24.14000 657.000
24.15500 686.000
24.17000 672.000
24.18500 696.000
24.20000 671.000
24.21500 696.000
24.23000 722.000
24.24500 742.000
24.26000 710.000
24.27500 693.000
24.29000 712.000
24.30500 737.000
24.32000 732.000
24.33500 744.000
24.35000 741.000
24.36500 775.000
24.38000 765.000
24.39500 709.000
24.41000 752.000
24.42500 735.000
24.44000 742.000
24.45500 747.000
24.47000 826.000
24.48500 766.000
24.50000 772.000
24.51500 700.000
24.53000 765.000
24.54500 783.000
24.56000 837.000
24.57500 754.000
24.59000 761.000
24.60500 782.000
24.62000 826.000
24.63500 836.000
24.65000 808.000
24.66500 806.000
24.68000 779.000
24.69500 803.000
24.71000 801.000
24.72500 792.000
24.74000 777.000
24.75500 812.000
24.77000 769.000
24.78500 760.000
24.80000 762.000
24.81500 734.000
24.83000 757.000
24.84500 764.000
24.86000 735.000
24.87500 758.000
24.89000 775.000
24.90500 780.000
24.92000 736.000
24.93500 778.000
24.95000 800.000
24.96500 793.000
24.98000 768.000
24.99500 778.000
25.01000 768.000
25.02500 776.000
25.04000 729.000
25.05500 722.000
25.07000 749.000
25.08500 754.000
25.10000 738.000
25.11500 784.000
25.13000 770.000
25.14500 740.000
25.16000 716.000
25.17500 753.000
25.19000 759.000
25.20500 739.000
25.22000 786.000
25.23500 800.000
25.25000 753.000
25.26500 761.000
25.28000 758.000
25.29500 808.000
25.31000 807.000
25.32500 824.000
25.34000 818.000
25.35500 829.000
25.37000 773.000
25.38500 766.000
25.40000 799.000
25.41500 823.000
25.43000 854.000
25.44500 887.000
25.46000 877.000
25.47500 857.000
25.49000 859.000
25.50500 879.000
25.52000 878.000
25.53500 881.000
25.55000 888.000
25.56500 928.000
25.58000 879.000
25.59500 916.000
25.61000 861.000
25.62500 902.000
25.64000 874.000
25.65500 852.000
25.67000 890.000
25.68500 868.000
25.70000 902.000
25.71500 887.000
25.73000 881.000
25.74500 865.000
25.76000 868.000
25.77500 849.000
25.79000 845.000
25.80500 854.000
25.82000 954.000
25.83500 892.000
25.85000 854.000
25.86500 827.000
25.88000 856.000
25.89500 840.000
25.91000 822.000
25.92500 815.000
25.94000 819.000
25.95500 821.000
25.97000 862.000
25.98500 858.000
26.00000 832.000
26.01500 836.000
26.03000 801.000
26.04500 821.000
26.06000 852.000
26.07500 827.000
26.09000 849.000
26.10500 832.000
26.12000 845.000
26.13500 834.000
26.15000 877.000
26.16500 808.000
26.18000 835.000
26.19500 823.000
26.21000 798.000
26.22500 858.000
26.24000 826.000
26.25500 837.000
26.27000 813.000
26.28500 832.000
26.30000 851.000
26.31500 904.000
26.33000 871.000
26.34500 843.000
26.36000 855.000
26.37500 859.000
26.39000 835.000
26.40500 881.000
26.42000 856.000
26.43500 834.000
26.45000 839.000
26.46500 878.000
26.48000 849.000
26.49500 866.000
26.51000 901.000
26.52500 904.000
26.54000 873.000
26.55500 915.000
26.57000 879.000
26.58500 901.000
26.60000 880.000
26.61500 851.000
26.63000 845.000
26.64500 914.000
26.66000 932.000
26.67500 873.000
26.69000 848.000
26.70500 895.000
26.72000 921.000
26.73500 948.000
26.75000 933.000
26.76500 951.000
26.78000 924.000
26.79500 954.000
26.81000 939.000
26.82500 946.000
26.84000 919.000
26.85500 951.000
26.87000 906.000
26.88500 935.000
26.90000 960.000
26.91500 955.000
26.93000 950.000
26.94500 969.000
26.96000 965.000
26.97500 991.000
26.99000 990.000
27.00500 982.000
27.02000 942.000
27.03500 971.000
27.05000 981.000
27.06500 964.000
27.08000 1020.000
27.09500 1007.000
27.11000 1030.000
27.12500 1033.000
27.14000 1077.000
27.15500 1030.000
27.17000 1030.000
27.18500 1059.000
27.20000 1042.000
27.21500 1086.000
27.23000 1082.000
27.24500 1073.000
27.26000 1104.000
27.27500 1114.000
27.29000 1188.000
27.30500 1154.000
27.32000 1193.000
27.33500 1157.000
27.35000 1223.000
27.36500 1216.000
27.38000 1228.000
27.39500 1271.000
27.41000 1321.000
27.42500 1372.000
27.44000 1330.000
27.45500 1403.000
27.47000 1424.000
27.48500 1532.000
27.50000 1527.000
27.51500 1712.000
27.53000 1747.000
27.54500 1811.000
27.56000 2005.000
27.57500 2106.000
27.59000 2268.000
27.60500 2457.000
27.62000 2604.000
27.63500 2751.000
27.65000 3019.000
27.66500 3175.000
27.68000 3362.000
27.69500 3534.000
27.71000 3589.000
27.72500 3759.000
27.74000 3826.000
27.75500 3803.000
27.77000 3785.000
27.78500 3689.000
27.80000 3684.000
27.81500 3437.000
27.83000 3259.000
27.84500 3254.000
27.86000 3090.000
27.87500 3025.000
27.89000 3036.000
27.90500 2939.000
27.92000 2896.000
27.93500 2840.000
27.95000 2736.000
27.96500 2705.000
27.98000 2725.000
27.99500 2706.000
28.01000 2644.000
28.02500 2511.000
28.04000 2453.000
28.05500 2404.000
28.07000 2319.000
28.08500 2301.000
28.10000 2225.000
28.11500 2141.000
28.13000 2101.000
28.14500 2107.000
28.16000 2009.000
28.17500 1957.000
28.19000 1985.000
28.20500 1881.000
28.22000 1841.000
28.23500 1867.000
28.25000 1783.000
28.26500 1727.000
28.28000 1666.000
28.29500 1606.000
28.31000 1603.000
28.32500 1566.000
28.34000 1520.000
28.35500 1485.000
28.37000 1444.000
28.38500 1498.000
28.40000 1444.000
28.41500 1391.000
28.43000 1382.000
28.44500 1314.000
28.46000 1283.000
28.47500 1270.000
28.49000 1299.000
28.50500 1187.000
28.52000 1223.000
28.53500 1218.000
28.55000 1177.000
28.56500 1131.000
28.58000 1111.000
28.59500 1114.000
28.61000 1157.000
28.62500 1117.000
28.64000 1038.000
28.65500 1076.000
28.67000 1099.000
28.68500 1046.000
28.70000 1023.000
28.71500 1000.000
28.73000 1032.000
28.74500 985.000
28.76000 982.000
28.77500 994.000
28.79000 1029.000
28.80500 1000.000
28.82000 1003.000
28.83500 943.000
28.85000 921.000
28.86500 946.000
28.88000 911.000
28.89500 959.000
28.91000 963.000
28.92500 914.000
28.94000 925.000
28.95500 980.000
28.97000 953.000
28.98500 929.000
29.00000 954.000
29.01500 902.000
29.03000 928.000
29.04500 928.000
29.06000 931.000
29.07500 970.000
29.09000 996.000
29.10500 952.000
29.12000 1019.000
29.13500 955.000
29.15000 1002.000
29.16500 1007.000
29.18000 965.000
29.19500 957.000
29.21000 939.000
29.22500 946.000
29.24000 926.000
29.25500 898.000
29.27000 845.000
29.28500 840.000
29.30000 835.000
29.31500 820.000
29.33000 820.000
29.34500 802.000
29.36000 804.000
29.37500 753.000
29.39000 786.000
29.40500 829.000
29.42000 788.000
29.43500 798.000
29.45000 766.000
29.46500 749.000
29.48000 759.000
29.49500 803.000
29.51000 826.000
29.52500 785.000
29.54000 719.000
29.55500 771.000
29.57000 804.000
29.58500 787.000
29.60000 790.000
29.61500 765.000
29.63000 761.000
29.64500 735.000
29.66000 795.000
29.67500 763.000
29.69000 769.000
29.70500 791.000
29.72000 786.000
29.73500 752.000
29.75000 756.000
29.76500 796.000
29.78000 764.000
29.79500 792.000
29.81000 785.000
29.82500 824.000
29.84000 797.000
29.85500 756.000
29.87000 756.000
29.88500 795.000
29.90000 788.000
29.91500 739.000
29.93000 750.000
29.94500 756.000
29.96000 754.000
29.97500 727.000
29.99000 777.000
30.00500 750.000
30.02000 777.000
30.03500 756.000
30.05000 747.000
30.06500 761.000
30.08000 727.000
30.09500 789.000
30.11000 804.000
30.12500 747.000
30.14000 719.000
30.15500 758.000
30.17000 782.000
30.18500 786.000
30.20000 788.000
30.21500 794.000
30.23000 798.000
30.24500 778.000
30.26000 765.000
30.27500 806.000
30.29000 810.000
30.30500 772.000
30.32000 786.000
30.33500 814.000
30.35000 826.000
30.36500 816.000
30.38000 760.000
30.39500 796.000
30.41000 805.000
30.42500 783.000
30.44000 796.000
30.45500 772.000
30.47000 782.000
30.48500 780.000
30.50000 838.000
30.51500 849.000
30.53000 837.000
30.54500 783.000
30.56000 803.000
30.57500 807.000
30.59000 772.000
30.60500 782.000
30.62000 798.000
30.63500 818.000
30.65000 798.000
30.66500 791.000
30.68000 771.000
30.69500 795.000
30.71000 756.000
30.72500 752.000
30.74000 774.000
30.75500 735.000
30.77000 767.000
30.78500 776.000
30.80000 739.000
30.81500 711.000
30.83000 748.000
30.84500 726.000
30.86000 753.000
30.87500 671.000
30.89000 689.000
30.90500 704.000
30.92000 727.000
30.93500 714.000
30.95000 697.000
30.96500 668.000
30.98000 689.000
30.99500 699.000
31.01000 703.000
31.02500 687.000
31.04000 651.000
31.05500 642.000
31.07000 662.000
31.08500 677.000
31.10000 673.000
31.11500 643.000
31.13000 632.000
31.14500 665.000
31.16000 631.000
31.17500 611.000
31.19000 642.000
31.20500 574.000
31.22000 612.000
31.23500 643.000
31.25000 640.000
31.26500 653.000
31.28000 627.000
31.29500 652.000
31.31000 653.000
31.32500 657.000
31.34000 629.000
31.35500 649.000
31.37000 636.000
31.38500 634.000
31.40000 640.000
31.41500 629.000
31.43000 657.000
31.44500 655.000
31.46000 675.000
31.47500 625.000
31.49000 653.000
31.50500 665.000
31.52000 617.000
31.53500 645.000
31.55000 639.000
31.56500 671.000
31.58000 682.000
31.59500 677.000
31.61000 626.000
31.62500 620.000
31.64000 625.000
31.65500 645.000
31.67000 659.000
31.68500 646.000
31.70000 619.000
31.71500 711.000
31.73000 667.000
31.74500 636.000
31.76000 635.000
31.77500 661.000
31.79000 663.000
31.80500 649.000
31.82000 681.000
31.83500 661.000
31.85000 662.000
31.86500 662.000
31.88000 654.000
31.89500 666.000
31.91000 641.000
31.92500 602.000
31.94000 648.000
31.95500 624.000
31.97000 599.000
31.98500 625.000
32.00000 637.000
32.01500 650.000
32.03000 657.000
32.04500 654.000
32.06000 608.000
32.07500 590.000
32.09000 624.000
32.10500 629.000
32.12000 622.000
32.13500 643.000
32.15000 660.000
32.16500 644.000
32.18000 623.000
32.19500 684.000
32.21000 625.000
32.22500 668.000
32.24000 709.000
32.25500 715.000
32.27000 739.000
32.28500 763.000
32.30000 773.000
32.31500 805.000
32.33000 804.000
32.34500 795.000
32.36000 846.000
32.37500 802.000
32.39000 851.000
32.40500 835.000
32.42000 788.000
32.43500 796.000
32.45000 768.000
32.46500 711.000
32.48000 664.000
32.49500 706.000
32.51000 641.000
32.52500 643.000
32.54000 612.000
32.55500 605.000
32.57000 598.000
32.58500 590.000
32.60000 588.000
32.61500 562.000
32.63000 574.000
32.64500 580.000
32.66000 556.000
32.67500 555.000
32.69000 561.000
32.70500 524.000
32.72000 540.000
32.73500 529.000
32.75000 513.000
32.76500 500.000
32.78000 525.000
32.79500 503.000
32.81000 488.000
32.82500 542.000
32.84000 512.000
32.85500 480.000
32.87000 489.000
32.88500 485.000
32.90000 480.000
32.91500 503.000
32.93000 528.000
32.94500 539.000
32.96000 515.000
32.97500 505.000
32.99000 470.000
33.00500 495.000
33.02000 503.000
33.03500 489.000
33.05000 462.000
33.06500 467.000
33.08000 491.000
33.09500 485.000
33.11000 494.000
33.12500 490.000
33.14000 447.000
33.15500 481.000
33.17000 482.000
33.18500 481.000
33.20000 458.000
33.21500 454.000
33.23000 473.000
33.24500 476.000
33.26000 494.000
33.27500 453.000
33.29000 455.000
33.30500 469.000
33.32000 478.000
33.33500 476.000
33.35000 448.000
33.36500 427.000
33.38000 446.000
33.39500 457.000
33.41000 455.000
33.42500 437.000
33.44000 443.000
33.45500 468.000
33.47000 462.000
33.48500 465.000
33.50000 442.000
33.51500 462.000
33.53000 470.000
33.54500 507.000
33.56000 471.000
33.57500 436.000
33.59000 443.000
33.60500 449.000
33.62000 486.000
33.63500 457.000
33.65000 463.000
33.66500 475.000
33.68000 474.000
33.69500 475.000
33.71000 443.000
33.72500 455.000
33.74000 460.000
33.75500 466.000
33.77000 441.000
33.78500 394.000
33.80000 426.000
33.81500 427.000
33.83000 442.000
33.84500 467.000
33.86000 441.000
33.87500 449.000
33.89000 466.000
33.90500 459.000
33.92000 458.000
33.93500 438.000
33.95000 437.000
33.96500 433.000
33.98000 482.000
33.99500 446.000
34.01000 472.000
34.02500 475.000
34.04000 436.000
34.05500 470.000
34.07000 509.000
34.08500 460.000
34.10000 425.000
34.11500 434.000
34.13000 452.000
34.14500 461.000
34.16000 452.000
34.17500 438.000
34.19000 461.000
34.20500 432.000
34.22000 427.000
34.23500 464.000
34.25000 480.000
34.26500 452.000
34.28000 459.000
34.29500 433.000
34.31000 475.000
34.32500 424.000
34.34000 448.000
34.35500 464.000
34.37000 465.000
34.38500 446.000
34.40000 460.000
34.41500 479.000
34.43000 431.000
34.44500 426.000
34.46000 480.000
34.47500 477.000
34.49000 461.000
34.50500 451.000
34.52000 435.000
34.53500 476.000
34.55000 430.000
34.56500 429.000
34.58000 456.000
34.59500 436.000
34.61000 462.000
34.62500 469.000
34.64000 431.000
34.65500 469.000
34.67000 483.000
34.68500 475.000
34.70000 428.000
34.71500 446.000
34.73000 455.000
34.74500 438.000
34.76000 441.000
34.77500 442.000
34.79000 466.000
34.80500 459.000
34.82000 424.000
34.83500 419.000
34.85000 429.000
34.86500 455.000
34.88000 456.000
34.89500 466.000
34.91000 457.000
34.92500 491.000
34.94000 439.000
34.95500 425.000
34.97000 432.000
34.98500 467.000
35.00000 458.000
35.01500 445.000
35.03000 457.000
35.04500 498.000
35.06000 503.000
35.07500 504.000
35.09000 492.000
35.10500 502.000
35.12000 508.000
35.13500 501.000
35.15000 507.000
35.16500 491.000
35.18000 506.000
35.19500 536.000
35.21000 537.000
35.22500 514.000
35.24000 517.000
35.25500 534.000
35.27000 568.000
35.28500 586.000
35.30000 572.000
35.31500 580.000
35.33000 611.000
35.34500 628.000
35.36000 619.000
35.37500 701.000
35.39000 754.000
35.40500 793.000
35.42000 831.000
35.43500 886.000
35.45000 902.000
35.46500 967.000
35.48000 1004.000
35.49500 957.000
35.51000 941.000
35.52500 909.000
35.54000 839.000
35.55500 738.000
35.57000 709.000
35.58500 651.000
35.60000 620.000
35.61500 609.000
35.63000 624.000
35.64500 602.000
35.66000 573.000
35.67500 533.000
35.69000 527.000
35.70500 555.000
35.72000 539.000
35.73500 516.000
35.75000 506.000
35.76500 517.000
35.78000 486.000
35.79500 480.000
35.81000 487.000
35.82500 500.000
35.84000 515.000
35.85500 481.000
35.87000 487.000
35.88500 488.000
35.90000 495.000
35.91500 499.000
35.93000 483.000
35.94500 488.000
35.96000 475.000
35.97500 472.000
35.99000 470.000
36.00500 464.000
36.02000 505.000
36.03500 508.000
36.05000 500.000
36.06500 507.000
36.08000 522.000
36.09500 491.000
36.11000 506.000
36.12500 529.000
36.14000 526.000
36.15500 534.000
36.17000 559.000
36.18500 532.000
36.20000 536.000
36.21500 535.000
36.23000 539.000
36.24500 550.000
36.26000 571.000
36.27500 540.000
36.29000 569.000
36.30500 538.000
36.32000 580.000
36.33500 567.000
36.35000 565.000
36.36500 570.000
36.38000 558.000
36.39500 563.000
36.41000 559.000
36.42500 565.000
36.44000 563.000
36.45500 567.000
36.47000 538.000
36.48500 574.000
36.50000 567.000
36.51500 577.000
36.53000 595.000
36.54500 576.000
36.56000 543.000
36.57500 522.000
36.59000 561.000
36.60500 550.000
36.62000 529.000
36.63500 504.000
36.65000 519.000
36.66500 524.000
36.68000 524.000
36.69500 499.000
36.71000 549.000
36.72500 519.000
36.74000 500.000
36.75500 488.000
36.77000 493.000
36.78500 479.000
36.80000 456.000
36.81500 474.000
36.83000 472.000
36.84500 484.000
36.86000 482.000
36.87500 460.000
36.89000 480.000
36.90500 483.000
36.92000 476.000
36.93500 507.000
36.95000 455.000
36.96500 448.000
36.98000 446.000
36.99500 441.000
37.01000 458.000
37.02500 449.000
37.04000 434.000
37.05500 479.000
37.07000 450.000
37.08500 485.000
37.10000 452.000
37.11500 502.000
37.13000 464.000
37.14500 464.000
37.16000 474.000
37.17500 491.000
37.19000 495.000
37.20500 496.000
37.22000 468.000
37.23500 499.000
37.25000 511.000
37.26500 518.000
37.28000 509.000
37.29500 523.000
37.31000 567.000
37.32500 548.000
37.34000 523.000
37.35500 536.000
37.37000 521.000
37.38500 553.000
37.40000 519.000
37.41500 492.000
37.43000 513.000
37.44500 535.000
37.46000 538.000
37.47500 536.000
37.49000 524.000
37.50500 526.000
37.52000 541.000
37.53500 513.000
37.55000 504.000
37.56500 486.000
37.58000 521.000
37.59500 552.000
37.61000 515.000
37.62500 490.000
37.64000 497.000
37.65500 507.000
37.67000 474.000
37.68500 499.000
37.70000 506.000
37.71500 524.000
37.73000 505.000
37.74500 508.000
37.76000 501.000
37.77500 493.000
37.79000 496.000
37.80500 517.000
37.82000 516.000
37.83500 516.000
37.85000 525.000
37.86500 492.000
37.88000 487.000
37.89500 508.000
37.91000 466.000
37.92500 492.000
37.94000 484.000
37.95500 497.000
37.97000 490.000
37.98500 476.000
38.00000 471.000
38.01500 526.000
38.03000 467.000
38.04500 494.000
38.06000 474.000
38.07500 489.000
38.09000 481.000
38.10500 475.000
38.12000 470.000
38.13500 483.000
38.15000 460.000
38.16500 476.000
38.18000 492.000
38.19500 481.000
38.21000 466.000
38.22500 486.000
38.24000 433.000
38.25500 422.000
38.27000 461.000
38.28500 463.000
38.30000 442.000
38.31500 454.000
38.33000 409.000
38.34500 453.000
38.36000 458.000
38.37500 454.000
38.39000 511.000
38.40500 494.000
38.42000 466.000
38.43500 482.000
38.45000 466.000
38.46500 468.000
38.48000 499.000
38.49500 482.000
38.51000 490.000
38.52500 505.000
38.54000 487.000
38.55500 513.000
38.57000 535.000
38.58500 497.000
38.60000 479.000
38.61500 432.000
38.63000 464.000
38.64500 506.000
38.66000 459.000
38.67500 487.000
38.69000 475.000
38.70500 476.000
38.72000 464.000
38.73500 441.000
38.75000 479.000
38.76500 485.000
38.78000 469.000
38.79500 475.000
38.81000 469.000
38.82500 482.000
38.84000 481.000
38.85500 467.000
38.87000 479.000
38.88500 467.000
38.90000 484.000
38.91500 483.000
38.93000 462.000
38.94500 459.000
38.96000 444.000
38.97500 442.000
38.99000 440.000
39.00500 470.000
39.02000 449.000
39.03500 438.000
39.05000 445.000
39.06500 440.000
39.08000 415.000
39.09500 410.000
39.11000 396.000
39.12500 398.000
39.14000 402.000
39.15500 431.000
39.17000 408.000
39.18500 362.000
39.20000 375.000
39.21500 389.000
39.23000 401.000
39.24500 383.000
39.26000 401.000
39.27500 406.000
39.29000 417.000
39.30500 397.000
39.32000 388.000
39.33500 375.000
39.35000 391.000
39.36500 401.000
39.38000 378.000
39.39500 390.000
39.41000 395.000
39.42500 396.000
39.44000 413.000
39.45500 411.000
39.47000 422.000
39.48500 389.000
39.50000 394.000
39.51500 396.000
39.53000 402.000
39.54500 399.000
39.56000 406.000
39.57500 420.000
39.59000 396.000
39.60500 375.000
39.62000 399.000
39.63500 411.000
39.65000 407.000
39.66500 375.000
39.68000 432.000
39.69500 421.000
39.71000 384.000
39.72500 432.000
39.74000 424.000
39.75500 398.000
39.77000 396.000
39.78500 401.000
39.80000 411.000
39.81500 429.000
39.83000 400.000
39.84500 445.000
39.86000 438.000
39.87500 462.000
39.89000 437.000
39.90500 393.000
39.92000 418.000
39.93500 432.000
39.95000 413.000
39.96500 408.000
39.98000 430.000
39.99500 451.000
40.01000 454.000
40.02500 433.000
40.04000 428.000
40.05500 458.000
40.07000 447.000
40.08500 451.000
40.10000 442.000
40.11500 449.000
40.13000 436.000
40.14500 458.000
40.16000 455.000
40.17500 445.000
40.19000 468.000
40.20500 441.000
40.22000 425.000
40.23500 420.000
40.25000 426.000
40.26500 440.000
40.28000 454.000
40.29500 446.000
40.31000 435.000
40.32500 445.000
40.34000 450.000
40.35500 453.000
40.37000 432.000
40.38500 414.000
40.40000 461.000
40.41500 436.000
40.43000 467.000
40.44500 437.000
40.46000 458.000
40.47500 443.000
40.49000 407.000
40.50500 402.000
40.52000 420.000
40.53500 428.000
40.55000 451.000
40.56500 434.000
40.58000 427.000
40.59500 428.000
40.61000 433.000
40.62500 442.000
40.64000 433.000
40.65500 422.000
40.67000 429.000
40.68500 436.000
40.70000 419.000
40.71500 431.000
40.73000 413.000
40.74500 412.000
40.76000 395.000
40.77500 402.000
40.79000 391.000
40.80500 393.000
40.82000 390.000
40.83500 386.000
40.85000 407.000
40.86500 394.000
40.88000 394.000
40.89500 395.000
40.91000 379.000
40.92500 383.000
40.94000 388.000
40.95500 361.000
40.97000 337.000
40.98500 352.000
41.00000 366.000
41.01500 390.000
41.03000 371.000
41.04500 398.000
41.06000 394.000
41.07500 397.000
41.09000 386.000
41.10500 373.000
41.12000 385.000
41.13500 394.000
41.15000 375.000
41.16500 397.000
41.18000 361.000
41.19500 380.000
41.21000 366.000
41.22500 366.000
41.24000 397.000
41.25500 391.000
41.27000 398.000
41.28500 391.000
41.30000 379.000
41.31500 370.000
41.33000 366.000
41.34500 346.000
41.36000 351.000
41.37500 361.000
41.39000 380.000
41.40500 373.000
41.42000 360.000
41.43500 353.000
41.45000 363.000
41.46500 358.000
41.48000 361.000
41.49500 365.000
41.51000 360.000
41.52500 370.000
41.54000 362.000
41.55500 368.000
41.57000 367.000
41.58500 376.000
41.60000 355.000
41.61500 341.000
41.63000 353.000
41.64500 366.000
41.66000 366.000
41.67500 391.000
41.69000 351.000
41.70500 355.000
41.72000 362.000
41.73500 372.000
41.75000 380.000
41.76500 367.000
41.78000 348.000
41.79500 363.000
41.81000 374.000
41.82500 361.000
41.84000 365.000
41.85500 376.000
41.87000 357.000
41.88500 328.000
41.90000 347.000
41.91500 356.000
41.93000 350.000
41.94500 359.000
41.96000 352.000
41.97500 363.000
41.99000 349.000
42.00500 388.000
42.02000 371.000
42.03500 381.000
42.05000 347.000
42.06500 358.000
42.08000 346.000
42.09500 360.000
42.11000 347.000
42.12500 331.000
42.14000 309.000
42.15500 364.000
42.17000 370.000
42.18500 351.000
42.20000 346.000
42.21500 359.000
42.23000 343.000
42.24500 365.000
42.26000 321.000
42.27500 327.000
42.29000 376.000
42.30500 354.000
42.32000 373.000
42.33500 366.000
42.35000 369.000
42.36500 339.000
42.38000 359.000
42.39500 341.000
42.41000 359.000
42.42500 375.000
42.44000 378.000
42.45500 389.000
42.47000 349.000
42.48500 368.000
42.50000 386.000
42.51500 399.000
42.53000 347.000
42.54500 354.000
42.56000 389.000
42.57500 381.000
42.59000 356.000
42.60500 359.000
42.62000 352.000
42.63500 339.000
42.65000 389.000
42.66500 372.000
42.68000 336.000
42.69500 373.000
42.71000 371.000
42.72500 363.000
42.74000 349.000
42.75500 376.000
42.77000 403.000
42.78500 375.000
42.80000 367.000
42.81500 388.000
42.83000 421.000
42.84500 417.000
42.86000 401.000
42.87500 410.000
42.89000 398.000
42.90500 409.000
42.92000 410.000
42.93500 451.000
42.95000 402.000
42.96500 392.000
42.98000 433.000
42.99500 424.000
43.01000 429.000
43.02500 475.000
43.04000 462.000
43.05500 439.000
43.07000 466.000
43.08500 480.000
43.10000 482.000
43.11500 500.000
43.13000 493.000
43.14500 557.000
43.16000 531.000
43.17500 576.000
43.19000 530.000
43.20500 571.000
43.22000 605.000
43.23500 607.000
43.25000 617.000
43.26500 640.000
43.28000 630.000
43.29500 653.000
43.31000 671.000
43.32500 650.000
43.34000 600.000
43.35500 611.000
43.37000 571.000
43.38500 558.000
43.40000 549.000
43.41500 504.000
43.43000 518.000
43.44500 524.000
43.46000 478.000
43.47500 483.000
43.49000 488.000
43.50500 487.000
43.52000 456.000
43.53500 469.000
43.55000 460.000
43.56500 462.000
43.58000 444.000
43.59500 418.000
43.61000 440.000
43.62500 440.000
43.64000 423.000
43.65500 437.000
43.67000 428.000
43.68500 423.000
43.70000 418.000
43.71500 399.000
43.73000 427.000
43.74500 445.000
43.76000 431.000
43.77500 389.000
43.79000 409.000
43.80500 377.000
43.82000 403.000
43.83500 385.000
43.85000 399.000
43.86500 396.000
43.88000 395.000
43.89500 373.000
43.91000 390.000
43.92500 391.000
43.94000 376.000
43.95500 363.000
43.97000 379.000
43.98500 371.000
44.00000 383.000
44.01500 395.000
44.03000 401.000
44.04500 406.000
44.06000 375.000
44.07500 352.000
44.09000 405.000
44.10500 386.000
44.12000 418.000
44.13500 410.000
44.15000 410.000
44.16500 419.000
44.18000 391.000
44.19500 387.000
44.21000 408.000
44.22500 420.000
44.24000 442.000
44.25500 406.000
44.27000 452.000
44.28500 479.000
44.30000 418.000
44.31500 466.000
44.33000 462.000
44.34500 467.000
44.36000 478.000
44.37500 483.000
44.39000 504.000
44.40500 471.000
44.42000 444.000
44.43500 432.000
44.45000 441.000
44.46500 454.000
44.48000 428.000
44.49500 448.000
44.51000 431.000
44.52500 438.000
44.54000 429.000
44.55500 419.000
44.57000 424.000
44.58500 441.000
44.60000 419.000
44.61500 388.000
44.63000 400.000
44.64500 403.000
44.66000 424.000
44.67500 453.000
44.69000 406.000
44.70500 441.000
44.72000 419.000
44.73500 393.000
44.75000 406.000
44.76500 382.000
44.78000 419.000
44.79500 399.000
44.81000 390.000
44.82500 403.000
44.84000 420.000
44.85500 403.000
44.87000 405.000
44.88500 418.000
44.90000 410.000
44.91500 397.000
44.93000 471.000
44.94500 446.000
44.96000 422.000
44.97500 426.000
44.99000 439.000
45.00500 429.000
45.02000 401.000
45.03500 405.000
45.05000 410.000
45.06500 429.000
45.08000 420.000
45.09500 425.000
45.11000 399.000
45.12500 418.000
45.14000 417.000
45.15500 413.000
45.17000 393.000
45.18500 403.000
45.20000 385.000
45.21500 403.000
45.23000 386.000
45.24500 395.000
45.26000 415.000
45.27500 398.000
45.29000 400.000
45.30500 387.000
45.32000 370.000
45.33500 391.000
45.35000 383.000
45.36500 388.000
45.38000 361.000
45.39500 390.000
45.41000 390.000
45.42500 393.000
45.44000 401.000
45.45500 374.000
45.47000 377.000
45.48500 407.000
45.50000 341.000
45.51500 371.000
45.53000 361.000
45.54500 384.000
45.56000 397.000
45.57500 404.000
45.59000 377.000
45.60500 363.000
45.62000 389.000
45.63500 370.000
45.65000 404.000
45.66500 404.000
45.68000 394.000
45.69500 391.000
45.71000 375.000
45.72500 369.000
45.74000 382.000
45.75500 408.000
45.77000 403.000
45.78500 374.000
45.80000 371.000
45.81500 377.000
45.83000 377.000
45.84500 397.000
45.86000 368.000
45.87500 357.000
45.89000 386.000
45.90500 367.000
45.92000 397.000
45.93500 385.000
45.95000 357.000
45.96500 387.000
45.98000 384.000
45.99500 388.000
46.01000 406.000
46.02500 391.000
46.04000 372.000
46.05500 401.000
46.07000 389.000
46.08500 380.000
46.10000 375.000
46.11500 387.000
46.13000 358.000
46.14500 378.000
46.16000 384.000
46.17500 381.000
46.19000 399.000
46.20500 405.000
46.22000 394.000
46.23500 372.000
46.25000 411.000
46.26500 373.000
46.28000 359.000
46.29500 384.000
46.31000 360.000
46.32500 392.000
46.34000 401.000
46.35500 369.000
46.37000 357.000
46.38500 358.000
46.40000 360.000
46.41500 361.000
46.43000 382.000
46.44500 379.000
46.46000 350.000
46.47500 373.000
46.49000 392.000
46.50500 377.000
46.52000 336.000
46.53500 362.000
46.55000 349.000
46.56500 364.000
46.58000 361.000
46.59500 342.000
46.61000 342.000
46.62500 336.000
46.64000 348.000
46.65500 327.000
46.67000 374.000
46.68500 351.000
46.70000 350.000
46.71500 375.000
46.73000 341.000
46.74500 355.000
46.76000 331.000
46.77500 358.000
46.79000 314.000
46.80500 363.000
46.82000 364.000
46.83500 349.000
46.85000 354.000
46.86500 350.000
46.88000 350.000
46.89500 342.000
46.91000 338.000
46.92500 354.000
46.94000 366.000
46.95500 357.000
46.97000 342.000
46.98500 331.000
47.00000 330.000
47.01500 344.000
47.03000 322.000
47.04500 333.000
47.06000 346.000
47.07500 343.000
47.09000 354.000
47.10500 323.000
47.12000 329.000
47.13500 319.000
47.15000 316.000
47.16500 324.000
47.18000 358.000
47.19500 335.000
47.21000 344.000
47.22500 344.000
47.24000 341.000
47.25500 334.000
47.27000 344.000
47.28500 284.000
47.30000 284.000
47.31500 306.000
47.33000 308.000
47.34500 308.000
47.36000 338.000
47.37500 304.000
47.39000 347.000
47.40500 322.000
47.42000 311.000
47.43500 287.000
47.45000 305.000
47.46500 288.000
47.48000 291.000
47.49500 319.000
47.51000 315.000
47.52500 327.000
47.54000 327.000
47.55500 312.000
47.57000 272.000
47.58500 268.000
47.60000 296.000
47.61500 306.000
47.63000 301.000
47.64500 287.000
47.66000 300.000
47.67500 309.000
47.69000 290.000
47.70500 293.000
47.72000 288.000
47.73500 312.000
47.75000 305.000
47.76500 307.000
47.78000 286.000
47.79500 294.000
47.81000 283.000
47.82500 297.000
47.84000 310.000
47.85500 297.000
47.87000 287.000
47.88500 291.000
47.90000 301.000
47.91500 290.000
47.93000 283.000
47.94500 281.000
47.96000 292.000
47.97500 292.000
47.99000 285.000
48.00500 311.000
48.02000 335.000
48.03500 294.000
48.05000 267.000
48.06500 270.000
48.08000 278.000
48.09500 271.000
48.11000 286.000
48.12500 298.000
48.14000 286.000
48.15500 292.000
48.17000 301.000
48.18500 287.000
48.20000 294.000
48.21500 300.000
48.23000 284.000
48.24500 288.000
48.26000 277.000
48.27500 271.000
48.29000 287.000
48.30500 268.000
48.32000 283.000
48.33500 304.000
48.35000 293.000
48.36500 281.000
48.38000 271.000
48.39500 264.000
48.41000 282.000
48.42500 269.000
48.44000 271.000
48.45500 265.000
48.47000 290.000
48.48500 274.000
48.50000 294.000
48.51500 301.000
48.53000 281.000
48.54500 308.000
48.56000 302.000
48.57500 292.000
48.59000 282.000
48.60500 289.000
48.62000 283.000
48.63500 297.000
48.65000 274.000
48.66500 281.000
48.68000 284.000
48.69500 266.000
48.71000 256.000
48.72500 274.000
48.74000 272.000
48.75500 282.000
48.77000 274.000
48.78500 286.000
48.80000 289.000
48.81500 292.000
48.83000 291.000
48.84500 273.000
48.86000 262.000
48.87500 276.000
48.89000 281.000
48.90500 265.000
48.92000 268.000
48.93500 270.000
48.95000 255.000
48.96500 234.000
48.98000 236.000
48.99500 259.000
49.01000 284.000
49.02500 279.000
49.04000 279.000
49.05500 282.000
49.07000 286.000
49.08500 289.000
49.10000 249.000
49.11500 264.000
49.13000 280.000
49.14500 291.000
49.16000 297.000
49.17500 247.000
49.19000 282.000
49.20500 242.000
49.22000 275.000
49.23500 306.000
49.25000 281.000
49.26500 273.000
49.28000 291.000
49.29500 290.000
49.31000 272.000
49.32500 263.000
49.34000 282.000
49.35500 284.000
49.37000 285.000
49.38500 274.000
49.40000 294.000
49.41500 268.000
49.43000 269.000
49.44500 291.000
49.46000 280.000
49.47500 279.000
49.49000 265.000
49.50500 276.000
49.52000 280.000
49.53500 276.000
49.55000 264.000
49.56500 264.000
49.58000 256.000
49.59500 264.000
49.61000 275.000
49.62500 279.000
49.64000 285.000
49.65500 273.000
49.67000 271.000
49.68500 267.000
49.70000 258.000
49.71500 239.000
49.73000 278.000
49.74500 287.000
49.76000 284.000
49.77500 271.000
49.79000 274.000
49.80500 259.000
49.82000 271.000
49.83500 314.000
49.85000 300.000
49.86500 280.000
49.88000 267.000
49.89500 265.000
49.91000 253.000
49.92500 278.000
49.94000 275.000
49.95500 285.000
49.97000 310.000
49.98500 295.000
50.00000 326.000
50.01500 315.000
50.03000 312.000
50.04500 310.000
50.06000 312.000
50.07500 298.000
50.09000 326.000
50.10500 319.000
50.12000 349.000
50.13500 356.000
50.15000 314.000
50.16500 332.000
50.18000 300.000
50.19500 309.000
50.21000 306.000
50.22500 272.000
50.24000 287.000
50.25500 295.000
50.27000 274.000
50.28500 297.000
50.30000 284.000
50.31500 280.000
50.33000 271.000
50.34500 271.000
50.36000 267.000
50.37500 269.000
50.39000 290.000
50.40500 281.000
50.42000 299.000
50.43500 263.000
50.45000 275.000
50.46500 285.000
50.48000 287.000
50.49500 268.000
50.51000 280.000
50.52500 276.000
50.54000 282.000
50.55500 289.000
50.57000 299.000
50.58500 307.000
50.60000 283.000
50.61500 294.000
50.63000 282.000
50.64500 285.000
50.66000 307.000
50.67500 284.000
50.69000 290.000
50.70500 262.000
50.72000 278.000
50.73500 314.000
50.75000 291.000
50.76500 301.000
50.78000 307.000
50.79500 298.000
50.81000 266.000
50.82500 298.000
50.84000 303.000
50.85500 292.000
50.87000 272.000
50.88500 296.000
50.90000 290.000
50.91500 298.000
50.93000 272.000
50.94500 275.000
50.96000 299.000
50.97500 294.000
50.99000 294.000
51.00500 294.000
51.02000 307.000
51.03500 300.000
51.05000 290.000
51.06500 279.000
51.08000 301.000
51.09500 282.000
51.11000 274.000
51.12500 296.000
51.14000 292.000
51.15500 299.000
51.17000 305.000
51.18500 300.000
51.20000 300.000
51.21500 306.000
51.23000 288.000
51.24500 289.000
51.26000 288.000
51.27500 290.000
51.29000 277.000
51.30500 266.000
51.32000 277.000
51.33500 307.000
51.35000 302.000
51.36500 283.000
51.38000 281.000
51.39500 300.000
51.41000 318.000
51.42500 299.000
51.44000 294.000
51.45500 279.000
51.47000 270.000
51.48500 281.000
51.50000 275.000
51.51500 274.000
51.53000 306.000
51.54500 301.000
51.56000 305.000
51.57500 305.000
51.59000 299.000
51.60500 291.000
51.62000 289.000
51.63500 321.000
51.65000 318.000
51.66500 310.000
51.68000 313.000
51.69500 306.000
51.71000 291.000
51.72500 301.000
51.74000 325.000
51.75500 299.000
51.77000 282.000
51.78500 270.000
51.80000 285.000
51.81500 285.000
51.83000 288.000
51.84500 252.000
51.86000 280.000
51.87500 317.000
51.89000 286.000
51.90500 277.000
51.92000 259.000
51.93500 262.000
51.95000 275.000
51.96500 292.000
51.98000 295.000
51.99500 299.000
52.01000 280.000
52.02500 280.000
52.04000 273.000
52.05500 242.000
52.07000 265.000
52.08500 265.000
52.10000 271.000
52.11500 271.000
52.13000 263.000
52.14500 240.000
52.16000 276.000
52.17500 261.000
52.19000 280.000
52.20500 251.000
52.22000 267.000
52.23500 279.000
52.25000 289.000
52.26500 272.000
52.28000 258.000
52.29500 274.000
52.31000 261.000
52.32500 257.000
52.34000 268.000
52.35500 251.000
52.37000 250.000
52.38500 277.000
52.40000 279.000
52.41500 278.000
52.43000 278.000
52.44500 264.000
52.46000 248.000
52.47500 236.000
52.49000 282.000
52.50500 297.000
52.52000 290.000
52.53500 290.000
52.55000 273.000
52.56500 268.000
52.58000 289.000
52.59500 292.000
52.61000 295.000
52.62500 283.000
52.64000 297.000
52.65500 305.000
52.67000 284.000
52.68500 283.000
52.70000 288.000
52.71500 307.000
52.73000 291.000
52.74500 278.000
52.76000 268.000
52.77500 266.000
52.79000 259.000
52.80500 299.000
52.82000 271.000
52.83500 284.000
52.85000 272.000
52.86500 282.000
52.88000 279.000
52.89500 306.000
52.91000 298.000
52.92500 280.000
52.94000 276.000
52.95500 293.000
52.97000 291.000
52.98500 292.000
53.00000 323.000
53.01500 323.000
53.03000 287.000
53.04500 292.000
53.06000 282.000
53.07500 264.000
53.09000 298.000
53.10500 290.000
53.12000 279.000
53.13500 307.000
53.15000 318.000
53.16500 299.000
53.18000 273.000
53.19500 288.000
53.21000 282.000
53.22500 274.000
53.24000 288.000
53.25500 295.000
53.27000 287.000
53.28500 271.000
53.30000 257.000
53.31500 273.000
53.33000 287.000
53.34500 257.000
53.36000 260.000
53.37500 278.000
53.39000 308.000
53.40500 288.000
53.42000 288.000
53.43500 263.000
53.45000 259.000
53.46500 287.000
53.48000 300.000
53.49500 277.000
53.51000 255.000
53.52500 259.000
53.54000 261.000
53.55500 267.000
53.57000 258.000
53.58500 239.000
53.60000 254.000
53.61500 258.000
53.63000 266.000
53.64500 260.000
53.66000 256.000
53.67500 294.000
53.69000 295.000
53.70500 282.000
53.72000 250.000
53.73500 255.000
53.75000 267.000
53.76500 265.000
53.78000 286.000
53.79500 260.000
53.81000 275.000
53.82500 265.000
53.84000 272.000
53.85500 287.000
53.87000 296.000
53.88500 285.000
53.90000 282.000
53.91500 276.000
53.93000 282.000
53.94500 262.000
53.96000 290.000
53.97500 277.000
53.99000 275.000
54.00500 260.000
54.02000 268.000
54.03500 283.000
54.05000 274.000
54.06500 284.000
54.08000 257.000
54.09500 271.000
54.11000 272.000
54.12500 300.000
54.14000 273.000
54.15500 303.000
54.17000 271.000
54.18500 277.000
54.20000 261.000
54.21500 265.000
54.23000 275.000
54.24500 279.000
54.26000 259.000
54.27500 281.000
54.29000 304.000
54.30500 279.000
54.32000 279.000
54.33500 294.000
54.35000 287.000
54.36500 276.000
54.38000 271.000
54.39500 293.000
54.41000 301.000
54.42500 283.000
54.44000 275.000
54.45500 277.000
54.47000 259.000
54.48500 270.000
54.50000 292.000
54.51500 249.000
54.53000 244.000
54.54500 300.000
54.56000 267.000
54.57500 243.000
54.59000 245.000
54.60500 271.000
54.62000 259.000
54.63500 265.000
54.65000 265.000
54.66500 259.000
54.68000 275.000
54.69500 257.000
54.71000 294.000
54.72500 280.000
54.74000 256.000
54.75500 255.000
54.77000 270.000
54.78500 254.000
54.80000 256.000
54.81500 246.000
54.83000 242.000
54.84500 266.000
54.86000 256.000
54.87500 255.000
54.89000 251.000
54.90500 279.000
54.92000 262.000
54.93500 260.000
54.95000 270.000
54.96500 272.000
54.98000 254.000
54.99500 239.000
55.01000 225.000
55.02500 239.000
55.04000 268.000
55.05500 261.000
55.07000 265.000
55.08500 266.000
55.10000 245.000
55.11500 258.000
55.13000 260.000
55.14500 288.000
55.16000 260.000
55.17500 239.000
55.19000 230.000
55.20500 227.000
55.22000 247.000
55.23500 246.000
55.25000 259.000
55.26500 256.000
55.28000 257.000
55.29500 249.000
55.31000 254.000
55.32500 249.000
55.34000 260.000
55.35500 249.000
55.37000 246.000
55.38500 263.000
55.40000 261.000
55.41500 297.000
55.43000 281.000
55.44500 252.000
55.46000 248.000
55.47500 253.000
55.49000 250.000
55.50500 249.000
55.52000 247.000
55.53500 240.000
55.55000 240.000
55.56500 244.000
55.58000 253.000
55.59500 261.000
55.61000 257.000
55.62500 254.000
55.64000 236.000
55.65500 243.000
55.67000 259.000
55.68500 259.000
55.70000 265.000
55.71500 250.000
55.73000 249.000
55.74500 254.000
55.76000 269.000
55.77500 272.000
55.79000 251.000
55.80500 248.000
55.82000 245.000
55.83500 244.000
55.85000 220.000
55.86500 237.000
55.88000 246.000
55.89500 254.000
55.91000 261.000
55.92500 259.000
55.94000 249.000
55.95500 250.000
55.97000 248.000
55.98500 246.000
56.00000 244.000
56.01500 256.000
56.03000 256.000
56.04500 250.000
56.06000 279.000
56.07500 256.000
56.09000 248.000
56.10500 254.000
56.12000 232.000
56.13500 233.000
56.15000 244.000
56.16500 254.000
56.18000 269.000
56.19500 257.000
56.21000 252.000
56.22500 250.000
56.24000 259.000
56.25500 242.000
56.27000 262.000
56.28500 278.000
56.30000 265.000
56.31500 246.000
56.33000 257.000
56.34500 239.000
56.36000 243.000
56.37500 243.000
56.39000 258.000
56.40500 253.000
56.42000 271.000
56.43500 289.000
56.45000 253.000
56.46500 259.000
56.48000 260.000
56.49500 253.000
56.51000 258.000
56.52500 251.000
56.54000 251.000
56.55500 246.000
56.57000 254.000
56.58500 256.000
56.60000 246.000
56.61500 237.000
56.63000 245.000
56.64500 227.000
56.66000 222.000
56.67500 238.000
56.69000 275.000
56.70500 269.000
56.72000 290.000
56.73500 273.000
56.75000 246.000
56.76500 255.000
56.78000 272.000
56.79500 280.000
56.81000 269.000
56.82500 253.000
56.84000 254.000
56.85500 273.000
56.87000 252.000
56.88500 256.000
56.90000 258.000
56.91500 242.000
56.93000 279.000
56.94500 266.000
56.96000 287.000
56.97500 286.000
56.99000 287.000
57.00500 254.000
57.02000 273.000
57.03500 278.000
57.05000 263.000
57.06500 293.000
57.08000 267.000
57.09500 251.000
57.11000 274.000
57.12500 269.000
57.14000 278.000
57.15500 278.000
57.17000 279.000
57.18500 298.000
57.20000 264.000
57.21500 304.000
57.23000 284.000
57.24500 281.000
57.26000 305.000
57.27500 288.000
57.29000 292.000
57.30500 288.000
57.32000 301.000
57.33500 286.000
57.35000 273.000
57.36500 275.000
57.38000 290.000
57.39500 292.000
57.41000 305.000
57.42500 283.000
57.44000 281.000
57.45500 330.000
57.47000 297.000
57.48500 306.000
57.50000 296.000
57.51500 300.000
57.53000 293.000
57.54500 272.000
57.56000 289.000
57.57500 293.000
57.59000 296.000
57.60500 309.000
57.62000 305.000
57.63500 293.000
57.65000 270.000
57.66500 286.000
57.68000 299.000
57.69500 308.000
57.71000 287.000
57.72500 303.000
57.74000 284.000
57.75500 296.000
57.77000 274.000
57.78500 267.000
57.80000 295.000
57.81500 276.000
57.83000 294.000
57.84500 303.000
57.86000 287.000
57.87500 266.000
57.89000 268.000
57.90500 305.000
57.92000 276.000
57.93500 267.000
57.95000 282.000
57.96500 267.000
57.98000 270.000
57.99500 284.000
58.01000 262.000
58.02500 277.000
58.04000 267.000
58.05500 268.000
58.07000 257.000
58.08500 278.000
58.10000 251.000
58.11500 255.000
58.13000 274.000
58.14500 275.000
58.16000 301.000
58.17500 297.000
58.19000 288.000
58.20500 277.000
58.22000 271.000
58.23500 277.000
58.25000 275.000
58.26500 277.000
58.28000 281.000
58.29500 285.000
58.31000 278.000
58.32500 275.000
58.34000 278.000
58.35500 294.000
58.37000 268.000
58.38500 275.000
58.40000 280.000
58.41500 281.000
58.43000 271.000
58.44500 270.000
58.46000 255.000
58.47500 267.000
58.49000 292.000
58.50500 269.000
58.52000 274.000
58.53500 276.000
58.55000 254.000
58.56500 251.000
58.58000 255.000
58.59500 266.000
58.61000 266.000
58.62500 275.000
58.64000 277.000
58.65500 267.000
58.67000 264.000
58.68500 247.000
58.70000 250.000
58.71500 279.000
58.73000 278.000
58.74500 270.000
58.76000 248.000
58.77500 243.000
58.79000 248.000
58.80500 258.000
58.82000 257.000
58.83500 226.000
58.85000 252.000
58.86500 265.000
58.88000 273.000
58.89500 234.000
58.91000 244.000
58.92500 237.000
58.94000 226.000
58.95500 246.000
58.97000 261.000
58.98500 262.000
59.00000 238.000
59.01500 232.000
59.03000 238.000
59.04500 231.000
59.06000 262.000
59.07500 281.000
59.09000 253.000
59.10500 256.000
59.12000 270.000
59.13500 247.000
59.15000 256.000
59.16500 241.000
59.18000 234.000
59.19500 269.000
59.21000 255.000
59.22500 283.000
59.24000 237.000
59.25500 240.000
59.27000 251.000
59.28500 268.000
59.30000 259.000
59.31500 248.000
59.33000 263.000
59.34500 238.000
59.36000 226.000
59.37500 248.000
59.39000 251.000
59.40500 244.000
59.42000 260.000
59.43500 266.000
59.45000 253.000
59.46500 254.000
59.48000 261.000
59.49500 252.000
59.51000 271.000
59.52500 266.000
59.54000 225.000
59.55500 251.000
59.57000 244.000
59.58500 261.000
59.60000 264.000
59.61500 242.000
59.63000 246.000
59.64500 247.000
59.66000 258.000
59.67500 275.000
59.69000 272.000
59.70500 248.000
59.72000 247.000
59.73500 246.000
59.75000 252.000
59.76500 249.000
59.78000 249.000
59.79500 249.000
59.81000 237.000
59.82500 255.000
59.84000 256.000
59.85500 237.000
59.87000 252.000
59.88500 229.000
59.90000 248.000
59.91500 250.000
59.93000 240.000
59.94500 236.000
59.96000 267.000
59.97500 231.000
59.99000 238.000
60.00500 221.000
60.02000 232.000
60.03500 232.000
60.05000 235.000
60.06500 243.000
60.08000 245.000
60.09500 238.000
60.11000 246.000
60.12500 258.000
60.14000 252.000
60.15500 266.000
60.17000 266.000
60.18500 234.000
60.20000 222.000
60.21500 234.000
60.23000 235.000
60.24500 216.000
60.26000 210.000
60.27500 248.000
60.29000 256.000
60.30500 260.000
60.32000 234.000
60.33500 230.000
60.35000 222.000
60.36500 229.000
60.38000 244.000
60.39500 237.000
60.41000 258.000
60.42500 262.000
60.44000 236.000
60.45500 242.000
60.47000 259.000
60.48500 241.000
60.50000 258.000
60.51500 274.000
60.53000 265.000
60.54500 259.000
60.56000 282.000
60.57500 269.000
60.59000 254.000
60.60500 218.000
60.62000 214.000
60.63500 234.000
60.65000 241.000
60.66500 220.000
60.68000 224.000
60.69500 233.000
60.71000 229.000
60.72500 246.000
60.74000 234.000
60.75500 227.000
60.77000 242.000
60.78500 233.000
60.80000 223.000
60.81500 233.000
60.83000 226.000
60.84500 240.000
60.86000 234.000
60.87500 237.000
60.89000 242.000
60.90500 236.000
60.92000 260.000
60.93500 242.000
60.95000 228.000
60.96500 235.000
60.98000 248.000
60.99500 238.000
61.01000 247.000
61.02500 223.000
61.04000 231.000
61.05500 232.000
61.07000 241.000
61.08500 243.000
61.10000 247.000
61.11500 249.000
61.13000 267.000
61.14500 258.000
61.16000 254.000
61.17500 254.000
61.19000 240.000
61.20500 240.000
61.22000 226.000
61.23500 233.000
61.25000 239.000
61.26500 258.000
61.28000 252.000
61.29500 235.000
61.31000 233.000
61.32500 243.000
61.34000 230.000
61.35500 236.000
61.37000 236.000
61.38500 233.000
61.40000 258.000
61.41500 237.000
61.43000 243.000
61.44500 233.000
61.46000 231.000
61.47500 231.000
61.49000 251.000
61.50500 243.000
61.52000 233.000
61.53500 220.000
61.55000 229.000
61.56500 219.000
61.58000 230.000
61.59500 225.000
61.61000 221.000
61.62500 226.000
61.64000 232.000
61.65500 234.000
61.67000 201.000
61.68500 206.000
61.70000 211.000
61.71500 243.000
61.73000 223.000
61.74500 208.000
61.76000 205.000
61.77500 220.000
61.79000 230.000
61.80500 225.000
61.82000 253.000
61.83500 218.000
61.85000 203.000
61.86500 213.000
61.88000 241.000
61.89500 219.000
61.91000 229.000
61.92500 230.000
61.94000 232.000
61.95500 202.000
61.97000 209.000
61.98500 216.000
