2.0 35.0
2.015 26.0
2.03 30.0
2.045 29.0
2.06 24.0
2.075 27.0
2.09 25.0
2.105 29.0
2.12 29.0
2.135 26.0
2.15 36.0
2.165 22.0
2.18 32.0
2.195 32.0
2.21 39.0
2.225 33.0
2.24 29.0
2.255 31.0
2.27 40.0
2.285 34.0
2.3 30.0
2.315 28.0
2.33 24.0
2.345 26.0
2.36 24.0
2.375 21.0
2.39 30.0
2.405 41.0
2.42 24.0
2.435 26.0
2.45 21.0
2.465 25.0
2.48 34.0
2.495 35.0
2.51 33.0
2.525 26.0
2.54 25.0
2.555 34.0
2.57 32.0
2.585 30.0
2.6 38.0
2.615 27.0
2.63 24.0
2.645 31.0
2.66 34.0
2.675 37.0
2.69 50.0
2.705 81.0
2.72 120.0
2.735 166.0
2.75 179.0
2.765 246.0
2.78 322.0
2.795 449.0
2.81 623.0
2.825 798.0
2.84 970.0
2.855 1196.0
2.87 1463.0
2.885 1720.0
2.9 1798.0
2.915 1922.0
2.93 2002.0
2.945 1956.0
2.96 2080.0
2.975 2043.0
2.99 2073.0
3.005 2032.0
3.02 2107.0
3.035 2053.0
3.05 2117.0
3.065 2063.0
3.08 2056.0
3.095 2089.0
3.11 2107.0
3.125 2126.0
3.14 2106.0
3.155 2023.0
3.17 2040.0
3.185 2196.0
3.2 2193.0
3.215 2201.0
3.23 2188.0
3.245 2189.0
3.26 2203.0
3.275 2161.0
3.29 2163.0
3.305 2166.0
3.32 2259.0
3.335 2246.0
3.35 2244.0
3.365 2229.0
3.38 2223.0
3.395 2151.0
3.41 2215.0
3.425 2239.0
3.44 2299.0
3.455 2310.0
3.47 2344.0
3.485 2353.0
3.5 2367.0
3.515 2364.0
3.53 2320.0
3.545 2324.0
3.56 2355.0
3.575 2352.0
3.59 2333.0
3.605 2369.0
3.62 2363.0
3.635 2425.0
3.65 2434.0
3.665 2385.0
3.68 2446.0
3.695 2475.0
3.71 2470.0
3.725 2470.0
3.74 2413.0
3.755 2495.0
3.77 2512.0
3.785 2486.0
3.8 2436.0
3.815 2438.0
3.83 2458.0
3.845 2427.0
3.86 2444.0
3.875 2424.0
3.89 2433.0
3.905 2485.0
3.92 2526.0
3.935 2566.0
3.95 2555.0
3.965 2528.0
3.98 2593.0
3.995 2603.0
4.01 2544.0
4.025 2584.0
4.04 2634.0
4.055 2598.0
4.07 2673.0
4.085 2677.0
4.1 2614.0
4.115 2625.0
4.13 2646.0
4.145 2614.0
4.16 2700.0
4.175 2707.0
4.19 2607.0
4.205 2667.0
4.22 2724.0
4.235 2737.0
4.25 2652.0
4.265 2653.0
4.28 2637.0
4.295 2695.0
4.31 2722.0
4.325 2773.0
4.34 2790.0
4.355 2779.0
4.37 2696.0
4.385 2750.0
4.4 2874.0
4.415 2790.0
4.43 2772.0
4.445 2720.0
4.46 2752.0
4.475 2754.0
4.49 2842.0
4.505 2796.0
4.52 2811.0
4.535 2871.0
4.55 2843.0
4.565 2782.0
4.58 2765.0
4.595 2856.0
4.61 2850.0
4.625 2810.0
4.64 2768.0
4.655 2833.0
4.67 2919.0
4.685 2852.0
4.7 2951.0
4.715 2980.0
4.73 2736.0
4.745 2891.0
4.76 2884.0
4.775 2937.0
4.79 2979.0
4.805 2952.0
4.82 2899.0
4.835 2947.0
4.85 2996.0
4.865 2915.0
4.88 2962.0
4.895 2976.0
4.91 3000.0
4.925 2920.0
4.94 2922.0
4.955 2980.0
4.97 2925.0
4.985 3041.0
5.0 2998.0
5.015 3028.0
5.03 3061.0
5.045 3026.0
5.06 3020.0
5.075 2928.0
5.09 2980.0
5.105 2963.0
5.12 3051.0
5.135 3084.0
5.15 3114.0
5.165 3118.0
5.18 3112.0
5.195 3070.0
5.21 3133.0
5.225 3088.0
5.24 3014.0
5.255 3038.0
5.27 3024.0
5.285 2987.0
5.3 2992.0
5.315 3180.0
5.33 3032.0
5.345 3091.0
5.36 3151.0
5.375 3178.0
5.39 3183.0
5.405 3191.0
5.42 3186.0
5.435 3130.0
5.45 3020.0
5.465 3126.0
5.48 3186.0
5.495 3148.0
5.51 3210.0
5.525 3201.0
5.54 3153.0
5.555 3190.0
5.57 3178.0
5.585 3236.0
5.6 3219.0
5.615 3238.0
5.63 3169.0
5.645 3184.0
5.66 3210.0
5.675 3153.0
5.69 3184.0
5.705 3230.0
5.72 3217.0
5.735 3215.0
5.75 3214.0
5.765 3252.0
5.78 3356.0
5.795 3314.0
5.81 3265.0
5.825 3255.0
5.84 3314.0
5.855 3320.0
5.87 3230.0
5.885 3292.0
5.9 3318.0
5.915 3307.0
5.93 3319.0
5.945 3297.0
5.96 3328.0
5.975 3253.0
5.99 3349.0
6.005 3241.0
6.02 3314.0
6.035 3385.0
6.05 3331.0
6.065 3292.0
6.08 3348.0
6.095 3368.0
6.11 3434.0
6.125 3324.0
6.14 3296.0
6.155 3345.0
6.17 3440.0
6.185 3337.0
6.2 3264.0
6.215 3382.0
6.23 3376.0
6.245 3382.0
6.26 3309.0
6.275 3405.0
6.29 3376.0
6.305 3386.0
6.32 3442.0
6.335 3423.0
6.35 3428.0
6.365 3411.0
6.38 3420.0
6.395 3504.0
6.41 3414.0
6.425 3407.0
6.44 3451.0
6.455 3443.0
6.47 3423.0
6.485 3437.0
6.5 3284.0
6.515 3369.0
6.53 3515.0
6.545 3550.0
6.56 3435.0
6.575 3416.0
6.59 3549.0
6.605 3475.0
6.62 3444.0
6.635 3434.0
6.65 3469.0
6.665 3564.0
6.68 3575.0
6.695 3482.0
6.71 3473.0
6.725 3565.0
6.74 3500.0
6.755 3579.0
6.77 3542.0
6.785 3570.0
6.8 3485.0
6.815 3472.0
6.83 3507.0
6.845 3514.0
6.86 3505.0
6.875 3522.0
6.89 3585.0
6.905 3525.0
6.92 3534.0
6.935 3653.0
6.95 3598.0
6.965 3549.0
6.98 3592.0
6.995 3678.0
7.01 3665.0
7.025 3650.0
7.04 3583.0
7.055 3616.0
7.07 3623.0
7.085 3626.0
7.1 3570.0
7.115 3720.0
7.13 3633.0
7.145 3699.0
7.16 3581.0
7.175 3650.0
7.19 3592.0
7.205 3606.0
7.22 3671.0
7.235 3603.0
7.25 3660.0
7.265 3720.0
7.28 3638.0
7.295 3688.0
7.31 3789.0
7.325 3772.0
7.34 3741.0
7.355 3792.0
7.37 3665.0
7.385 3759.0
7.4 3749.0
7.415 3736.0
7.43 3820.0
7.445 3726.0
7.46 3859.0
7.475 3907.0
7.49 3839.0
7.505 3801.0
7.52 3821.0
7.535 3959.0
7.55 3999.0
7.565 4068.0
7.58 4132.0
7.595 4178.0
7.61 4294.0
7.625 4390.0
7.64 4440.0
7.655 4588.0
7.67 4657.0
7.685 4732.0
7.7 4894.0
7.715 5073.0
7.73 5238.0
7.745 5434.0
7.76 5842.0
7.775 6051.0
7.79 6234.0
7.805 6706.0
7.82 7107.0
7.835 7540.0
7.85 8118.0
7.865 8746.0
7.88 9487.0
7.895 10413.0
7.91 11337.0
7.925 12768.0
7.94 14042.0
7.955 15216.0
7.97 15426.0
7.985 14147.0
8.0 11733.0
8.015 9704.0
8.03 8294.0
8.045 7534.0
8.06 6858.0
8.075 6397.0
8.09 6044.0
8.105 5765.0
8.12 5666.0
8.135 5553.0
8.15 5208.0
8.165 5171.0
8.18 5018.0
8.195 4889.0
8.21 4832.0
8.225 4898.0
8.24 4830.0
8.255 4726.0
8.27 4608.0
8.285 4609.0
8.3 4590.0
8.315 4511.0
8.33 4466.0
8.345 4469.0
8.36 4422.0
8.375 4307.0
8.39 4461.0
8.405 4479.0
8.42 4403.0
8.435 4381.0
8.45 4360.0
8.465 4255.0
8.48 4345.0
8.495 4351.0
8.51 4295.0
8.525 4330.0
8.54 4237.0
8.555 4141.0
8.57 4314.0
8.585 4361.0
8.6 4346.0
8.615 4295.0
8.63 4244.0
8.645 4287.0
8.66 4285.0
8.675 4247.0
8.69 4138.0
8.705 4132.0
8.72 4208.0
8.735 4187.0
8.75 4188.0
8.765 4237.0
8.78 4226.0
8.795 4289.0
8.81 4187.0
8.825 4253.0
8.84 4256.0
8.855 4199.0
8.87 4172.0
8.885 4228.0
8.9 4228.0
8.915 4224.0
8.93 4250.0
8.945 4207.0
8.96 4193.0
8.975 4387.0
8.99 4320.0
9.005 4245.0
9.02 4238.0
9.035 4191.0
9.05 4281.0
9.065 4176.0
9.08 4226.0
9.095 4179.0
9.11 4213.0
9.125 4139.0
9.14 4169.0
9.155 4260.0
9.17 4232.0
9.185 4245.0
9.2 4284.0
9.215 4292.0
9.23 4241.0
9.245 4285.0
9.26 4265.0
9.275 4372.0
9.29 4301.0
9.305 4293.0
9.32 4314.0
9.335 4269.0
9.35 4292.0
9.365 4246.0
9.38 4270.0
9.395 4352.0
9.41 4353.0
9.425 4204.0
9.44 4286.0
9.455 4328.0
9.47 4296.0
9.485 4319.0
9.5 4332.0
9.515 4366.0
9.53 4387.0
9.545 4522.0
9.56 4409.0
9.575 4476.0
9.59 4472.0
9.605 4471.0
9.62 4515.0
9.635 4435.0
9.65 4503.0
9.665 4546.0
9.68 4516.0
9.695 4543.0
9.71 4642.0
9.725 4708.0
9.74 4749.0
9.755 4746.0
9.77 4752.0
9.785 4853.0
9.8 4999.0
9.815 5138.0
9.83 5092.0
9.845 5147.0
9.86 5284.0
9.875 5326.0
9.89 5593.0
9.905 5739.0
9.92 5873.0
9.935 6042.0
9.95 6196.0
9.965 6373.0
9.98 6656.0
9.995 6906.0
10.01 7160.0
10.025 7301.0
10.04 7642.0
10.055 7731.0
10.07 7758.0
10.085 8004.0
10.1 7763.0
10.115 7718.0
10.13 7464.0
10.145 7358.0
10.16 7098.0
10.175 6728.0
10.19 6484.0
10.205 6093.0
10.22 5856.0
10.235 5702.0
10.25 5542.0
10.265 5258.0
10.28 5163.0
10.295 5020.0
10.31 4793.0
10.325 4812.0
10.34 4730.0
10.355 4694.0
10.37 4541.0
10.385 4639.0
10.4 4564.0
10.415 4521.0
10.43 4400.0
10.445 4384.0
10.46 4353.0
10.475 4444.0
10.49 4344.0
10.505 4304.0
10.52 4268.0
10.535 4279.0
10.55 4247.0
10.565 4294.0
10.58 4300.0
10.595 4352.0
10.61 4242.0
10.625 4151.0
10.64 4092.0
10.655 4214.0
10.67 4213.0
10.685 4140.0
10.7 4070.0
10.715 4202.0
10.73 4187.0
10.745 4098.0
10.76 4191.0
10.775 4137.0
10.79 4095.0
10.805 4120.0
10.82 4105.0
10.835 4095.0
10.85 4096.0
10.865 3991.0
10.88 4080.0
10.895 4123.0
10.91 4026.0
10.925 4010.0
10.94 4070.0
10.955 4087.0
10.97 4149.0
10.985 4144.0
11.0 3984.0
11.015 4052.0
11.03 4098.0
11.045 4066.0
11.06 4047.0
11.075 3931.0
11.09 4105.0
11.105 4113.0
11.12 4132.0
11.135 4130.0
11.15 4126.0
11.165 4069.0
11.18 4110.0
11.195 4103.0
11.21 4036.0
11.225 4030.0
11.24 4025.0
11.255 3980.0
11.27 3988.0
11.285 4076.0
11.3 4111.0
11.315 4040.0
11.33 3980.0
11.345 3979.0
11.36 4064.0
11.375 4005.0
11.39 4011.0
11.405 4024.0
11.42 3985.0
11.435 3939.0
11.45 4000.0
11.465 4027.0
11.48 4026.0
11.495 4178.0
11.51 4127.0
11.525 4073.0
11.54 3991.0
11.555 4067.0
11.57 4046.0
11.585 4112.0
11.6 4040.0
11.615 4019.0
11.63 4023.0
11.645 3956.0
11.66 4071.0
11.675 4057.0
11.69 4027.0
11.705 4006.0
11.72 3982.0
11.735 4040.0
11.75 4003.0
11.765 4013.0
11.78 3943.0
11.795 4028.0
11.81 3982.0
11.825 4052.0
11.84 4036.0
11.855 3897.0
11.87 3936.0
11.885 4033.0
11.9 3998.0
11.915 3851.0
11.93 4029.0
11.945 3976.0
11.96 3967.0
11.975 4006.0
11.99 4034.0
12.005 3941.0
12.02 3981.0
12.035 3913.0
12.05 3862.0
12.065 3961.0
12.08 4102.0
12.095 4063.0
12.11 3968.0
12.125 3917.0
12.14 3957.0
12.155 3982.0
12.17 4025.0
12.185 3931.0
12.2 3902.0
12.215 3952.0
12.23 3900.0
12.245 3874.0
12.26 3884.0
12.275 4003.0
12.29 3892.0
12.305 4024.0
12.32 3937.0
12.335 4082.0
12.35 3912.0
12.365 3851.0
12.38 3843.0
12.395 3913.0
12.41 3878.0
12.425 3933.0
12.44 3873.0
12.455 3913.0
12.47 3937.0
12.485 3865.0
12.5 3883.0
12.515 4006.0
12.53 3942.0
12.545 4015.0
12.56 3972.0
12.575 3912.0
12.59 3967.0
12.605 3881.0
12.62 3951.0
12.635 4069.0
12.65 4022.0
12.665 3953.0
12.68 4018.0
12.695 3987.0
12.71 3962.0
12.725 3963.0
12.74 3954.0
12.755 3918.0
12.77 3837.0
12.785 3922.0
12.8 4030.0
12.815 3923.0
12.83 3929.0
12.845 3899.0
12.86 3894.0
12.875 3945.0
12.89 3949.0
12.905 3800.0
12.92 3837.0
12.935 3859.0
12.95 3849.0
12.965 3933.0
12.98 3894.0
12.995 3923.0
13.01 3966.0
13.025 3842.0
13.04 3846.0
13.055 3933.0
13.07 3953.0
13.085 3993.0
13.1 3928.0
13.115 3942.0
13.13 3979.0
13.145 3882.0
13.16 3863.0
13.175 3962.0
13.19 3920.0
13.205 3878.0
13.22 3848.0
13.235 3885.0
13.25 3840.0
13.265 3835.0
13.28 3829.0
13.295 3917.0
13.31 3791.0
13.325 3891.0
13.34 3949.0
13.355 3929.0
13.37 3964.0
13.385 3881.0
13.4 3913.0
13.415 3891.0
13.43 3929.0
13.445 3863.0
13.46 3834.0
13.475 3908.0
13.49 3969.0
13.505 3836.0
13.52 3858.0
13.535 3898.0
13.55 3803.0
13.565 3943.0
13.58 3881.0
13.595 3777.0
13.61 3845.0
13.625 3943.0
13.64 3808.0
13.655 3915.0
13.67 3838.0
13.685 3740.0
13.7 3869.0
13.715 3813.0
13.73 3938.0
13.745 3844.0
13.76 3874.0
13.775 3882.0
13.79 3910.0
13.805 3935.0
13.82 3939.0
13.835 3888.0
13.85 3959.0
13.865 3913.0
13.88 3893.0
13.895 3839.0
13.91 3804.0
13.925 3831.0
13.94 3884.0
13.955 3880.0
13.97 3879.0
13.985 3923.0
14.0 3860.0
14.015 3936.0
14.03 3975.0
14.045 3892.0
14.06 3824.0
14.075 3804.0
14.09 3816.0
14.105 3896.0
14.12 3878.0
14.135 3963.0
14.15 3973.0
14.165 3851.0
14.18 3825.0
14.195 3982.0
14.21 3852.0
14.225 3932.0
14.24 3910.0
14.255 3862.0
14.27 3861.0
14.285 3845.0
14.3 3870.0
14.315 3899.0
14.33 3831.0
14.345 3773.0
14.36 3882.0
14.375 3879.0
14.39 3903.0
14.405 3883.0
14.42 3863.0
14.435 3955.0
14.45 3860.0
14.465 3869.0
14.48 3902.0
14.495 3936.0
14.51 3863.0
14.525 3872.0
14.54 3844.0
14.555 3951.0
14.57 3952.0
14.585 3928.0
14.6 3886.0
14.615 3861.0
14.63 3916.0
14.645 3975.0
14.66 4048.0
14.675 3938.0
14.69 3945.0
14.705 3940.0
14.72 3947.0
14.735 3919.0
14.75 3922.0
14.765 3952.0
14.78 3882.0
14.795 3977.0
14.81 3958.0
14.825 3977.0
14.84 4080.0
14.855 4123.0
14.87 4055.0
14.885 4041.0
14.9 4098.0
14.915 4092.0
14.93 4183.0
14.945 4184.0
14.96 4271.0
14.975 4224.0
14.99 4363.0
15.005 4497.0
15.02 4350.0
15.035 4312.0
15.05 4376.0
15.065 4468.0
15.08 4553.0
15.095 4692.0
15.11 4820.0
15.125 4801.0
15.14 4654.0
15.155 4768.0
15.17 4790.0
15.185 4735.0
15.2 4705.0
15.215 4804.0
15.23 4712.0
15.245 4608.0
15.26 4552.0
15.275 4488.0
15.29 4424.0
15.305 4270.0
15.32 4471.0
15.335 4391.0
15.35 4260.0
15.365 4097.0
15.38 4144.0
15.395 4197.0
15.41 4128.0
15.425 4067.0
15.44 4073.0
15.455 3958.0
15.47 4113.0
15.485 4105.0
15.5 3978.0
15.515 3962.0
15.53 3903.0
15.545 3879.0
15.56 3986.0
15.575 3862.0
15.59 3976.0
15.605 3910.0
15.62 3950.0
15.635 3968.0
15.65 3995.0
15.665 3906.0
15.68 3832.0
15.695 3972.0
15.71 3952.0
15.725 3870.0
15.74 3909.0
15.755 3782.0
15.77 3819.0
15.785 3943.0
15.8 3880.0
15.815 3846.0
15.83 3912.0
15.845 3844.0
15.86 3874.0
15.875 3792.0
15.89 3842.0
15.905 3945.0
15.92 3909.0
15.935 4001.0
15.95 3920.0
15.965 3849.0
15.98 3993.0
15.995 3976.0
16.01 4041.0
16.025 3913.0
16.04 3911.0
16.055 3845.0
16.07 3891.0
16.085 3956.0
16.1 3941.0
16.115 3803.0
16.13 3848.0
16.145 3813.0
16.16 3821.0
16.175 3905.0
16.19 3883.0
16.205 3857.0
16.22 3830.0
16.235 3879.0
16.25 3870.0
16.265 3916.0
16.28 3793.0
16.295 3911.0
16.31 3861.0
16.325 3865.0
16.34 3806.0
16.355 3818.0
16.37 3820.0
16.385 3840.0
16.4 3810.0
16.415 3796.0
16.43 3875.0
16.445 3796.0
16.46 3855.0
16.475 3934.0
16.49 3975.0
16.505 3812.0
16.52 3908.0
16.535 3844.0
16.55 3805.0
16.565 3841.0
16.58 4008.0
16.595 3855.0
16.61 3807.0
16.625 3844.0
16.64 3738.0
16.655 3861.0
16.67 3799.0
16.685 3865.0
16.7 3824.0
16.715 3793.0
16.73 3866.0
16.745 3906.0
16.76 3940.0
16.775 3855.0
16.79 3826.0
16.805 3878.0
16.82 3912.0
16.835 3866.0
16.85 3900.0
16.865 3821.0
16.88 3741.0
16.895 3841.0
16.91 3880.0
16.925 3849.0
16.94 3819.0
16.955 3853.0
16.97 3866.0
16.985 3968.0
17.0 3866.0
17.015 3930.0
17.03 3923.0
17.045 3944.0
17.06 3902.0
17.075 3881.0
17.09 3902.0
17.105 3776.0
17.12 3907.0
17.135 3957.0
17.15 3890.0
17.165 3873.0
17.18 3988.0
17.195 3969.0
17.21 3853.0
17.225 3869.0
17.24 3800.0
17.255 3989.0
17.27 3866.0
17.285 3874.0
17.3 3950.0
17.315 3926.0
17.33 3823.0
17.345 3809.0
17.36 3917.0
17.375 3892.0
17.39 3898.0
17.405 3899.0
17.42 3811.0
17.435 3906.0
17.45 3858.0
17.465 3818.0
17.48 3980.0
17.495 3899.0
17.51 4015.0
17.525 4024.0
17.54 3948.0
17.555 3952.0
17.57 3835.0
17.585 4025.0
17.6 3950.0
17.615 3842.0
17.63 3894.0
17.645 3897.0
17.66 3995.0
17.675 3961.0
17.69 3899.0
17.705 3942.0
17.72 3942.0
17.735 3927.0
17.75 3984.0
17.765 3952.0
17.78 3906.0
17.795 4009.0
17.81 3948.0
17.825 3963.0
17.84 4036.0
17.855 3923.0
17.87 3868.0
17.885 4006.0
17.9 3937.0
17.915 3846.0
17.93 3915.0
17.945 3862.0
17.96 3896.0
17.975 4044.0
17.99 4008.0
18.005 4042.0
18.02 3966.0
18.035 3960.0
18.05 3924.0
18.065 3959.0
18.08 4018.0
18.095 3992.0
18.11 4019.0
18.125 4028.0
18.14 4013.0
18.155 4005.0
18.17 4096.0
18.185 4100.0
18.2 4048.0
18.215 4068.0
18.23 4168.0
18.245 4071.0
18.26 4073.0
18.275 4025.0
18.29 3999.0
18.305 4151.0
18.32 4205.0
18.335 4194.0
18.35 4271.0
18.365 4339.0
18.38 4408.0
18.395 4358.0
18.41 4372.0
18.425 4398.0
18.44 4500.0
18.455 4558.0
18.47 4614.0
18.485 4647.0
18.5 4647.0
18.515 4916.0
18.53 4862.0
18.545 4997.0
18.56 5133.0
18.575 5269.0
18.59 5395.0
18.605 5483.0
18.62 5514.0
18.635 5454.0
18.65 5490.0
18.665 5291.0
18.68 5366.0
18.695 5334.0
18.71 5212.0
18.725 5215.0
18.74 5079.0
18.755 5024.0
18.77 4911.0
18.785 4858.0
18.8 4740.0
18.815 4631.0
18.83 4489.0
18.845 4547.0
18.86 4360.0
18.875 4369.0
18.89 4409.0
18.905 4278.0
18.92 4319.0
18.935 4364.0
18.95 4184.0
18.965 4188.0
18.98 4259.0
18.995 4302.0
19.01 4210.0
19.025 4236.0
19.04 4133.0
19.055 4039.0
19.07 4123.0
19.085 4180.0
19.1 4120.0
19.115 4057.0
19.13 4090.0
19.145 4095.0
19.16 4110.0
19.175 4080.0
19.19 4124.0
19.205 4050.0
19.22 4083.0
19.235 4055.0
19.25 4092.0
19.265 4077.0
19.28 4005.0
19.295 4054.0
19.31 4099.0
19.325 4070.0
19.34 4136.0
19.355 4115.0
19.37 4050.0
19.385 4133.0
19.4 4086.0
19.415 4012.0
19.43 4039.0
19.445 4034.0
19.46 4065.0
19.475 4152.0
19.49 4071.0
19.505 4065.0
19.52 4138.0
19.535 4028.0
19.55 4071.0
19.565 4070.0
19.58 4066.0
19.595 4085.0
19.61 4118.0
19.625 4095.0
19.64 4071.0
19.655 4188.0
19.67 4166.0
19.685 4083.0
19.7 4042.0
19.715 4139.0
19.73 4159.0
19.745 4106.0
19.76 4160.0
19.775 4140.0
19.79 4062.0
19.805 4087.0
19.82 4121.0
19.835 4248.0
19.85 4060.0
19.865 4099.0
19.88 4053.0
19.895 4053.0
19.91 4160.0
19.925 4151.0
19.94 4105.0
19.955 4144.0
19.97 4123.0
19.985 4188.0
20.0 4154.0
20.015 4185.0
20.03 4203.0
20.045 4200.0
20.06 4103.0
20.075 4168.0
20.09 4176.0
20.105 4179.0
20.12 4223.0
20.135 4140.0
20.15 4168.0
20.165 4136.0
20.18 4277.0
20.195 4256.0
20.21 4189.0
20.225 4175.0
20.24 4155.0
20.255 4156.0
20.27 4183.0
20.285 4221.0
20.3 4253.0
20.315 4224.0
20.33 4165.0
20.345 4190.0
20.36 4265.0
20.375 4277.0
20.39 4334.0
20.405 4275.0
20.42 4112.0
20.435 4273.0
20.45 4189.0
20.465 4236.0
20.48 4356.0
20.495 4381.0
20.51 4331.0
20.525 4347.0
20.54 4287.0
20.555 4304.0
20.57 4260.0
20.585 4335.0
20.6 4369.0
20.615 4239.0
20.63 4240.0
20.645 4222.0
20.66 4193.0
20.675 4305.0
20.69 4294.0
20.705 4279.0
20.72 4255.0
20.735 4313.0
20.75 4306.0
20.765 4147.0
20.78 4214.0
20.795 4352.0
20.81 4209.0
20.825 4400.0
20.84 4385.0
20.855 4298.0
20.87 4331.0
20.885 4241.0
20.9 4375.0
20.915 4373.0
20.93 4362.0
20.945 4319.0
20.96 4258.0
20.975 4275.0
20.99 4335.0
21.005 4387.0
21.02 4244.0
21.035 4353.0
21.05 4356.0
21.065 4423.0
21.08 4377.0
21.095 4478.0
21.11 4421.0
21.125 4435.0
21.14 4369.0
21.155 4411.0
21.17 4413.0
21.185 4307.0
21.2 4451.0
21.215 4505.0
21.23 4574.0
21.245 4451.0
21.26 4507.0
21.275 4517.0
21.29 4471.0
21.305 4475.0
21.32 4578.0
21.335 4508.0
21.35 4522.0
21.365 4459.0
21.38 4518.0
21.395 4561.0
21.41 4536.0
21.425 4411.0
21.44 4433.0
21.455 4410.0
21.47 4433.0
21.485 4647.0
21.5 4570.0
21.515 4601.0
21.53 4573.0
21.545 4664.0
21.56 4515.0
21.575 4651.0
21.59 4691.0
21.605 4630.0
21.62 4679.0
21.635 4614.0
21.65 4769.0
21.665 4713.0
21.68 4710.0
21.695 4653.0
21.71 4656.0
21.725 4781.0
21.74 4873.0
21.755 4858.0
21.77 4821.0
21.785 4766.0
21.8 4908.0
21.815 5017.0
21.83 5051.0
21.845 5307.0
21.86 5195.0
21.875 5216.0
21.89 5392.0
21.905 5434.0
21.92 5530.0
21.935 5450.0
21.95 5385.0
21.965 5465.0
21.98 5466.0
21.995 5620.0
22.01 5728.0
22.025 5741.0
22.04 5684.0
22.055 5787.0
22.07 5792.0
22.085 5800.0
22.1 5914.0
22.115 5759.0
22.13 5807.0
22.145 5759.0
22.16 5520.0
22.175 5656.0
22.19 5491.0
22.205 5425.0
22.22 5394.0
22.235 5511.0
22.25 5442.0
22.265 5388.0
22.28 5298.0
22.295 5183.0
22.31 5165.0
22.325 5275.0
22.34 5298.0
22.355 5182.0
22.37 5176.0
22.385 5109.0
22.4 5075.0
22.415 5110.0
22.43 5067.0
22.445 5020.0
22.46 5111.0
22.475 5117.0
22.49 5147.0
22.505 5248.0
22.52 5169.0
22.535 5123.0
22.55 5135.0
22.565 5313.0
22.58 5330.0
22.595 5410.0
22.61 5293.0
22.625 5390.0
22.64 5357.0
22.655 5433.0
22.67 5542.0
22.685 5567.0
22.7 5622.0
22.715 5814.0
22.73 5873.0
22.745 5828.0
22.76 6077.0
22.775 6145.0
22.79 6124.0
22.805 6343.0
22.82 6492.0
22.835 6490.0
22.85 6572.0
22.865 6568.0
22.88 6641.0
22.895 6827.0
22.91 6923.0
22.925 6932.0
22.94 6896.0
22.955 6884.0
22.97 6960.0
22.985 6956.0
23.0 6939.0
23.015 6889.0
23.03 6719.0
23.045 6927.0
23.06 6799.0
23.075 6531.0
23.09 6567.0
23.105 6311.0
23.12 6318.0
23.135 6279.0
23.15 6179.0
23.165 6177.0
23.18 6133.0
23.195 6049.0
23.21 5879.0
23.225 5933.0
23.24 5624.0
23.255 5661.0
23.27 5684.0
23.285 5612.0
23.3 5638.0
23.315 5600.0
23.33 5476.0
23.345 5460.0
23.36 5550.0
23.375 5456.0
23.39 5509.0
23.405 5401.0
23.42 5413.0
23.435 5410.0
23.45 5348.0
23.465 5206.0
23.48 5387.0
23.495 5387.0
23.51 5303.0
23.525 5225.0
23.54 5238.0
23.555 5318.0
23.57 5302.0
23.585 5350.0
23.6 5193.0
23.615 5201.0
23.63 5122.0
23.645 5147.0
23.66 5213.0
23.675 5234.0
23.69 5205.0
23.705 5154.0
23.72 5179.0
23.735 5284.0
23.75 5192.0
23.765 5179.0
23.78 5208.0
23.795 5164.0
23.81 5123.0
23.825 5272.0
23.84 5289.0
23.855 5164.0
23.87 5155.0
23.885 5230.0
23.9 5267.0
23.915 5290.0
23.93 5303.0
23.945 5289.0
23.96 5339.0
23.975 5371.0
23.99 5410.0
24.005 5435.0
24.02 5452.0
24.035 5684.0
24.05 5688.0
24.065 5701.0
24.08 5762.0
24.095 5606.0
24.11 5558.0
24.125 5514.0
24.14 5399.0
24.155 5432.0
24.17 5438.0
24.185 5417.0
24.2 5386.0
24.215 5518.0
24.23 5547.0
24.245 5559.0
24.26 5399.0
24.275 5580.0
24.29 5756.0
24.305 5801.0
24.32 5775.0
24.335 5784.0
24.35 5815.0
24.365 5756.0
24.38 5855.0
24.395 5887.0
24.41 5926.0
24.425 6051.0
24.44 5973.0
24.455 5891.0
24.47 6052.0
24.485 6081.0
24.5 6105.0
24.515 6015.0
24.53 6113.0
24.545 6112.0
24.56 6214.0
24.575 6018.0
24.59 6202.0
24.605 6254.0
24.62 6281.0
24.635 6294.0
24.65 6356.0
24.665 6200.0
24.68 6227.0
24.695 6403.0
24.71 6216.0
24.725 6253.0
24.74 6176.0
24.755 6096.0
24.77 6059.0
24.785 6200.0
24.8 6139.0
24.815 6056.0
24.83 5997.0
24.845 6045.0
24.86 5995.0
24.875 6044.0
24.89 6119.0
24.905 6031.0
24.92 5961.0
24.935 6122.0
24.95 5869.0
24.965 5967.0
24.98 6099.0
24.995 6076.0
25.01 6108.0
25.025 6040.0
25.04 5998.0
25.055 5994.0
25.07 6122.0
25.085 6088.0
25.1 6095.0
25.115 6031.0
25.13 5955.0
25.145 6030.0
25.16 5942.0
25.175 5912.0
25.19 6063.0
25.205 6080.0
25.22 6165.0
25.235 6173.0
25.25 6074.0
25.265 6036.0
25.28 6076.0
25.295 6287.0
25.31 6227.0
25.325 6218.0
25.34 6291.0
25.355 6269.0
25.37 6291.0
25.385 6489.0
25.4 6556.0
25.415 6461.0
25.43 6506.0
25.445 6576.0
25.46 6699.0
25.475 6652.0
25.49 6769.0
25.505 6760.0
25.52 6806.0
25.535 6851.0
25.55 6916.0
25.565 7017.0
25.58 6930.0
25.595 7022.0
25.61 6835.0
25.625 7045.0
25.64 6945.0
25.655 7011.0
25.67 7106.0
25.685 7071.0
25.7 6969.0
25.715 6997.0
25.73 7121.0
25.745 7087.0
25.76 7017.0
25.775 7036.0
25.79 7073.0
25.805 7080.0
25.82 7128.0
25.835 7014.0
25.85 6944.0
25.865 6718.0
25.88 6768.0
25.895 6705.0
25.91 6739.0
25.925 6734.0
25.94 6672.0
25.955 6630.0
25.97 6663.0
25.985 6691.0
26.0 6507.0
26.015 6535.0
26.03 6431.0
26.045 6424.0
26.06 6554.0
26.075 6553.0
26.09 6681.0
26.105 6536.0
26.12 6536.0
26.135 6586.0
26.15 6644.0
26.165 6477.0
26.18 6473.0
26.195 6642.0
26.21 6517.0
26.225 6693.0
26.24 6530.0
26.255 6644.0
26.27 6564.0
26.285 6552.0
26.3 6662.0
26.315 6845.0
26.33 6788.0
26.345 6678.0
26.36 6697.0
26.375 6593.0
26.39 6719.0
26.405 6764.0
26.42 6753.0
26.435 6866.0
26.45 6717.0
26.465 6803.0
26.48 6846.0
26.495 6945.0
26.51 6948.0
26.525 6836.0
26.54 6795.0
26.555 6861.0
26.57 6934.0
26.585 7046.0
26.6 7011.0
26.615 6828.0
26.63 6828.0
26.645 6976.0
26.66 7141.0
26.675 7033.0
26.69 7088.0
26.705 6994.0
26.72 7089.0
26.735 7164.0
26.75 7147.0
26.765 7149.0
26.78 7066.0
26.795 7287.0
26.81 7324.0
26.825 7371.0
26.84 7297.0
26.855 7297.0
26.87 7256.0
26.885 7344.0
26.9 7362.0
26.915 7277.0
26.93 7453.0
26.945 7375.0
26.96 7538.0
26.975 7671.0
26.99 7832.0
27.005 7683.0
27.02 7697.0
27.035 7775.0
27.05 7857.0
27.065 7653.0
27.08 7882.0
27.095 8092.0
27.11 8138.0
27.125 8062.0
27.14 8126.0
27.155 8307.0
27.17 8428.0
27.185 8364.0
27.2 8361.0
27.215 8595.0
27.23 8572.0
27.245 8639.0
27.26 8626.0
27.275 8824.0
27.29 9002.0
27.305 9077.0
27.32 9244.0
27.335 9283.0
27.35 9756.0
27.365 9685.0
27.38 9923.0
27.395 10137.0
27.41 10319.0
27.425 10668.0
27.44 10926.0
27.455 11234.0
27.47 11564.0
27.485 12312.0
27.5 12688.0
27.515 13474.0
27.53 14021.0
27.545 14777.0
27.56 15837.0
27.575 16814.0
27.59 18169.0
27.605 19049.0
27.62 20339.0
27.635 22079.0
27.65 23621.0
27.665 25057.0
27.68 26460.0
27.695 27846.0
27.71 28801.0
27.725 29771.0
27.74 30047.0
27.755 30109.0
27.77 29560.0
27.785 29162.0
27.8 28605.0
27.815 27561.0
27.83 26022.0
27.845 25332.0
27.86 24581.0
27.875 23725.0
27.89 23641.0
27.905 23065.0
27.92 22530.0
27.935 22334.0
27.95 21829.0
27.965 21333.0
27.98 21411.0
27.995 21456.0
28.01 20780.0
28.025 20211.0
28.04 19817.0
28.055 19097.0
28.07 18366.0
28.085 18184.0
28.1 17644.0
28.115 16898.0
28.13 16379.0
28.145 16035.0
28.16 15773.0
28.175 15505.0
28.19 15286.0
28.205 14742.0
28.22 14541.0
28.235 14191.0
28.25 13761.0
28.265 13426.0
28.28 13123.0
28.295 12928.0
28.31 12600.0
28.325 12454.0
28.34 12005.0
28.355 11708.0
28.37 11394.0
28.385 11413.0
28.4 11199.0
28.415 10801.0
28.43 10590.0
28.445 10319.0
28.46 10319.0
28.475 10088.0
28.49 10043.0
28.505 9710.0
28.52 9482.0
28.535 9423.0
28.55 9276.0
28.565 8899.0
28.58 8890.0
28.595 8799.0
28.61 8870.0
28.625 8635.0
28.64 8415.0
28.655 8486.0
28.67 8439.0
28.685 8335.0
28.7 8233.0
28.715 8272.0
28.73 8161.0
28.745 7836.0
28.76 7939.0
28.775 7873.0
28.79 7683.0
28.805 7708.0
28.82 7699.0
28.835 7544.0
28.85 7541.0
28.865 7461.0
28.88 7393.0
28.895 7475.0
28.91 7341.0
28.925 7351.0
28.94 7467.0
28.955 7460.0
28.97 7390.0
28.985 7333.0
29.0 7439.0
29.015 7398.0
29.03 7458.0
29.045 7439.0
29.06 7662.0
29.075 7572.0
29.09 7673.0
29.105 7620.0
29.12 7774.0
29.135 7817.0
29.15 8126.0
29.165 8012.0
29.18 7888.0
29.195 7778.0
29.21 7512.0
29.225 7320.0
29.24 7107.0
29.255 6907.0
29.27 6793.0
29.285 6589.0
29.3 6569.0
29.315 6527.0
29.33 6350.0
29.345 6347.0
29.36 6266.0
29.375 6139.0
29.39 6300.0
29.405 6429.0
29.42 6255.0
29.435 6202.0
29.45 6063.0
29.465 6027.0
29.48 6112.0
29.495 6185.0
29.51 6160.0
29.525 6105.0
29.54 5979.0
29.555 6010.0
29.57 6091.0
29.585 6120.0
29.6 6012.0
29.615 5943.0
29.63 6094.0
29.645 5998.0
29.66 6148.0
29.675 6157.0
29.69 6180.0
29.705 6242.0
29.72 6206.0
29.735 6171.0
29.75 6221.0
29.765 6212.0
29.78 6179.0
29.795 6198.0
29.81 6092.0
29.825 6231.0
29.84 6184.0
29.855 6071.0
29.87 6030.0
29.885 6094.0
29.9 6064.0
29.915 6017.0
29.93 5975.0
29.945 5913.0
29.96 5953.0
29.975 5856.0
29.99 6056.0
30.005 5850.0
30.02 5810.0
30.035 5926.0
30.05 5788.0
30.065 5747.0
30.08 5876.0
30.095 5922.0
30.11 5847.0
30.125 5984.0
30.14 5970.0
30.155 6077.0
30.17 6139.0
30.185 6039.0
30.2 6082.0
30.215 6217.0
30.23 6150.0
30.245 6195.0
30.26 6125.0
30.275 6377.0
30.29 6269.0
30.305 6356.0
30.32 6299.0
30.335 6374.0
30.35 6460.0
30.365 6381.0
30.38 6350.0
30.395 6381.0
30.41 6433.0
30.425 6411.0
30.44 6433.0
30.455 6314.0
30.47 6366.0
30.485 6456.0
30.5 6402.0
30.515 6454.0
30.53 6441.0
30.545 6439.0
30.56 6368.0
30.575 6242.0
30.59 6282.0
30.605 6226.0
30.62 6224.0
30.635 6244.0
30.65 6197.0
30.665 6309.0
30.68 6175.0
30.695 6234.0
30.71 6101.0
30.725 6125.0
30.74 6161.0
30.755 5861.0
30.77 5912.0
30.785 5956.0
30.8 5804.0
30.815 5708.0
30.83 5723.0
30.845 5728.0
30.86 5679.0
30.875 5526.0
30.89 5618.0
30.905 5623.0
30.92 5576.0
30.935 5563.0
30.95 5284.0
30.965 5358.0
30.98 5326.0
30.995 5363.0
31.01 5368.0
31.025 5382.0
31.04 5254.0
31.055 5229.0
31.07 5198.0
31.085 5197.0
31.1 5239.0
31.115 5099.0
31.13 5089.0
31.145 5081.0
31.16 5050.0
31.175 4964.0
31.19 5037.0
31.205 5023.0
31.22 5034.0
31.235 5026.0
31.25 4978.0
31.265 4999.0
31.28 4969.0
31.295 5125.0
31.31 5140.0
31.325 5184.0
31.34 5196.0
31.355 5196.0
31.37 5135.0
31.385 5229.0
31.4 5243.0
31.415 5205.0
31.43 5157.0
31.445 5131.0
31.46 5150.0
31.475 5270.0
31.49 5209.0
31.505 5158.0
31.52 5148.0
31.535 5146.0
31.55 5118.0
31.565 5152.0
31.58 5157.0
31.595 5283.0
31.61 5142.0
31.625 5104.0
31.64 4971.0
31.655 5083.0
31.67 5124.0
31.685 5091.0
31.7 5014.0
31.715 5181.0
31.73 5112.0
31.745 5050.0
31.76 5117.0
31.775 5144.0
31.79 5116.0
31.805 5121.0
31.82 5260.0
31.835 5102.0
31.85 5121.0
31.865 5131.0
31.88 5056.0
31.895 5160.0
31.91 5138.0
31.925 5108.0
31.94 5184.0
31.955 5051.0
31.97 4967.0
31.985 5129.0
32.0 5038.0
32.015 5175.0
32.03 5050.0
32.045 4958.0
32.06 5016.0
32.075 4991.0
32.09 5035.0
32.105 5017.0
32.12 5069.0
32.135 5131.0
32.15 5177.0
32.165 5220.0
32.18 5099.0
32.195 5217.0
32.21 5183.0
32.225 5607.0
32.24 5680.0
32.255 5748.0
32.27 6024.0
32.285 6137.0
32.3 6226.0
32.315 6408.0
32.33 6343.0
32.345 6428.0
32.36 6428.0
32.375 6334.0
32.39 6421.0
32.405 6454.0
32.42 6182.0
32.435 6139.0
32.45 5813.0
32.465 5581.0
32.48 5346.0
32.495 5301.0
32.51 5080.0
32.525 5006.0
32.54 4861.0
32.555 4742.0
32.57 4691.0
32.585 4694.0
32.6 4490.0
32.615 4346.0
32.63 4419.0
32.645 4475.0
32.66 4344.0
32.675 4234.0
32.69 4279.0
32.705 4137.0
32.72 4211.0
32.735 4187.0
32.75 4103.0
32.765 4084.0
32.78 4165.0
32.795 4122.0
32.81 4015.0
32.825 4125.0
32.84 4021.0
32.855 3958.0
32.87 3984.0
32.885 4013.0
32.9 4000.0
32.915 3892.0
32.93 3990.0
32.945 3962.0
32.96 3902.0
32.975 3823.0
32.99 3864.0
33.005 3900.0
33.02 3848.0
33.035 3806.0
33.05 3721.0
33.065 3845.0
33.08 3903.0
33.095 3795.0
33.11 3829.0
33.125 3855.0
33.14 3719.0
33.155 3829.0
33.17 3793.0
33.185 3714.0
33.2 3808.0
33.215 3675.0
33.23 3698.0
33.245 3684.0
33.26 3749.0
33.275 3644.0
33.29 3713.0
33.305 3661.0
33.32 3704.0
33.335 3727.0
33.35 3667.0
33.365 3566.0
33.38 3653.0
33.395 3646.0
33.41 3660.0
33.425 3622.0
33.44 3638.0
33.455 3604.0
33.47 3659.0
33.485 3674.0
33.5 3562.0
33.515 3544.0
33.53 3617.0
33.545 3618.0
33.56 3626.0
33.575 3541.0
33.59 3624.0
33.605 3583.0
33.62 3662.0
33.635 3659.0
33.65 3676.0
33.665 3717.0
33.68 3648.0
33.695 3687.0
33.71 3655.0
33.725 3676.0
33.74 3618.0
33.755 3586.0
33.77 3516.0
33.785 3516.0
33.8 3456.0
33.815 3518.0
33.83 3587.0
33.845 3677.0
33.86 3724.0
33.875 3598.0
33.89 3612.0
33.905 3668.0
33.92 3553.0
33.935 3559.0
33.95 3573.0
33.965 3509.0
33.98 3623.0
33.995 3673.0
34.01 3628.0
34.025 3606.0
34.04 3520.0
34.055 3593.0
34.07 3685.0
34.085 3583.0
34.1 3494.0
34.115 3566.0
34.13 3592.0
34.145 3511.0
34.16 3594.0
34.175 3570.0
34.19 3512.0
34.205 3432.0
34.22 3527.0
34.235 3532.0
34.25 3543.0
34.265 3535.0
34.28 3549.0
34.295 3546.0
34.31 3560.0
34.325 3567.0
34.34 3552.0
34.355 3604.0
34.37 3569.0
34.385 3561.0
34.4 3581.0
34.415 3595.0
34.43 3580.0
34.445 3478.0
34.46 3544.0
34.475 3517.0
34.49 3588.0
34.505 3528.0
34.52 3494.0
34.535 3572.0
34.55 3511.0
34.565 3502.0
34.58 3584.0
34.595 3592.0
34.61 3567.0
34.625 3506.0
34.64 3424.0
34.655 3587.0
34.67 3665.0
34.685 3500.0
34.7 3592.0
34.715 3615.0
34.73 3597.0
34.745 3565.0
34.76 3563.0
34.775 3656.0
34.79 3644.0
34.805 3570.0
34.82 3597.0
34.835 3603.0
34.85 3634.0
34.865 3611.0
34.88 3620.0
34.895 3750.0
34.91 3701.0
34.925 3647.0
34.94 3711.0
34.955 3604.0
34.97 3624.0
34.985 3705.0
35.0 3689.0
35.015 3712.0
35.03 3799.0
35.045 3776.0
35.06 3902.0
35.075 3861.0
35.09 3940.0
35.105 3856.0
35.12 3995.0
35.135 4064.0
35.15 4015.0
35.165 4077.0
35.18 4070.0
35.195 4072.0
35.21 4127.0
35.225 4160.0
35.24 4150.0
35.255 4250.0
35.27 4319.0
35.285 4466.0
35.3 4633.0
35.315 4663.0
35.33 4725.0
35.345 4988.0
35.36 5133.0
35.375 5471.0
35.39 5705.0
35.405 6157.0
35.42 6664.0
35.435 7216.0
35.45 7507.0
35.465 7850.0
35.48 7864.0
35.495 7775.0
35.51 7583.0
35.525 7071.0
35.54 6672.0
35.555 6048.0
35.57 5704.0
35.585 5350.0
35.6 5070.0
35.615 4886.0
35.63 4635.0
35.645 4574.0
35.66 4540.0
35.675 4372.0
35.69 4317.0
35.705 4233.0
35.72 4092.0
35.735 4139.0
35.75 4039.0
35.765 3969.0
35.78 3910.0
35.795 3936.0
35.81 3956.0
35.825 3960.0
35.84 3862.0
35.855 3850.0
35.87 3829.0
35.885 3817.0
35.9 3881.0
35.915 3867.0
35.93 3844.0
35.945 3790.0
35.96 3884.0
35.975 3838.0
35.99 3864.0
36.005 3795.0
36.02 3831.0
36.035 3947.0
36.05 3912.0
36.065 3977.0
36.08 3986.0
36.095 3962.0
36.11 4063.0
36.125 4192.0
36.14 4158.0
36.155 4284.0
36.17 4234.0
36.185 4104.0
36.2 4224.0
36.215 4328.0
36.23 4230.0
36.245 4204.0
36.26 4295.0
36.275 4262.0
36.29 4315.0
36.305 4352.0
36.32 4384.0
36.335 4313.0
36.35 4377.0
36.365 4479.0
36.38 4356.0
36.395 4394.0
36.41 4483.0
36.425 4511.0
36.44 4544.0
36.455 4484.0
36.47 4416.0
36.485 4504.0
36.5 4403.0
36.515 4506.0
36.53 4607.0
36.545 4505.0
36.56 4411.0
36.575 4350.0
36.59 4396.0
36.605 4284.0
36.62 4371.0
36.635 4290.0
36.65 4333.0
36.665 4259.0
36.68 4173.0
36.695 4191.0
36.71 4172.0
36.725 4069.0
36.74 3956.0
36.755 3834.0
36.77 3775.0
36.785 3829.0
36.8 3877.0
36.815 3784.0
36.83 3728.0
36.845 3733.0
36.86 3678.0
36.875 3513.0
36.89 3727.0
36.905 3746.0
36.92 3670.0
36.935 3702.0
36.95 3640.0
36.965 3605.0
36.98 3671.0
36.995 3697.0
37.01 3722.0
37.025 3692.0
37.04 3661.0
37.055 3764.0
37.07 3751.0
37.085 3769.0
37.1 3840.0
37.115 3791.0
37.13 3764.0
37.145 3805.0
37.16 3835.0
37.175 3926.0
37.19 3913.0
37.205 3909.0
37.22 3900.0
37.235 4051.0
37.25 4020.0
37.265 4076.0
37.28 4102.0
37.295 4127.0
37.31 4135.0
37.325 4241.0
37.34 4246.0
37.355 4297.0
37.37 4243.0
37.385 4256.0
37.4 4207.0
37.415 4118.0
37.43 4232.0
37.445 4249.0
37.46 4177.0
37.475 4208.0
37.49 4209.0
37.505 4213.0
37.52 4186.0
37.535 4161.0
37.55 4012.0
37.565 4039.0
37.58 4010.0
37.595 4188.0
37.61 4064.0
37.625 3935.0
37.64 4035.0
37.655 4054.0
37.67 3932.0
37.685 3922.0
37.7 3976.0
37.715 4107.0
37.73 4034.0
37.745 4046.0
37.76 4020.0
37.775 3988.0
37.79 3970.0
37.805 3971.0
37.82 3992.0
37.835 3958.0
37.85 3947.0
37.865 3844.0
37.88 3864.0
37.895 3907.0
37.91 3765.0
37.925 3795.0
37.94 3827.0
37.955 3842.0
37.97 3741.0
37.985 3711.0
38.0 3767.0
38.015 3930.0
38.03 3761.0
38.045 3785.0
38.06 3829.0
38.075 3804.0
38.09 3754.0
38.105 3683.0
38.12 3644.0
38.135 3654.0
38.15 3631.0
38.165 3631.0
38.18 3696.0
38.195 3699.0
38.21 3747.0
38.225 3704.0
38.24 3610.0
38.255 3583.0
38.27 3619.0
38.285 3626.0
38.3 3670.0
38.315 3607.0
38.33 3542.0
38.345 3613.0
38.36 3708.0
38.375 3646.0
38.39 3704.0
38.405 3696.0
38.42 3713.0
38.435 3754.0
38.45 3730.0
38.465 3727.0
38.48 3736.0
38.495 3818.0
38.51 3867.0
38.525 3838.0
38.54 3853.0
38.555 3887.0
38.57 3920.0
38.585 3994.0
38.6 3845.0
38.615 3803.0
38.63 3697.0
38.645 3764.0
38.66 3867.0
38.675 3943.0
38.69 3800.0
38.705 3788.0
38.72 3694.0
38.735 3669.0
38.75 3842.0
38.765 3769.0
38.78 3666.0
38.795 3760.0
38.81 3666.0
38.825 3726.0
38.84 3736.0
38.855 3687.0
38.87 3546.0
38.885 3652.0
38.9 3714.0
38.915 3585.0
38.93 3540.0
38.945 3525.0
38.96 3575.0
38.975 3526.0
38.99 3505.0
39.005 3482.0
39.02 3480.0
39.035 3474.0
39.05 3423.0
39.065 3404.0
39.08 3332.0
39.095 3342.0
39.11 3317.0
39.125 3257.0
39.14 3149.0
39.155 3194.0
39.17 3194.0
39.185 3139.0
39.2 3148.0
39.215 3137.0
39.23 3168.0
39.245 3122.0
39.26 3090.0
39.275 3108.0
39.29 3134.0
39.305 3114.0
39.32 3076.0
39.335 3170.0
39.35 3175.0
39.365 3117.0
39.38 3058.0
39.395 3090.0
39.41 3038.0
39.425 3019.0
39.44 3087.0
39.455 3076.0
39.47 3118.0
39.485 3067.0
39.5 3049.0
39.515 3134.0
39.53 3112.0
39.545 3125.0
39.56 3157.0
39.575 3151.0
39.59 3165.0
39.605 3209.0
39.62 3234.0
39.635 3156.0
39.65 3328.0
39.665 3214.0
39.68 3288.0
39.695 3346.0
39.71 3250.0
39.725 3390.0
39.74 3336.0
39.755 3256.0
39.77 3267.0
39.785 3232.0
39.8 3261.0
39.815 3399.0
39.83 3230.0
39.845 3361.0
39.86 3478.0
39.875 3400.0
39.89 3389.0
39.905 3447.0
39.92 3423.0
39.935 3487.0
39.95 3257.0
39.965 3415.0
39.98 3469.0
39.995 3516.0
40.01 3517.0
40.025 3499.0
40.04 3442.0
40.055 3489.0
40.07 3575.0
40.085 3582.0
40.1 3502.0
40.115 3543.0
40.13 3547.0
40.145 3537.0
40.16 3444.0
40.175 3468.0
40.19 3524.0
40.205 3489.0
40.22 3458.0
40.235 3487.0
40.25 3448.0
40.265 3462.0
40.28 3438.0
40.295 3486.0
40.31 3464.0
40.325 3475.0
40.34 3427.0
40.355 3401.0
40.37 3386.0
40.385 3411.0
40.4 3483.0
40.415 3462.0
40.43 3552.0
40.445 3349.0
40.46 3467.0
40.475 3582.0
40.49 3448.0
40.505 3364.0
40.52 3293.0
40.535 3323.0
40.55 3403.0
40.565 3417.0
40.58 3355.0
40.595 3467.0
40.61 3394.0
40.625 3394.0
40.64 3342.0
40.655 3377.0
40.67 3365.0
40.685 3323.0
40.7 3279.0
40.715 3298.0
40.73 3276.0
40.745 3209.0
40.76 3220.0
40.775 3275.0
40.79 3174.0
40.805 3155.0
40.82 3184.0
40.835 3074.0
40.85 3198.0
40.865 3139.0
40.88 3051.0
40.895 3124.0
40.91 3018.0
40.925 3013.0
40.94 3084.0
40.955 2962.0
40.97 2965.0
40.985 2969.0
41.0 3045.0
41.015 3085.0
41.03 3009.0
41.045 2993.0
41.06 3021.0
41.075 2944.0
41.09 3003.0
41.105 3045.0
41.12 3069.0
41.135 3026.0
41.15 2984.0
41.165 3082.0
41.18 2913.0
41.195 3010.0
41.21 3008.0
41.225 2913.0
41.24 2976.0
41.255 2877.0
41.27 2941.0
41.285 2997.0
41.3 2941.0
41.315 2923.0
41.33 2894.0
41.345 2910.0
41.36 2971.0
41.375 2940.0
41.39 2953.0
41.405 2971.0
41.42 2928.0
41.435 2931.0
41.45 2912.0
41.465 2845.0
41.48 2887.0
41.495 2932.0
41.51 2903.0
41.525 3001.0
41.54 2885.0
41.555 2917.0
41.57 2880.0
41.585 2955.0
41.6 2983.0
41.615 2832.0
41.63 2837.0
41.645 2808.0
41.66 2931.0
41.675 2959.0
41.69 2871.0
41.705 2868.0
41.72 2750.0
41.735 2955.0
41.75 2924.0
41.765 2828.0
41.78 2923.0
41.795 2984.0
41.81 2878.0
41.825 2850.0
41.84 2903.0
41.855 2909.0
41.87 2821.0
41.885 2802.0
41.9 2866.0
41.915 2765.0
41.93 2882.0
41.945 2897.0
41.96 2840.0
41.975 2812.0
41.99 2828.0
42.005 2819.0
42.02 2885.0
42.035 2887.0
42.05 2769.0
42.065 2760.0
42.08 2738.0
42.095 2837.0
42.11 2827.0
42.125 2808.0
42.14 2757.0
42.155 2838.0
42.17 2831.0
42.185 2790.0
42.2 2780.0
42.215 2827.0
42.23 2815.0
42.245 2897.0
42.26 2786.0
42.275 2787.0
42.29 2832.0
42.305 2848.0
42.32 2844.0
42.335 2805.0
42.35 2841.0
42.365 2845.0
42.38 2880.0
42.395 2969.0
42.41 2967.0
42.425 2875.0
42.44 2857.0
42.455 2855.0
42.47 2871.0
42.485 2981.0
42.5 2988.0
42.515 2996.0
42.53 2893.0
42.545 2936.0
42.56 2999.0
42.575 2995.0
42.59 2956.0
42.605 2885.0
42.62 2932.0
42.635 2988.0
42.65 3099.0
42.665 3040.0
42.68 2954.0
42.695 2963.0
42.71 3051.0
42.725 3010.0
42.74 2910.0
42.755 3032.0
42.77 3071.0
42.785 2971.0
42.8 2994.0
42.815 3064.0
42.83 3099.0
42.845 3154.0
42.86 3036.0
42.875 3150.0
42.89 3139.0
42.905 3168.0
42.92 3286.0
42.935 3371.0
42.95 3209.0
42.965 3193.0
42.98 3406.0
42.995 3480.0
43.01 3472.0
43.025 3578.0
43.04 3629.0
43.055 3567.0
43.07 3721.0
43.085 3831.0
43.1 3734.0
43.115 3807.0
43.13 3916.0
43.145 4081.0
43.16 4282.0
43.175 4372.0
43.19 4500.0
43.205 4606.0
43.22 4659.0
43.235 4889.0
43.25 5008.0
43.265 4950.0
43.28 5098.0
43.295 5105.0
43.31 5076.0
43.325 5035.0
43.34 4949.0
43.355 4759.0
43.37 4498.0
43.385 4392.0
43.4 4343.0
43.415 4172.0
43.43 4110.0
43.445 4050.0
43.46 3949.0
43.475 3943.0
43.49 3915.0
43.505 3808.0
43.52 3699.0
43.535 3728.0
43.55 3631.0
43.565 3594.0
43.58 3593.0
43.595 3506.0
43.61 3587.0
43.625 3562.0
43.64 3353.0
43.655 3426.0
43.67 3343.0
43.685 3353.0
43.7 3312.0
43.715 3266.0
43.73 3252.0
43.745 3229.0
43.76 3208.0
43.775 3139.0
43.79 3185.0
43.805 3088.0
43.82 3174.0
43.835 3091.0
43.85 3114.0
43.865 3021.0
43.88 3099.0
43.895 3070.0
43.91 3018.0
43.925 3027.0
43.94 3059.0
43.955 2963.0
43.97 2932.0
43.985 3007.0
44.0 3040.0
44.015 3093.0
44.03 3061.0
44.045 3068.0
44.06 2992.0
44.075 3001.0
44.09 3083.0
44.105 3101.0
44.12 3101.0
44.135 3101.0
44.15 3153.0
44.165 3273.0
44.18 3255.0
44.195 3113.0
44.21 3240.0
44.225 3368.0
44.24 3420.0
44.255 3278.0
44.27 3390.0
44.285 3588.0
44.3 3547.0
44.315 3614.0
44.33 3592.0
44.345 3688.0
44.36 3673.0
44.375 3708.0
44.39 3759.0
44.405 3655.0
44.42 3671.0
44.435 3613.0
44.45 3547.0
44.465 3504.0
44.48 3505.0
44.495 3524.0
44.51 3556.0
44.525 3525.0
44.54 3385.0
44.555 3405.0
44.57 3437.0
44.585 3487.0
44.6 3420.0
44.615 3329.0
44.63 3293.0
44.645 3270.0
44.66 3372.0
44.675 3352.0
44.69 3384.0
44.705 3416.0
44.72 3378.0
44.735 3228.0
44.75 3209.0
44.765 3235.0
44.78 3167.0
44.795 3178.0
44.81 3158.0
44.825 3264.0
44.84 3301.0
44.855 3199.0
44.87 3166.0
44.885 3234.0
44.9 3241.0
44.915 3173.0
44.93 3281.0
44.945 3298.0
44.96 3301.0
44.975 3237.0
44.99 3334.0
45.005 3288.0
45.02 3189.0
45.035 3242.0
45.05 3240.0
45.065 3257.0
45.08 3178.0
45.095 3233.0
45.11 3207.0
45.125 3298.0
45.14 3182.0
45.155 3238.0
45.17 3300.0
45.185 3269.0
45.2 3145.0
45.215 3150.0
45.23 3202.0
45.245 3195.0
45.26 3263.0
45.275 3156.0
45.29 3156.0
45.305 3181.0
45.32 3105.0
45.335 3108.0
45.35 3118.0
45.365 3113.0
45.38 3093.0
45.395 3126.0
45.41 3060.0
45.425 3108.0
45.44 3166.0
45.455 3123.0
45.47 3006.0
45.485 3112.0
45.5 3020.0
45.515 3120.0
45.53 3039.0
45.545 3000.0
45.56 3064.0
45.575 3104.0
45.59 3125.0
45.605 3020.0
45.62 3119.0
45.635 3093.0
45.65 3089.0
45.665 3028.0
45.68 3078.0
45.695 3069.0
45.71 2984.0
45.725 3035.0
45.74 3088.0
45.755 3045.0
45.77 3024.0
45.785 3044.0
45.8 3075.0
45.815 3024.0
45.83 2993.0
45.845 2991.0
45.86 2935.0
45.875 2913.0
45.89 3090.0
45.905 3022.0
45.92 3011.0
45.935 2922.0
45.95 2874.0
45.965 2974.0
45.98 3002.0
45.995 3030.0
46.01 3061.0
46.025 2997.0
46.04 2941.0
46.055 3000.0
46.07 3053.0
46.085 3106.0
46.1 3083.0
46.115 3033.0
46.13 3013.0
46.145 3161.0
46.16 3029.0
46.175 3031.0
46.19 3063.0
46.205 3037.0
46.22 3030.0
46.235 3070.0
46.25 3090.0
46.265 3045.0
46.28 2972.0
46.295 3114.0
46.31 3014.0
46.325 3093.0
46.34 3064.0
46.355 2958.0
46.37 2960.0
46.385 2955.0
46.4 2954.0
46.415 2900.0
46.43 2992.0
46.445 2947.0
46.46 2940.0
46.475 2946.0
46.49 2873.0
46.505 2877.0
46.52 2874.0
46.535 2852.0
46.55 2847.0
46.565 2814.0
46.58 2855.0
46.595 2803.0
46.61 2804.0
46.625 2800.0
46.64 2727.0
46.655 2754.0
46.67 2768.0
46.685 2755.0
46.7 2821.0
46.715 2899.0
46.73 2817.0
46.745 2784.0
46.76 2719.0
46.775 2802.0
46.79 2660.0
46.805 2808.0
46.82 2804.0
46.835 2758.0
46.85 2820.0
46.865 2753.0
46.88 2754.0
46.895 2764.0
46.91 2790.0
46.925 2752.0
46.94 2742.0
46.955 2679.0
46.97 2707.0
46.985 2771.0
47.0 2754.0
47.015 2747.0
47.03 2711.0
47.045 2669.0
47.06 2705.0
47.075 2750.0
47.09 2736.0
47.105 2668.0
47.12 2726.0
47.135 2685.0
47.15 2643.0
47.165 2597.0
47.18 2638.0
47.195 2672.0
47.21 2628.0
47.225 2595.0
47.24 2572.0
47.255 2540.0
47.27 2541.0
47.285 2475.0
47.3 2510.0
47.315 2532.0
47.33 2470.0
47.345 2480.0
47.36 2529.0
47.375 2482.0
47.39 2569.0
47.405 2534.0
47.42 2423.0
47.435 2376.0
47.45 2407.0
47.465 2425.0
47.48 2358.0
47.495 2438.0
47.51 2383.0
47.525 2392.0
47.54 2382.0
47.555 2332.0
47.57 2318.0
47.585 2321.0
47.6 2296.0
47.615 2321.0
47.63 2388.0
47.645 2392.0
47.66 2424.0
47.675 2444.0
47.69 2348.0
47.705 2336.0
47.72 2413.0
47.735 2392.0
47.75 2367.0
47.765 2351.0
47.78 2365.0
47.795 2405.0
47.81 2386.0
47.825 2323.0
47.84 2354.0
47.855 2366.0
47.87 2258.0
47.885 2325.0
47.9 2370.0
47.915 2311.0
47.93 2364.0
47.945 2347.0
47.96 2323.0
47.975 2389.0
47.99 2476.0
48.005 2397.0
48.02 2415.0
48.035 2443.0
48.05 2297.0
48.065 2241.0
48.08 2331.0
48.095 2349.0
48.11 2316.0
48.125 2343.0
48.14 2310.0
48.155 2351.0
48.17 2309.0
48.185 2279.0
48.2 2289.0
48.215 2326.0
48.23 2337.0
48.245 2298.0
48.26 2271.0
48.275 2265.0
48.29 2283.0
48.305 2304.0
48.32 2351.0
48.335 2323.0
48.35 2326.0
48.365 2254.0
48.38 2275.0
48.395 2283.0
48.41 2243.0
48.425 2235.0
48.44 2227.0
48.455 2182.0
48.47 2217.0
48.485 2202.0
48.5 2230.0
48.515 2287.0
48.53 2179.0
48.545 2296.0
48.56 2310.0
48.575 2217.0
48.59 2194.0
48.605 2193.0
48.62 2230.0
48.635 2242.0
48.65 2173.0
48.665 2274.0
48.68 2295.0
48.695 2177.0
48.71 2151.0
48.725 2170.0
48.74 2188.0
48.755 2177.0
48.77 2145.0
48.785 2195.0
48.8 2224.0
48.815 2231.0
48.83 2200.0
48.845 2230.0
48.86 2157.0
48.875 2155.0
48.89 2202.0
48.905 2217.0
48.92 2158.0
48.935 2161.0
48.95 2127.0
48.965 2095.0
48.98 2141.0
48.995 2145.0
49.01 2223.0
49.025 2232.0
49.04 2192.0
49.055 2254.0
49.07 2297.0
49.085 2223.0
49.1 2185.0
49.115 2197.0
49.13 2287.0
49.145 2171.0
49.16 2159.0
49.175 2132.0
49.19 2207.0
49.205 2119.0
49.22 2186.0
49.235 2179.0
49.25 2196.0
49.265 2214.0
49.28 2276.0
49.295 2291.0
49.31 2216.0
49.325 2215.0
49.34 2283.0
49.355 2323.0
49.37 2289.0
49.385 2207.0
49.4 2263.0
49.415 2219.0
49.43 2284.0
49.445 2252.0
49.46 2211.0
49.475 2193.0
49.49 2267.0
49.505 2234.0
49.52 2202.0
49.535 2268.0
49.55 2198.0
49.565 2175.0
49.58 2171.0
49.595 2205.0
49.61 2199.0
49.625 2246.0
49.64 2190.0
49.655 2238.0
49.67 2197.0
49.685 2198.0
49.7 2198.0
49.715 2196.0
49.73 2181.0
49.745 2162.0
49.76 2217.0
49.775 2105.0
49.79 2245.0
49.805 2184.0
49.82 2202.0
49.835 2231.0
49.85 2254.0
49.865 2205.0
49.88 2192.0
49.895 2211.0
49.91 2155.0
49.925 2152.0
49.94 2245.0
49.955 2254.0
49.97 2361.0
49.985 2376.0
50.0 2371.0
50.015 2463.0
50.03 2456.0
50.045 2492.0
50.06 2425.0
50.075 2517.0
50.09 2594.0
50.105 2555.0
50.12 2574.0
50.135 2650.0
50.15 2571.0
50.165 2605.0
50.18 2538.0
50.195 2527.0
50.21 2479.0
50.225 2441.0
50.24 2405.0
50.255 2428.0
50.27 2341.0
50.285 2356.0
50.3 2254.0
50.315 2285.0
50.33 2261.0
50.345 2317.0
50.36 2297.0
50.375 2284.0
50.39 2264.0
50.405 2233.0
50.42 2272.0
50.435 2269.0
50.45 2188.0
50.465 2230.0
50.48 2253.0
50.495 2293.0
50.51 2299.0
50.525 2314.0
50.54 2333.0
50.555 2264.0
50.57 2314.0
50.585 2380.0
50.6 2372.0
50.615 2314.0
50.63 2275.0
50.645 2363.0
50.66 2381.0
50.675 2320.0
50.69 2330.0
50.705 2296.0
50.72 2299.0
50.735 2338.0
50.75 2327.0
50.765 2307.0
50.78 2308.0
50.795 2319.0
50.81 2221.0
50.825 2251.0
50.84 2332.0
50.855 2339.0
50.87 2291.0
50.885 2412.0
50.9 2369.0
50.915 2378.0
50.93 2386.0
50.945 2366.0
50.96 2357.0
50.975 2380.0
50.99 2337.0
51.005 2351.0
51.02 2314.0
51.035 2362.0
51.05 2352.0
51.065 2307.0
51.08 2325.0
51.095 2277.0
51.11 2352.0
51.125 2343.0
51.14 2323.0
51.155 2348.0
51.17 2361.0
51.185 2311.0
51.2 2352.0
51.215 2346.0
51.23 2305.0
51.245 2231.0
51.26 2247.0
51.275 2419.0
51.29 2254.0
51.305 2227.0
51.32 2319.0
51.335 2357.0
51.35 2310.0
51.365 2266.0
51.38 2239.0
51.395 2225.0
51.41 2373.0
51.425 2278.0
51.44 2389.0
51.455 2287.0
51.47 2343.0
51.485 2365.0
51.5 2271.0
51.515 2258.0
51.53 2290.0
51.545 2418.0
51.56 2398.0
51.575 2355.0
51.59 2394.0
51.605 2388.0
51.62 2349.0
51.635 2410.0
51.65 2381.0
51.665 2409.0
51.68 2372.0
51.695 2331.0
51.71 2314.0
51.725 2329.0
51.74 2295.0
51.755 2279.0
51.77 2238.0
51.785 2253.0
51.8 2219.0
51.815 2250.0
51.83 2221.0
51.845 2222.0
51.86 2234.0
51.875 2214.0
51.89 2169.0
51.905 2174.0
51.92 2115.0
51.935 2122.0
51.95 2184.0
51.965 2146.0
51.98 2100.0
51.995 2191.0
52.01 2170.0
52.025 2145.0
52.04 2107.0
52.055 2065.0
52.07 2173.0
52.085 2216.0
52.1 2169.0
52.115 2204.0
52.13 2113.0
52.145 2084.0
52.16 2170.0
52.175 2138.0
52.19 2140.0
52.205 2051.0
52.22 2106.0
52.235 2189.0
52.25 2207.0
52.265 2125.0
52.28 2044.0
52.295 2114.0
52.31 2134.0
52.325 2180.0
52.34 2274.0
52.355 2191.0
52.37 2065.0
52.385 2166.0
52.4 2173.0
52.415 2138.0
52.43 2177.0
52.445 2215.0
52.46 2195.0
52.475 2228.0
52.49 2229.0
52.505 2221.0
52.52 2150.0
52.535 2268.0
52.55 2137.0
52.565 2183.0
52.58 2180.0
52.595 2219.0
52.61 2219.0
52.625 2212.0
52.64 2302.0
52.655 2342.0
52.67 2271.0
52.685 2207.0
52.7 2217.0
52.715 2254.0
52.73 2203.0
52.745 2223.0
52.76 2252.0
52.775 2334.0
52.79 2249.0
52.805 2325.0
52.82 2385.0
52.835 2288.0
52.85 2266.0
52.865 2276.0
52.88 2265.0
52.895 2259.0
52.91 2316.0
52.925 2408.0
52.94 2329.0
52.955 2272.0
52.97 2331.0
52.985 2314.0
53.0 2326.0
53.015 2377.0
53.03 2350.0
53.045 2376.0
53.06 2349.0
53.075 2306.0
53.09 2302.0
53.105 2297.0
53.12 2250.0
53.135 2290.0
53.15 2326.0
53.165 2298.0
53.18 2309.0
53.195 2281.0
53.21 2254.0
53.225 2203.0
53.24 2296.0
53.255 2281.0
53.27 2276.0
53.285 2261.0
53.3 2259.0
53.315 2228.0
53.33 2229.0
53.345 2127.0
53.36 2145.0
53.375 2190.0
53.39 2277.0
53.405 2205.0
53.42 2209.0
53.435 2121.0
53.45 2119.0
53.465 2183.0
53.48 2242.0
53.495 2163.0
53.51 2130.0
53.525 2175.0
53.54 2138.0
53.555 2147.0
53.57 2136.0
53.585 2115.0
53.6 2158.0
53.615 2144.0
53.63 2146.0
53.645 2163.0
53.66 2116.0
53.675 2152.0
53.69 2173.0
53.705 2211.0
53.72 2136.0
53.735 2134.0
53.75 2123.0
53.765 2065.0
53.78 2146.0
53.795 2161.0
53.81 2145.0
53.825 2150.0
53.84 2104.0
53.855 2144.0
53.87 2166.0
53.885 2165.0
53.9 2173.0
53.915 2182.0
53.93 2216.0
53.945 2148.0
53.96 2240.0
53.975 2201.0
53.99 2149.0
54.005 2180.0
54.02 2169.0
54.035 2258.0
54.05 2178.0
54.065 2192.0
54.08 2165.0
54.095 2152.0
54.11 2197.0
54.125 2270.0
54.14 2196.0
54.155 2266.0
54.17 2188.0
54.185 2145.0
54.2 2137.0
54.215 2181.0
54.23 2211.0
54.245 2190.0
54.26 2144.0
54.275 2152.0
54.29 2227.0
54.305 2145.0
54.32 2309.0
54.335 2315.0
54.35 2251.0
54.365 2129.0
54.38 2164.0
54.395 2255.0
54.41 2172.0
54.425 2121.0
54.44 2197.0
54.455 2173.0
54.47 2065.0
54.485 2132.0
54.5 2150.0
54.515 2114.0
54.53 2175.0
54.545 2216.0
54.56 2034.0
54.575 2033.0
54.59 2094.0
54.605 2081.0
54.62 2095.0
54.635 2142.0
54.65 2110.0
54.665 2085.0
54.68 2088.0
54.695 2152.0
54.71 2074.0
54.725 2110.0
54.74 2106.0
54.755 2044.0
54.77 2112.0
54.785 2024.0
54.8 2029.0
54.815 2054.0
54.83 2041.0
54.845 2065.0
54.86 2048.0
54.875 2020.0
54.89 2018.0
54.905 2079.0
54.92 1941.0
54.935 1969.0
54.95 1992.0
54.965 2018.0
54.98 2000.0
54.995 2031.0
55.01 2037.0
55.025 2001.0
55.04 2018.0
55.055 1998.0
55.07 2017.0
55.085 2058.0
55.1 1999.0
55.115 2037.0
55.13 2039.0
55.145 2032.0
55.16 2015.0
55.175 1993.0
55.19 1979.0
55.205 2028.0
55.22 1975.0
55.235 2074.0
55.25 2020.0
55.265 1979.0
55.28 1938.0
55.295 1995.0
55.31 1979.0
55.325 2060.0
55.34 1995.0
55.355 1988.0
55.37 2011.0
55.385 2018.0
55.4 2028.0
55.415 2042.0
55.43 2031.0
55.445 1946.0
55.46 2053.0
55.475 2000.0
55.49 2013.0
55.505 2032.0
55.52 2020.0
55.535 1981.0
55.55 1950.0
55.565 1952.0
55.58 2008.0
55.595 1952.0
55.61 1997.0
55.625 2055.0
55.64 1980.0
55.655 1952.0
55.67 1976.0
55.685 1994.0
55.7 2027.0
55.715 2024.0
55.73 1986.0
55.745 1961.0
55.76 1962.0
55.775 1998.0
55.79 2002.0
55.805 2017.0
55.82 2054.0
55.835 2028.0
55.85 2038.0
55.865 1978.0
55.88 1988.0
55.895 1967.0
55.91 1990.0
55.925 2040.0
55.94 2033.0
55.955 2020.0
55.97 1927.0
55.985 2031.0
56.0 1962.0
56.015 2054.0
56.03 2067.0
56.045 2038.0
56.06 2042.0
56.075 2006.0
56.09 2027.0
56.105 1980.0
56.12 1983.0
56.135 1977.0
56.15 2069.0
56.165 2092.0
56.18 2066.0
56.195 1965.0
56.21 1960.0
56.225 1974.0
56.24 2001.0
56.255 1967.0
56.27 1997.0
56.285 1997.0
56.3 2085.0
56.315 1994.0
56.33 1992.0
56.345 2000.0
56.36 2016.0
56.375 2048.0
56.39 2040.0
56.405 2063.0
56.42 2074.0
56.435 2047.0
56.45 2004.0
56.465 2021.0
56.48 1940.0
56.495 1979.0
56.51 2025.0
56.525 1992.0
56.54 1984.0
56.555 2020.0
56.57 2015.0
56.585 2023.0
56.6 2046.0
56.615 2047.0
56.63 1982.0
56.645 1982.0
56.66 1929.0
56.675 2060.0
56.69 2118.0
56.705 2094.0
56.72 2020.0
56.735 2048.0
56.75 2031.0
56.765 2113.0
56.78 2044.0
56.795 2067.0
56.81 2103.0
56.825 2096.0
56.84 2107.0
56.855 2085.0
56.87 2086.0
56.885 2095.0
56.9 2085.0
56.915 2016.0
56.93 2139.0
56.945 2149.0
56.96 2151.0
56.975 2258.0
56.99 2196.0
57.005 2107.0
57.02 2212.0
57.035 2214.0
57.05 2140.0
57.065 2205.0
57.08 2199.0
57.095 2207.0
57.11 2165.0
57.125 2184.0
57.14 2273.0
57.155 2295.0
57.17 2276.0
57.185 2281.0
57.2 2263.0
57.215 2321.0
57.23 2297.0
57.245 2390.0
57.26 2309.0
57.275 2351.0
57.29 2339.0
57.305 2382.0
57.32 2395.0
57.335 2371.0
57.35 2358.0
57.365 2234.0
57.38 2360.0
57.395 2380.0
57.41 2334.0
57.425 2382.0
57.44 2372.0
57.455 2337.0
57.47 2354.0
57.485 2362.0
57.5 2333.0
57.515 2339.0
57.53 2359.0
57.545 2274.0
57.56 2343.0
57.575 2347.0
57.59 2248.0
57.605 2325.0
57.62 2328.0
57.635 2271.0
57.65 2237.0
57.665 2390.0
57.68 2312.0
57.695 2315.0
57.71 2275.0
57.725 2318.0
57.74 2260.0
57.755 2303.0
57.77 2264.0
57.785 2272.0
57.8 2319.0
57.815 2289.0
57.83 2302.0
57.845 2252.0
57.86 2198.0
57.875 2221.0
57.89 2177.0
57.905 2270.0
57.92 2267.0
57.935 2227.0
57.95 2157.0
57.965 2181.0
57.98 2185.0
57.995 2244.0
58.01 2318.0
58.025 2216.0
58.04 2183.0
58.055 2206.0
58.07 2183.0
58.085 2261.0
58.1 2107.0
58.115 2112.0
58.13 2207.0
58.145 2228.0
58.16 2272.0
58.175 2253.0
58.19 2241.0
58.205 2184.0
58.22 2223.0
58.235 2320.0
58.25 2245.0
58.265 2261.0
58.28 2243.0
58.295 2239.0
58.31 2274.0
58.325 2274.0
58.34 2180.0
58.355 2221.0
58.37 2190.0
58.385 2197.0
58.4 2147.0
58.415 2147.0
58.43 2216.0
58.445 2128.0
58.46 2136.0
58.475 2180.0
58.49 2159.0
58.505 2138.0
58.52 2145.0
58.535 2157.0
58.55 2052.0
58.565 2044.0
58.58 2044.0
58.595 2074.0
58.61 2116.0
58.625 2144.0
58.64 2068.0
58.655 2101.0
58.67 2037.0
58.685 2030.0
58.7 2091.0
58.715 2151.0
58.73 2134.0
58.745 2012.0
58.76 2005.0
58.775 2046.0
58.79 1971.0
58.805 2015.0
58.82 2014.0
58.835 2014.0
58.85 2037.0
58.865 2034.0
58.88 1935.0
58.895 1957.0
58.91 1988.0
58.925 2007.0
58.94 2019.0
58.955 1958.0
58.97 1988.0
58.985 2009.0
59.0 1989.0
59.015 1966.0
59.03 1969.0
59.045 1987.0
59.06 2019.0
59.075 2005.0
59.09 2002.0
59.105 2006.0
59.12 2064.0
59.135 2041.0
59.15 2029.0
59.165 2033.0
59.18 2012.0
59.195 1968.0
59.21 2004.0
59.225 1975.0
59.24 2008.0
59.255 1967.0
59.27 1938.0
59.285 1961.0
59.3 2057.0
59.315 1996.0
59.33 1984.0
59.345 1979.0
59.36 1935.0
59.375 2015.0
59.39 1929.0
59.405 1971.0
59.42 1993.0
59.435 2020.0
59.45 1965.0
59.465 1943.0
59.48 1988.0
59.495 1971.0
59.51 2008.0
59.525 2009.0
59.54 1964.0
59.555 1950.0
59.57 1924.0
59.585 2003.0
59.6 1967.0
59.615 1909.0
59.63 1858.0
59.645 1897.0
59.66 1987.0
59.675 1943.0
59.69 1928.0
59.705 1910.0
59.72 1994.0
59.735 1961.0
59.75 1935.0
59.765 1905.0
59.78 1932.0
59.795 1960.0
59.81 1936.0
59.825 1957.0
59.84 1953.0
59.855 1972.0
59.87 1965.0
59.885 1993.0
59.9 1958.0
59.915 1920.0
59.93 1933.0
59.945 1864.0
59.96 1927.0
59.975 1926.0
59.99 1852.0
60.005 1861.0
60.02 1865.0
60.035 1874.0
60.05 1848.0
60.065 1895.0
60.08 1932.0
60.095 1897.0
60.11 1827.0
60.125 1888.0
60.14 1829.0
60.155 1886.0
60.17 1900.0
60.185 1919.0
60.2 1877.0
60.215 1872.0
60.23 1915.0
60.245 1893.0
60.26 1869.0
60.275 1918.0
60.29 1920.0
60.305 1842.0
60.32 1910.0
60.335 1913.0
60.35 1894.0
60.365 1903.0
60.38 1908.0
60.395 1906.0
60.41 1960.0
60.425 1981.0
60.44 1966.0
60.455 2007.0
60.47 2003.0
60.485 1998.0
60.5 1964.0
60.515 1986.0
60.53 1934.0
60.545 1968.0
60.56 1929.0
60.575 1973.0
60.59 2037.0
60.605 1930.0
60.62 1899.0
60.635 1897.0
60.65 1913.0
60.665 1941.0
60.68 1932.0
60.695 1920.0
60.71 1906.0
60.725 1862.0
60.74 1841.0
60.755 1891.0
60.77 1892.0
60.785 1880.0
60.8 1955.0
60.815 1940.0
60.83 1918.0
60.845 1902.0
60.86 1867.0
60.875 1902.0
60.89 1899.0
60.905 1917.0
60.92 1888.0
60.935 1983.0
60.95 1934.0
60.965 1888.0
60.98 1893.0
60.995 1965.0
61.01 1916.0
61.025 1891.0
61.04 1899.0
61.055 1950.0
61.07 1890.0
61.085 1959.0
61.1 1894.0
61.115 1909.0
61.13 1920.0
61.145 1938.0
61.16 1962.0
61.175 1936.0
61.19 1931.0
61.205 1929.0
61.22 1905.0
61.235 1904.0
61.25 1858.0
61.265 1941.0
61.28 1901.0
61.295 1853.0
61.31 1885.0
61.325 1916.0
61.34 1801.0
61.355 1815.0
61.37 1870.0
61.385 1819.0
61.4 1912.0
61.415 1844.0
61.43 1849.0
61.445 1813.0
61.46 1843.0
61.475 1870.0
61.49 1877.0
61.505 1884.0
61.52 1835.0
61.535 1779.0
61.55 1825.0
61.565 1793.0
61.58 1857.0
61.595 1780.0
61.61 1767.0
61.625 1778.0
61.64 1748.0
61.655 1874.0
61.67 1801.0
61.685 1801.0
61.7 1829.0
61.715 1861.0
61.73 1806.0
61.745 1799.0
61.76 1773.0
61.775 1778.0
61.79 1827.0
61.805 1807.0
61.82 1849.0
61.835 1771.0
61.85 1770.0
61.865 1726.0
61.88 1760.0
61.895 1758.0
61.91 1811.0
61.925 1754.0
61.94 1809.0
61.955 1693.0
61.97 1732.0
61.985 1707.0
