2.00000 4.000
2.01500 2.000
2.03000 2.000
2.04500 1.000
2.06000 1.000
2.07500 1.000
2.09000 2.000
2.10500 3.000
2.12000 3.000
2.13500 3.000
2.15000 5.000
2.16500 3.000
2.18000 4.000
2.19500 5.000
2.21000 5.000
2.22500 5.000
2.24000 4.000
2.25500 2.000
2.27000 4.000
2.28500 1.000
2.30000 3.000
2.31500 3.000
2.33000 1.000
2.34500 1.000
2.36000 2.000
2.37500 2.000
2.39000 4.000
2.40500 4.000
2.42000 4.000
2.43500 3.000
2.45000 2.000
2.46500 2.000
2.48000 6.000
2.49500 4.000
2.51000 1.000
2.52500 0.000
2.54000 2.000
2.55500 6.000
2.57000 5.000
2.58500 4.000
2.60000 5.000
2.61500 4.000
2.63000 6.000
2.64500 6.000
2.66000 4.000
2.67500 4.000
2.69000 8.000
2.70500 11.000
2.72000 22.000
2.73500 24.000
2.75000 20.000
2.76500 24.000
2.78000 40.000
2.79500 52.000
2.81000 75.000
2.82500 97.000
2.84000 105.000
2.85500 131.000
2.87000 169.000
2.88500 212.000
2.90000 235.000
2.91500 230.000
2.93000 249.000
2.94500 250.000
2.96000 249.000
2.97500 257.000
2.99000 262.000
3.00500 254.000
3.02000 281.000
3.03500 239.000
3.05000 270.000
3.06500 261.000
3.08000 253.000
3.09500 246.000
3.11000 252.000
3.12500 293.000
3.14000 276.000
3.15500 215.000
3.17000 248.000
3.18500 280.000
3.20000 294.000
3.21500 275.000
3.23000 289.000
3.24500 271.000
3.26000 267.000
3.27500 273.000
3.29000 273.000
3.30500 277.000
3.32000 289.000
3.33500 292.000
3.35000 281.000
3.36500 280.000
3.38000 265.000
3.39500 268.000
3.41000 286.000
3.42500 288.000
3.44000 287.000
3.45500 304.000
3.47000 296.000
3.48500 283.000
3.50000 283.000
3.51500 311.000
3.53000 290.000
3.54500 308.000
3.56000 309.000
3.57500 293.000
3.59000 278.000
3.60500 335.000
3.62000 295.000
3.63500 293.000
3.65000 281.000
3.66500 281.000
3.68000 303.000
3.69500 320.000
3.71000 305.000
3.72500 281.000
3.74000 283.000
3.75500 302.000
3.77000 342.000
3.78500 320.000
3.80000 310.000
3.81500 314.000
3.83000 329.000
3.84500 292.000
3.86000 305.000
3.87500 289.000
3.89000 306.000
3.90500 295.000
3.92000 309.000
3.93500 319.000
3.95000 307.000
3.96500 310.000
3.98000 312.000
3.99500 307.000
4.01000 313.000
4.02500 316.000
4.04000 354.000
4.05500 357.000
4.07000 348.000
4.08500 328.000
4.10000 326.000
4.11500 331.000
4.13000 321.000
4.14500 320.000
4.16000 363.000
4.17500 359.000
4.19000 348.000
4.20500 315.000
4.22000 359.000
4.23500 374.000
4.25000 354.000
4.26500 333.000
4.28000 321.000
4.29500 348.000
4.31000 368.000
4.32500 352.000
4.34000 359.000
4.35500 361.000
4.37000 336.000
4.38500 341.000
4.40000 348.000
4.41500 376.000
4.43000 330.000
4.44500 337.000
4.46000 343.000
4.47500 338.000
4.49000 366.000
4.50500 326.000
4.52000 341.000
4.53500 346.000
4.55000 361.000
4.56500 358.000
4.58000 360.000
4.59500 367.000
4.61000 360.000
4.62500 364.000
4.64000 323.000
4.65500 369.000
4.67000 385.000
4.68500 372.000
4.70000 370.000
4.71500 368.000
4.73000 347.000
4.74500 350.000
4.76000 334.000
4.77500 375.000
4.79000 391.000
4.80500 372.000
4.82000 353.000
4.83500 368.000
4.85000 361.000
4.86500 369.000
4.88000 367.000
4.89500 378.000
4.91000 375.000
4.92500 380.000
4.94000 376.000
4.95500 392.000
4.97000 383.000
4.98500 392.000
5.00000 391.000
5.01500 377.000
5.03000 381.000
5.04500 388.000
5.06000 360.000
5.07500 367.000
5.09000 390.000
5.10500 387.000
5.12000 376.000
5.13500 381.000
5.15000 381.000
5.16500 370.000
5.18000 394.000
5.19500 380.000
5.21000 385.000
5.22500 357.000
5.24000 367.000
5.25500 385.000
5.27000 376.000
5.28500 353.000
5.30000 361.000
5.31500 425.000
5.33000 407.000
5.34500 403.000
5.36000 389.000
5.37500 394.000
5.39000 397.000
5.40500 374.000
5.42000 374.000
5.43500 389.000
5.45000 391.000
5.46500 388.000
5.48000 413.000
5.49500 406.000
5.51000 437.000
5.52500 405.000
5.54000 394.000
5.55500 407.000
5.57000 389.000
5.58500 425.000
5.60000 412.000
5.61500 433.000
5.63000 416.000
5.64500 402.000
5.66000 402.000
5.67500 403.000
5.69000 393.000
5.70500 388.000
5.72000 380.000
5.73500 388.000
5.75000 387.000
5.76500 393.000
5.78000 433.000
5.79500 445.000
5.81000 412.000
5.82500 409.000
5.84000 419.000
5.85500 426.000
5.87000 396.000
5.88500 391.000
5.90000 393.000
5.91500 435.000
5.93000 385.000
5.94500 422.000
5.96000 420.000
5.97500 418.000
5.99000 409.000
6.00500 429.000
6.02000 415.000
6.03500 413.000
6.05000 398.000
6.06500 444.000
6.08000 429.000
6.09500 424.000
6.11000 399.000
6.12500 377.000
6.14000 418.000
6.15500 435.000
6.17000 452.000
6.18500 445.000
6.20000 426.000
6.21500 445.000
6.23000 430.000
6.24500 399.000
6.26000 393.000
6.27500 417.000
6.29000 450.000
6.30500 453.000
6.32000 453.000
6.33500 437.000
6.35000 444.000
6.36500 453.000
6.38000 437.000
6.39500 447.000
6.41000 450.000
6.42500 416.000
6.44000 419.000
6.45500 421.000
6.47000 434.000
6.48500 427.000
6.50000 397.000
6.51500 415.000
6.53000 474.000
6.54500 458.000
6.56000 441.000
6.57500 413.000
6.59000 464.000
6.60500 439.000
6.62000 435.000
6.63500 437.000
6.65000 434.000
6.66500 430.000
6.68000 428.000
6.69500 439.000
6.71000 427.000
6.72500 451.000
6.74000 460.000
6.75500 455.000
6.77000 456.000
6.78500 468.000
6.80000 434.000
6.81500 425.000
6.83000 450.000
6.84500 441.000
6.86000 434.000
6.87500 428.000
6.89000 445.000
6.90500 454.000
6.92000 424.000
6.93500 438.000
6.95000 481.000
6.96500 454.000
6.98000 449.000
6.99500 449.000
7.01000 450.000
7.02500 452.000
7.04000 452.000
7.05500 444.000
7.07000 447.000
7.08500 465.000
7.10000 437.000
7.11500 471.000
7.13000 430.000
7.14500 429.000
7.16000 426.000
7.17500 450.000
7.19000 428.000
7.20500 451.000
7.22000 451.000
7.23500 448.000
7.25000 451.000
7.26500 463.000
7.28000 458.000
7.29500 465.000
7.31000 462.000
7.32500 460.000
7.34000 467.000
7.35500 471.000
7.37000 446.000
7.38500 468.000
7.40000 464.000
7.41500 436.000
7.43000 475.000
7.44500 480.000
7.46000 495.000
7.47500 508.000
7.49000 456.000
7.50500 455.000
7.52000 475.000
7.53500 487.000
7.55000 502.000
7.56500 481.000
7.58000 511.000
7.59500 530.000
7.61000 560.000
7.62500 556.000
7.64000 549.000
7.65500 594.000
7.67000 593.000
7.68500 590.000
7.70000 621.000
7.71500 658.000
7.73000 646.000
7.74500 660.000
7.76000 727.000
7.77500 792.000
7.79000 810.000
7.80500 849.000
7.82000 912.000
7.83500 937.000
7.85000 1023.000
7.86500 1127.000
7.88000 1255.000
7.89500 1335.000
7.91000 1430.000
7.92500 1593.000
7.94000 1782.000
7.95500 1921.000
7.97000 1950.000
7.98500 1791.000
8.00000 1470.000
8.01500 1189.000
8.03000 1071.000
8.04500 970.000
8.06000 823.000
8.07500 799.000
8.09000 735.000
8.10500 680.000
8.12000 738.000
8.13500 715.000
8.15000 660.000
8.16500 679.000
8.18000 621.000
8.19500 620.000
8.21000 590.000
8.22500 596.000
8.24000 607.000
8.25500 586.000
8.27000 587.000
8.28500 596.000
8.30000 588.000
8.31500 584.000
8.33000 551.000
8.34500 554.000
8.36000 551.000
8.37500 567.000
8.39000 566.000
8.40500 571.000
8.42000 526.000
8.43500 544.000
8.45000 541.000
8.46500 528.000
8.48000 573.000
8.49500 540.000
8.51000 548.000
8.52500 546.000
8.54000 535.000
8.55500 536.000
8.57000 557.000
8.58500 564.000
8.60000 567.000
8.61500 506.000
8.63000 515.000
8.64500 565.000
8.66000 531.000
8.67500 552.000
8.69000 544.000
8.70500 514.000
8.72000 540.000
8.73500 549.000
8.75000 571.000
8.76500 570.000
8.78000 521.000
8.79500 517.000
8.81000 525.000
8.82500 556.000
8.84000 551.000
8.85500 560.000
8.87000 518.000
8.88500 505.000
8.90000 528.000
8.91500 530.000
8.93000 528.000
8.94500 528.000
8.96000 522.000
8.97500 584.000
8.99000 551.000
9.00500 540.000
9.02000 505.000
9.03500 518.000
9.05000 546.000
9.06500 532.000
9.08000 553.000
9.09500 529.000
9.11000 562.000
9.12500 530.000
9.14000 524.000
9.15500 548.000
9.17000 521.000
9.18500 541.000
9.20000 541.000
9.21500 526.000
9.23000 515.000
9.24500 490.000
9.26000 509.000
9.27500 567.000
9.29000 557.000
9.30500 536.000
9.32000 531.000
9.33500 551.000
9.35000 554.000
9.36500 563.000
9.38000 536.000
9.39500 560.000
9.41000 564.000
9.42500 527.000
9.44000 537.000
9.45500 542.000
9.47000 516.000
9.48500 542.000
9.50000 548.000
9.51500 551.000
9.53000 538.000
9.54500 532.000
9.56000 564.000
9.57500 570.000
9.59000 550.000
9.60500 578.000
9.62000 562.000
9.63500 544.000
9.65000 536.000
9.66500 547.000
9.68000 581.000
9.69500 580.000
9.71000 570.000
9.72500 570.000
9.74000 574.000
9.75500 570.000
9.77000 596.000
9.78500 574.000
9.80000 600.000
9.81500 640.000
9.83000 630.000
9.84500 609.000
9.86000 691.000
9.87500 691.000
9.89000 693.000
9.90500 735.000
9.92000 749.000
9.93500 760.000
9.95000 801.000
9.96500 808.000
9.98000 829.000
9.99500 872.000
10.01000 931.000
10.02500 934.000
10.04000 933.000
10.05500 949.000
10.07000 951.000
10.08500 985.000
10.10000 985.000
10.11500 992.000
10.13000 949.000
10.14500 863.000
10.16000 837.000
10.17500 867.000
10.19000 822.000
10.20500 773.000
10.22000 681.000
10.23500 674.000
10.25000 685.000
10.26500 677.000
10.28000 682.000
10.29500 638.000
10.31000 560.000
10.32500 574.000
10.34000 597.000
10.35500 607.000
10.37000 560.000
10.38500 566.000
10.40000 564.000
10.41500 584.000
10.43000 547.000
10.44500 525.000
10.46000 542.000
10.47500 561.000
10.49000 566.000
10.50500 556.000
10.52000 558.000
10.53500 584.000
10.55000 556.000
10.56500 554.000
10.58000 540.000
10.59500 537.000
10.61000 523.000
10.62500 532.000
10.64000 518.000
10.65500 505.000
10.67000 504.000
10.68500 512.000
10.70000 519.000
10.71500 535.000
10.73000 541.000
10.74500 544.000
10.76000 535.000
10.77500 512.000
10.79000 510.000
10.80500 496.000
10.82000 510.000
10.83500 501.000
10.85000 515.000
10.86500 498.000
10.88000 529.000
10.89500 550.000
10.91000 515.000
10.92500 487.000
10.94000 508.000
10.95500 529.000
10.97000 501.000
10.98500 496.000
11.00000 505.000
11.01500 495.000
11.03000 506.000
11.04500 530.000
11.06000 496.000
11.07500 488.000
11.09000 494.000
11.10500 530.000
11.12000 528.000
11.13500 527.000
11.15000 529.000
11.16500 534.000
11.18000 516.000
11.19500 513.000
11.21000 497.000
11.22500 513.000
11.24000 475.000
11.25500 477.000
11.27000 532.000
11.28500 510.000
11.30000 484.000
11.31500 482.000
11.33000 531.000
11.34500 506.000
11.36000 524.000
11.37500 536.000
11.39000 522.000
11.40500 508.000
11.42000 505.000
11.43500 505.000
11.45000 482.000
11.46500 505.000
11.48000 494.000
11.49500 525.000
11.51000 516.000
11.52500 483.000
11.54000 465.000
11.55500 510.000
11.57000 505.000
11.58500 537.000
11.60000 526.000
11.61500 517.000
11.63000 481.000
11.64500 483.000
11.66000 493.000
11.67500 504.000
11.69000 476.000
11.70500 494.000
11.72000 505.000
11.73500 502.000
11.75000 498.000
11.76500 517.000
11.78000 506.000
11.79500 532.000
11.81000 513.000
11.82500 511.000
11.84000 511.000
11.85500 500.000
11.87000 516.000
11.88500 526.000
11.90000 505.000
11.91500 485.000
11.93000 498.000
11.94500 477.000
11.96000 510.000
11.97500 499.000
11.99000 510.000
12.00500 490.000
12.02000 509.000
12.03500 519.000
12.05000 494.000
12.06500 511.000
12.08000 530.000
12.09500 517.000
12.11000 521.000
12.12500 500.000
12.14000 499.000
12.15500 493.000
12.17000 501.000
12.18500 483.000
12.20000 501.000
12.21500 519.000
12.23000 496.000
12.24500 467.000
12.26000 468.000
12.27500 513.000
12.29000 510.000
12.30500 505.000
12.32000 492.000
12.33500 520.000
12.35000 495.000
12.36500 464.000
12.38000 493.000
12.39500 496.000
12.41000 491.000
12.42500 504.000
12.44000 467.000
12.45500 465.000
12.47000 481.000
12.48500 497.000
12.50000 515.000
12.51500 491.000
12.53000 478.000
12.54500 484.000
12.56000 514.000
12.57500 502.000
12.59000 494.000
12.60500 478.000
12.62000 514.000
12.63500 513.000
12.65000 493.000
12.66500 511.000
12.68000 536.000
12.69500 518.000
12.71000 510.000
12.72500 495.000
12.74000 518.000
12.75500 488.000
12.77000 468.000
12.78500 466.000
12.80000 517.000
12.81500 500.000
12.83000 501.000
12.84500 495.000
12.86000 515.000
12.87500 489.000
12.89000 518.000
12.90500 497.000
12.92000 459.000
12.93500 480.000
12.95000 463.000
12.96500 503.000
12.98000 487.000
12.99500 518.000
13.01000 541.000
13.02500 465.000
13.04000 468.000
13.05500 488.000
13.07000 481.000
13.08500 478.000
13.10000 489.000
13.11500 518.000
13.13000 524.000
13.14500 490.000
13.16000 502.000
13.17500 513.000
13.19000 487.000
13.20500 497.000
13.22000 470.000
13.23500 482.000
13.25000 490.000
13.26500 503.000
13.28000 467.000
13.29500 466.000
13.31000 474.000
13.32500 519.000
13.34000 510.000
13.35500 474.000
13.37000 480.000
13.38500 508.000
13.40000 506.000
13.41500 488.000
13.43000 511.000
13.44500 483.000
13.46000 453.000
13.47500 482.000
13.49000 507.000
13.50500 496.000
13.52000 497.000
13.53500 495.000
13.55000 485.000
13.56500 515.000
13.58000 490.000
13.59500 447.000
13.61000 471.000
13.62500 486.000
13.64000 469.000
13.65500 498.000
13.67000 492.000
13.68500 475.000
13.70000 446.000
13.71500 468.000
13.73000 498.000
13.74500 486.000
13.76000 488.000
13.77500 490.000
13.79000 503.000
13.80500 519.000
13.82000 509.000
13.83500 492.000
13.85000 519.000
13.86500 516.000
13.88000 519.000
13.89500 489.000
13.91000 469.000
13.92500 479.000
13.94000 482.000
13.95500 485.000
13.97000 484.000
13.98500 484.000
14.00000 503.000
14.01500 506.000
14.03000 486.000
14.04500 455.000
14.06000 476.000
14.07500 509.000
14.09000 490.000
14.10500 503.000
14.12000 487.000
14.13500 512.000
14.15000 515.000
14.16500 480.000
14.18000 478.000
14.19500 487.000
14.21000 458.000
14.22500 490.000
14.24000 468.000
14.25500 499.000
14.27000 478.000
14.28500 489.000
14.30000 489.000
14.31500 471.000
14.33000 472.000
14.34500 493.000
14.36000 508.000
14.37500 473.000
14.39000 491.000
14.40500 491.000
14.42000 525.000
14.43500 515.000
14.45000 505.000
14.46500 495.000
14.48000 489.000
14.49500 487.000
14.51000 472.000
14.52500 477.000
14.54000 490.000
14.55500 486.000
14.57000 487.000
14.58500 473.000
14.60000 467.000
14.61500 499.000
14.63000 511.000
14.64500 514.000
14.66000 503.000
14.67500 521.000
14.69000 484.000
14.70500 494.000
14.72000 506.000
14.73500 506.000
14.75000 494.000
14.76500 484.000
14.78000 507.000
14.79500 535.000
14.81000 520.000
14.82500 476.000
14.84000 509.000
14.85500 522.000
14.87000 540.000
14.88500 533.000
14.90000 509.000
14.91500 527.000
14.93000 539.000
14.94500 516.000
14.96000 549.000
14.97500 529.000
14.99000 543.000
15.00500 558.000
15.02000 530.000
15.03500 547.000
15.05000 521.000
15.06500 564.000
15.08000 588.000
15.09500 604.000
15.11000 612.000
15.12500 604.000
15.14000 568.000
15.15500 593.000
15.17000 616.000
15.18500 583.000
15.20000 619.000
15.21500 624.000
15.23000 583.000
15.24500 557.000
15.26000 554.000
15.27500 550.000
15.29000 558.000
15.30500 546.000
15.32000 551.000
15.33500 556.000
15.35000 539.000
15.36500 497.000
15.38000 510.000
15.39500 525.000
15.41000 532.000
15.42500 502.000
15.44000 535.000
15.45500 497.000
15.47000 527.000
15.48500 523.000
15.50000 497.000
15.51500 460.000
15.53000 517.000
15.54500 477.000
15.56000 453.000
15.57500 434.000
15.59000 497.000
15.60500 473.000
15.62000 479.000
15.63500 489.000
15.65000 509.000
15.66500 471.000
15.68000 503.000
15.69500 536.000
15.71000 476.000
15.72500 470.000
15.74000 512.000
15.75500 458.000
15.77000 483.000
15.78500 514.000
15.80000 486.000
15.81500 476.000
15.83000 487.000
15.84500 486.000
15.86000 499.000
15.87500 494.000
15.89000 473.000
15.90500 493.000
15.92000 492.000
15.93500 476.000
15.95000 469.000
15.96500 464.000
15.98000 513.000
15.99500 538.000
16.01000 540.000
16.02500 496.000
16.04000 486.000
16.05500 506.000
16.07000 505.000
16.08500 521.000
16.10000 495.000
16.11500 487.000
16.13000 489.000
16.14500 478.000
16.16000 475.000
16.17500 503.000
16.19000 503.000
16.20500 506.000
16.22000 498.000
16.23500 509.000
16.25000 495.000
16.26500 517.000
16.28000 484.000
16.29500 484.000
16.31000 465.000
16.32500 467.000
16.34000 456.000
16.35500 468.000
16.37000 462.000
16.38500 493.000
16.40000 487.000
16.41500 454.000
16.43000 508.000
16.44500 489.000
16.46000 483.000
16.47500 500.000
16.49000 511.000
16.50500 443.000
16.52000 449.000
16.53500 484.000
16.55000 485.000
16.56500 506.000
16.58000 488.000
16.59500 466.000
16.61000 492.000
16.62500 486.000
16.64000 463.000
16.65500 499.000
16.67000 453.000
16.68500 481.000
16.70000 481.000
16.71500 489.000
16.73000 501.000
16.74500 509.000
16.76000 509.000
16.77500 477.000
16.79000 493.000
16.80500 516.000
16.82000 513.000
16.83500 475.000
16.85000 501.000
16.86500 495.000
16.88000 495.000
16.89500 494.000
16.91000 468.000
16.92500 478.000
16.94000 443.000
16.95500 466.000
16.97000 489.000
16.98500 509.000
17.00000 507.000
17.01500 493.000
17.03000 499.000
17.04500 516.000
17.06000 501.000
17.07500 498.000
17.09000 505.000
17.10500 480.000
17.12000 495.000
17.13500 509.000
17.15000 489.000
17.16500 497.000
17.18000 530.000
17.19500 512.000
17.21000 487.000
17.22500 483.000
17.24000 493.000
17.25500 481.000
17.27000 475.000
17.28500 515.000
17.30000 512.000
17.31500 496.000
17.33000 423.000
17.34500 459.000
17.36000 513.000
17.37500 486.000
17.39000 487.000
17.40500 484.000
17.42000 457.000
17.43500 483.000
17.45000 479.000
17.46500 505.000
17.48000 495.000
17.49500 519.000
17.51000 523.000
17.52500 487.000
17.54000 481.000
17.55500 484.000
17.57000 447.000
17.58500 481.000
17.60000 484.000
17.61500 466.000
17.63000 478.000
17.64500 490.000
17.66000 481.000
17.67500 498.000
17.69000 484.000
17.70500 501.000
17.72000 509.000
17.73500 492.000
17.75000 513.000
17.76500 459.000
17.78000 466.000
17.79500 517.000
17.81000 462.000
17.82500 481.000
17.84000 524.000
17.85500 493.000
17.87000 487.000
17.88500 534.000
17.90000 480.000
17.91500 458.000
17.93000 499.000
17.94500 488.000
17.96000 467.000
17.97500 504.000
17.99000 508.000
18.00500 506.000
18.02000 511.000
18.03500 518.000
18.05000 464.000
18.06500 488.000
18.08000 503.000
18.09500 490.000
18.11000 510.000
18.12500 495.000
18.14000 512.000
18.15500 493.000
18.17000 506.000
18.18500 509.000
18.20000 520.000
18.21500 500.000
18.23000 526.000
18.24500 513.000
18.26000 542.000
18.27500 522.000
18.29000 503.000
18.30500 543.000
18.32000 526.000
18.33500 518.000
18.35000 515.000
18.36500 532.000
18.38000 546.000
18.39500 533.000
18.41000 562.000
18.42500 546.000
18.44000 552.000
18.45500 579.000
18.47000 575.000
18.48500 574.000
18.50000 573.000
18.51500 621.000
18.53000 603.000
18.54500 643.000
18.56000 608.000
18.57500 674.000
18.59000 703.000
18.60500 704.000
18.62000 709.000
18.63500 669.000
18.65000 685.000
18.66500 693.000
18.68000 678.000
18.69500 667.000
18.71000 656.000
18.72500 648.000
18.74000 634.000
18.75500 639.000
18.77000 603.000
18.78500 600.000
18.80000 590.000
18.81500 597.000
18.83000 585.000
18.84500 592.000
18.86000 547.000
18.87500 559.000
18.89000 596.000
18.90500 556.000
18.92000 574.000
18.93500 551.000
18.95000 528.000
18.96500 536.000
18.98000 546.000
18.99500 541.000
19.01000 517.000
19.02500 550.000
19.04000 511.000
19.05500 508.000
19.07000 488.000
19.08500 524.000
19.10000 509.000
19.11500 536.000
19.13000 504.000
19.14500 512.000
19.16000 526.000
19.17500 517.000
19.19000 495.000
19.20500 514.000
19.22000 517.000
19.23500 504.000
19.25000 495.000
19.26500 521.000
19.28000 526.000
19.29500 522.000
19.31000 522.000
19.32500 495.000
19.34000 509.000
19.35500 519.000
19.37000 491.000
19.38500 507.000
19.40000 531.000
19.41500 497.000
19.43000 497.000
19.44500 530.000
19.46000 535.000
19.47500 519.000
19.49000 526.000
19.50500 508.000
19.52000 529.000
19.53500 490.000
19.55000 493.000
19.56500 533.000
19.58000 492.000
19.59500 516.000
19.61000 524.000
19.62500 529.000
19.64000 509.000
19.65500 533.000
19.67000 531.000
19.68500 506.000
19.70000 492.000
19.71500 518.000
19.73000 503.000
19.74500 534.000
19.76000 534.000
19.77500 488.000
19.79000 507.000
19.80500 502.000
19.82000 522.000
19.83500 539.000
19.85000 499.000
19.86500 523.000
19.88000 522.000
19.89500 506.000
19.91000 545.000
19.92500 506.000
19.94000 482.000
19.95500 504.000
19.97000 527.000
19.98500 552.000
20.00000 515.000
20.01500 545.000
20.03000 527.000
20.04500 495.000
20.06000 501.000
20.07500 495.000
20.09000 522.000
20.10500 512.000
20.12000 494.000
20.13500 511.000
20.15000 528.000
20.16500 556.000
20.18000 550.000
20.19500 538.000
20.21000 537.000
20.22500 520.000
20.24000 531.000
20.25500 512.000
20.27000 565.000
20.28500 542.000
20.30000 529.000
20.31500 541.000
20.33000 519.000
20.34500 567.000
20.36000 545.000
20.37500 494.000
20.39000 559.000
20.40500 573.000
20.42000 516.000
20.43500 568.000
20.45000 535.000
20.46500 552.000
20.48000 520.000
20.49500 574.000
20.51000 539.000
20.52500 523.000
20.54000 525.000
20.55500 539.000
20.57000 547.000
20.58500 572.000
20.60000 530.000
20.61500 514.000
20.63000 517.000
20.64500 516.000
20.66000 532.000
20.67500 531.000
20.69000 543.000
20.70500 541.000
20.72000 516.000
20.73500 515.000
20.75000 543.000
20.76500 516.000
20.78000 538.000
20.79500 555.000
20.81000 525.000
20.82500 559.000
20.84000 532.000
20.85500 535.000
20.87000 516.000
20.88500 537.000
20.90000 576.000
20.91500 548.000
20.93000 523.000
20.94500 517.000
20.96000 517.000
20.97500 527.000
20.99000 541.000
21.00500 540.000
21.02000 551.000
21.03500 536.000
21.05000 529.000
21.06500 581.000
21.08000 550.000
21.09500 550.000
21.11000 561.000
21.12500 580.000
21.14000 553.000
21.15500 577.000
21.17000 604.000
21.18500 547.000
21.20000 569.000
21.21500 591.000
21.23000 595.000
21.24500 548.000
21.26000 580.000
21.27500 592.000
21.29000 557.000
21.30500 539.000
21.32000 565.000
21.33500 569.000
21.35000 552.000
21.36500 568.000
21.38000 543.000
21.39500 553.000
21.41000 547.000
21.42500 553.000
21.44000 556.000
21.45500 540.000
21.47000 564.000
21.48500 598.000
21.50000 563.000
21.51500 584.000
21.53000 535.000
21.54500 639.000
21.56000 592.000
21.57500 595.000
21.59000 576.000
21.60500 579.000
21.62000 574.000
21.63500 589.000
21.65000 598.000
21.66500 600.000
21.68000 594.000
21.69500 552.000
21.71000 544.000
21.72500 586.000
21.74000 615.000
21.75500 666.000
21.77000 645.000
21.78500 616.000
21.80000 634.000
21.81500 612.000
21.83000 646.000
21.84500 669.000
21.86000 659.000
21.87500 687.000
21.89000 688.000
21.90500 662.000
21.92000 679.000
21.93500 679.000
21.95000 664.000
21.96500 676.000
21.98000 668.000
21.99500 735.000
22.01000 749.000
22.02500 723.000
22.04000 701.000
22.05500 714.000
22.07000 709.000
22.08500 694.000
22.10000 749.000
22.11500 730.000
22.13000 718.000
22.14500 721.000
22.16000 694.000
22.17500 711.000
22.19000 716.000
22.20500 694.000
22.22000 695.000
22.23500 674.000
22.25000 685.000
22.26500 703.000
22.28000 657.000
22.29500 638.000
22.31000 656.000
22.32500 680.000
22.34000 666.000
22.35500 641.000
22.37000 630.000
22.38500 646.000
22.40000 671.000
22.41500 632.000
22.43000 653.000
22.44500 674.000
22.46000 664.000
22.47500 625.000
22.49000 650.000
22.50500 668.000
22.52000 663.000
22.53500 659.000
22.55000 659.000
22.56500 664.000
22.58000 682.000
22.59500 657.000
22.61000 671.000
22.62500 700.000
22.64000 674.000
22.65500 670.000
22.67000 689.000
22.68500 711.000
22.70000 706.000
22.71500 738.000
22.73000 725.000
22.74500 736.000
22.76000 763.000
22.77500 737.000
22.79000 764.000
22.80500 793.000
22.82000 830.000
22.83500 815.000
22.85000 811.000
22.86500 809.000
22.88000 806.000
22.89500 817.000
22.91000 852.000
22.92500 865.000
22.94000 877.000
22.95500 884.000
22.97000 874.000
22.98500 835.000
23.00000 893.000
23.01500 862.000
23.03000 884.000
23.04500 879.000
23.06000 837.000
23.07500 817.000
23.09000 833.000
23.10500 774.000
23.12000 801.000
23.13500 805.000
23.15000 787.000
23.16500 736.000
23.18000 784.000
23.19500 752.000
23.21000 712.000
23.22500 739.000
23.24000 705.000
23.25500 709.000
23.27000 709.000
23.28500 700.000
23.30000 691.000
23.31500 722.000
23.33000 685.000
23.34500 678.000
23.36000 681.000
23.37500 675.000
23.39000 699.000
23.40500 696.000
23.42000 707.000
23.43500 688.000
23.45000 668.000
23.46500 645.000
23.48000 664.000
23.49500 669.000
23.51000 688.000
23.52500 696.000
23.54000 677.000
23.55500 662.000
23.57000 667.000
23.58500 635.000
23.60000 611.000
23.61500 685.000
23.63000 653.000
23.64500 661.000
23.66000 701.000
23.67500 677.000
23.69000 659.000
23.70500 646.000
23.72000 644.000
23.73500 660.000
23.75000 659.000
23.76500 635.000
23.78000 623.000
23.79500 617.000
23.81000 655.000
23.82500 639.000
23.84000 682.000
23.85500 641.000
23.87000 672.000
23.88500 667.000
23.90000 677.000
23.91500 680.000
23.93000 654.000
23.94500 647.000
23.96000 676.000
23.97500 679.000
23.99000 669.000
24.00500 660.000
24.02000 683.000
24.03500 710.000
24.05000 701.000
24.06500 707.000
24.08000 681.000
24.09500 704.000
24.11000 696.000
24.12500 660.000
24.14000 676.000
24.15500 673.000
24.17000 659.000
24.18500 639.000
24.20000 663.000
24.21500 710.000
24.23000 720.000
24.24500 708.000
24.26000 696.000
24.27500 681.000
24.29000 708.000
24.30500 712.000
24.32000 712.000
24.33500 706.000
24.35000 708.000
24.36500 714.000
24.38000 718.000
24.39500 784.000
24.41000 747.000
24.42500 770.000
24.44000 739.000
24.45500 761.000
24.47000 750.000
24.48500 753.000
24.50000 789.000
24.51500 799.000
24.53000 772.000
24.54500 743.000
24.56000 767.000
24.57500 747.000
24.59000 781.000
24.60500 784.000
24.62000 808.000
24.63500 773.000
24.65000 813.000
24.66500 757.000
24.68000 789.000
24.69500 809.000
24.71000 763.000
24.72500 786.000
24.74000 751.000
24.75500 798.000
24.77000 771.000
24.78500 773.000
24.80000 752.000
24.81500 741.000
24.83000 733.000
24.84500 739.000
24.86000 747.000
24.87500 765.000
24.89000 795.000
24.90500 745.000
24.92000 723.000
24.93500 762.000
24.95000 718.000
24.96500 711.000
24.98000 766.000
24.99500 752.000
25.01000 766.000
25.02500 713.000
25.04000 758.000
25.05500 721.000
25.07000 778.000
25.08500 736.000
25.10000 735.000
25.11500 737.000
25.13000 734.000
25.14500 748.000
25.16000 746.000
25.17500 746.000
25.19000 791.000
25.20500 771.000
25.22000 804.000
25.23500 807.000
25.25000 792.000
25.26500 787.000
25.28000 784.000
25.29500 768.000
25.31000 807.000
25.32500 771.000
25.34000 809.000
25.35500 791.000
25.37000 783.000
25.38500 797.000
25.40000 846.000
25.41500 790.000
25.43000 782.000
25.44500 819.000
25.46000 850.000
25.47500 842.000
25.49000 845.000
25.50500 862.000
25.52000 858.000
25.53500 865.000
25.55000 907.000
25.56500 878.000
25.58000 878.000
25.59500 915.000
25.61000 863.000
25.62500 865.000
25.64000 885.000
25.65500 891.000
25.67000 888.000
25.68500 899.000
25.70000 864.000
25.71500 866.000
25.73000 882.000
25.74500 884.000
25.76000 923.000
25.77500 897.000
25.79000 866.000
25.80500 907.000
25.82000 924.000
25.83500 864.000
25.85000 853.000
25.86500 838.000
25.88000 797.000
25.89500 813.000
25.91000 822.000
25.92500 816.000
25.94000 802.000
25.95500 803.000
25.97000 835.000
25.98500 828.000
26.00000 818.000
26.01500 826.000
26.03000 807.000
26.04500 781.000
26.06000 797.000
26.07500 802.000
26.09000 819.000
26.10500 811.000
26.12000 820.000
26.13500 818.000
26.15000 810.000
26.16500 822.000
26.18000 836.000
26.19500 876.000
26.21000 838.000
26.22500 802.000
26.24000 784.000
26.25500 799.000
26.27000 790.000
26.28500 814.000
26.30000 839.000
26.31500 868.000
26.33000 883.000
26.34500 858.000
26.36000 852.000
26.37500 822.000
26.39000 839.000
26.40500 832.000
26.42000 841.000
26.43500 863.000
26.45000 850.000
26.46500 855.000
26.48000 864.000
26.49500 856.000
26.51000 849.000
26.52500 829.000
26.54000 830.000
26.55500 854.000
26.57000 865.000
26.58500 897.000
26.60000 882.000
26.61500 831.000
26.63000 835.000
26.64500 877.000
26.66000 892.000
26.67500 887.000
26.69000 911.000
26.70500 915.000
26.72000 878.000
26.73500 884.000
26.75000 895.000
26.76500 915.000
26.78000 897.000
26.79500 898.000
26.81000 911.000
26.82500 921.000
26.84000 904.000
26.85500 881.000
26.87000 896.000
26.88500 932.000
26.90000 937.000
26.91500 895.000
26.93000 936.000
26.94500 920.000
26.96000 925.000
26.97500 982.000
26.99000 961.000
27.00500 923.000
27.02000 954.000
27.03500 950.000
27.05000 1017.000
27.06500 934.000
27.08000 988.000
27.09500 1030.000
27.11000 1048.000
27.12500 1013.000
27.14000 1019.000
27.15500 1080.000
27.17000 1090.000
27.18500 982.000
27.20000 1004.000
27.21500 1022.000
27.23000 1112.000
27.24500 1101.000
27.26000 1086.000
27.27500 1085.000
27.29000 1162.000
27.30500 1127.000
27.32000 1147.000
27.33500 1179.000
27.35000 1183.000
27.36500 1163.000
27.38000 1221.000
27.39500 1275.000
27.41000 1262.000
27.42500 1359.000
27.44000 1392.000
27.45500 1424.000
27.47000 1432.000
27.48500 1565.000
27.50000 1662.000
27.51500 1732.000
27.53000 1776.000
27.54500 1811.000
27.56000 2013.000
27.57500 2138.000
27.59000 2279.000
27.60500 2376.000
27.62000 2458.000
27.63500 2824.000
27.65000 3025.000
27.66500 3170.000
27.68000 3313.000
27.69500 3553.000
27.71000 3581.000
27.72500 3591.000
27.74000 3770.000
27.75500 3803.000
27.77000 3682.000
27.78500 3604.000
27.80000 3485.000
27.81500 3415.000
27.83000 3260.000
27.84500 3245.000
27.86000 3110.000
27.87500 2943.000
27.89000 2848.000
27.90500 2876.000
27.92000 2853.000
27.93500 2802.000
27.95000 2778.000
27.96500 2701.000
27.98000 2673.000
27.99500 2694.000
28.01000 2624.000
28.02500 2548.000
28.04000 2504.000
28.05500 2462.000
28.07000 2314.000
28.08500 2265.000
28.10000 2283.000
28.11500 2124.000
28.13000 2031.000
28.14500 1932.000
28.16000 1954.000
28.17500 1920.000
28.19000 1904.000
28.20500 1871.000
28.22000 1817.000
28.23500 1744.000
28.25000 1723.000
28.26500 1691.000
28.28000 1638.000
28.29500 1629.000
28.31000 1611.000
28.32500 1589.000
28.34000 1586.000
28.35500 1503.000
28.37000 1388.000
28.38500 1412.000
28.40000 1447.000
28.41500 1357.000
28.43000 1302.000
28.44500 1247.000
28.46000 1296.000
28.47500 1275.000
28.49000 1239.000
28.50500 1234.000
28.52000 1230.000
28.53500 1219.000
28.55000 1127.000
28.56500 1097.000
28.58000 1109.000
28.59500 1078.000
28.61000 1073.000
28.62500 1056.000
28.64000 1034.000
28.65500 1049.000
28.67000 1051.000
28.68500 1072.000
28.70000 1023.000
28.71500 1048.000
28.73000 1017.000
28.74500 995.000
28.76000 1004.000
28.77500 1031.000
28.79000 998.000
28.80500 959.000
28.82000 969.000
28.83500 951.000
28.85000 973.000
28.86500 924.000
28.88000 930.000
28.89500 930.000
28.91000 860.000
28.92500 917.000
28.94000 959.000
28.95500 940.000
28.97000 937.000
28.98500 913.000
29.00000 938.000
29.01500 962.000
29.03000 931.000
29.04500 900.000
29.06000 915.000
29.07500 926.000
29.09000 990.000
29.10500 947.000
29.12000 992.000
29.13500 954.000
29.15000 1035.000
29.16500 998.000
29.18000 1008.000
29.19500 988.000
29.21000 926.000
29.22500 923.000
29.24000 867.000
29.25500 818.000
29.27000 835.000
29.28500 832.000
29.30000 839.000
29.31500 842.000
29.33000 772.000
29.34500 790.000
29.36000 773.000
29.37500 756.000
29.39000 781.000
29.40500 807.000
29.42000 797.000
29.43500 798.000
29.45000 779.000
29.46500 741.000
29.48000 780.000
29.49500 796.000
29.51000 773.000
29.52500 763.000
29.54000 741.000
29.55500 741.000
29.57000 748.000
29.58500 755.000
29.60000 749.000
29.61500 743.000
29.63000 765.000
29.64500 755.000
29.66000 761.000
29.67500 803.000
29.69000 806.000
29.70500 799.000
29.72000 746.000
29.73500 799.000
29.75000 794.000
29.76500 768.000
29.78000 797.000
29.79500 759.000
29.81000 743.000
29.82500 765.000
29.84000 810.000
29.85500 745.000
29.87000 768.000
29.88500 780.000
29.90000 781.000
29.91500 764.000
29.93000 772.000
29.94500 771.000
29.96000 757.000
29.97500 756.000
29.99000 791.000
30.00500 733.000
30.02000 729.000
30.03500 773.000
30.05000 744.000
30.06500 718.000
30.08000 769.000
30.09500 766.000
30.11000 720.000
30.12500 764.000
30.14000 732.000
30.15500 762.000
30.17000 752.000
30.18500 747.000
30.20000 763.000
30.21500 780.000
30.23000 767.000
30.24500 801.000
30.26000 753.000
30.27500 735.000
30.29000 775.000
30.30500 784.000
30.32000 853.000
30.33500 798.000
30.35000 802.000
30.36500 766.000
30.38000 788.000
30.39500 773.000
30.41000 776.000
30.42500 812.000
30.44000 834.000
30.45500 751.000
30.47000 777.000
30.48500 844.000
30.50000 774.000
30.51500 790.000
30.53000 807.000
30.54500 776.000
30.56000 799.000
30.57500 786.000
30.59000 802.000
30.60500 782.000
30.62000 765.000
30.63500 787.000
30.65000 785.000
30.66500 803.000
30.68000 777.000
30.69500 758.000
30.71000 751.000
30.72500 760.000
30.74000 786.000
30.75500 730.000
30.77000 757.000
30.78500 780.000
30.80000 754.000
30.81500 715.000
30.83000 718.000
30.84500 688.000
30.86000 690.000
30.87500 681.000
30.89000 749.000
30.90500 710.000
30.92000 718.000
30.93500 691.000
30.95000 645.000
30.96500 639.000
30.98000 673.000
30.99500 658.000
31.01000 677.000
31.02500 694.000
31.04000 656.000
31.05500 675.000
31.07000 641.000
31.08500 621.000
31.10000 647.000
31.11500 606.000
31.13000 667.000
31.14500 655.000
31.16000 599.000
31.17500 616.000
31.19000 619.000
31.20500 680.000
31.22000 611.000
31.23500 606.000
31.25000 623.000
31.26500 646.000
31.28000 625.000
31.29500 654.000
31.31000 688.000
31.32500 674.000
31.34000 663.000
31.35500 662.000
31.37000 660.000
31.38500 656.000
31.40000 648.000
31.41500 678.000
31.43000 664.000
31.44500 661.000
31.46000 658.000
31.47500 678.000
31.49000 639.000
31.50500 621.000
31.52000 641.000
31.53500 633.000
31.55000 626.000
31.56500 600.000
31.58000 653.000
31.59500 700.000
31.61000 703.000
31.62500 646.000
31.64000 625.000
31.65500 655.000
31.67000 653.000
31.68500 647.000
31.70000 643.000
31.71500 630.000
31.73000 628.000
31.74500 621.000
31.76000 659.000
31.77500 647.000
31.79000 630.000
31.80500 606.000
31.82000 636.000
31.83500 617.000
31.85000 643.000
31.86500 643.000
31.88000 640.000
31.89500 635.000
31.91000 628.000
31.92500 673.000
31.94000 645.000
31.95500 656.000
31.97000 663.000
31.98500 693.000
32.00000 632.000
32.01500 669.000
32.03000 663.000
32.04500 627.000
32.06000 603.000
32.07500 650.000
32.09000 643.000
32.10500 609.000
32.12000 607.000
32.13500 642.000
32.15000 666.000
32.16500 678.000
32.18000 618.000
32.19500 647.000
32.21000 662.000
32.22500 704.000
32.24000 722.000
32.25500 729.000
32.27000 727.000
32.28500 766.000
32.30000 747.000
32.31500 801.000
32.33000 797.000
32.34500 792.000
32.36000 800.000
32.37500 821.000
32.39000 819.000
32.40500 827.000
32.42000 794.000
32.43500 756.000
32.45000 719.000
32.46500 737.000
32.48000 696.000
32.49500 629.000
32.51000 632.000
32.52500 648.000
32.54000 605.000
32.55500 592.000
32.57000 588.000
32.58500 585.000
32.60000 558.000
32.61500 539.000
32.63000 566.000
32.64500 567.000
32.66000 530.000
32.67500 573.000
32.69000 528.000
32.70500 524.000
32.72000 530.000
32.73500 572.000
32.75000 539.000
32.76500 553.000
32.78000 547.000
32.79500 544.000
32.81000 506.000
32.82500 487.000
32.84000 497.000
32.85500 501.000
32.87000 497.000
32.88500 487.000
32.90000 511.000
32.91500 472.000
32.93000 484.000
32.94500 495.000
32.96000 471.000
32.97500 502.000
32.99000 504.000
33.00500 492.000
33.02000 474.000
33.03500 470.000
33.05000 452.000
33.06500 465.000
33.08000 480.000
33.09500 497.000
33.11000 502.000
33.12500 469.000
33.14000 480.000
33.15500 486.000
33.17000 486.000
33.18500 460.000
33.20000 473.000
33.21500 472.000
33.23000 468.000
33.24500 463.000
33.26000 478.000
33.27500 481.000
33.29000 482.000
33.30500 471.000
33.32000 484.000
33.33500 473.000
33.35000 466.000
33.36500 433.000
33.38000 442.000
33.39500 462.000
33.41000 465.000
33.42500 451.000
33.44000 457.000
33.45500 449.000
33.47000 457.000
33.48500 442.000
33.50000 454.000
33.51500 413.000
33.53000 416.000
33.54500 433.000
33.56000 449.000
33.57500 458.000
33.59000 464.000
33.60500 431.000
33.62000 434.000
33.63500 435.000
33.65000 472.000
33.66500 458.000
33.68000 460.000
33.69500 443.000
33.71000 468.000
33.72500 434.000
33.74000 443.000
33.75500 449.000
33.77000 422.000
33.78500 452.000
33.80000 416.000
33.81500 463.000
33.83000 456.000
33.84500 445.000
33.86000 458.000
33.87500 431.000
33.89000 434.000
33.90500 435.000
33.92000 448.000
33.93500 456.000
33.95000 459.000
33.96500 430.000
33.98000 460.000
33.99500 461.000
34.01000 444.000
34.02500 458.000
34.04000 453.000
34.05500 449.000
34.07000 474.000
34.08500 454.000
34.10000 426.000
34.11500 446.000
34.13000 453.000
34.14500 457.000
34.16000 470.000
34.17500 434.000
34.19000 428.000
34.20500 448.000
34.22000 456.000
34.23500 449.000
34.25000 416.000
34.26500 429.000
34.28000 458.000
34.29500 460.000
34.31000 433.000
34.32500 426.000
34.34000 452.000
34.35500 448.000
34.37000 428.000
34.38500 466.000
34.40000 446.000
34.41500 446.000
34.43000 434.000
34.44500 433.000
34.46000 435.000
34.47500 453.000
34.49000 461.000
34.50500 449.000
34.52000 429.000
34.53500 438.000
34.55000 432.000
34.56500 442.000
34.58000 427.000
34.59500 443.000
34.61000 425.000
34.62500 456.000
34.64000 447.000
34.65500 445.000
34.67000 484.000
34.68500 432.000
34.70000 450.000
34.71500 468.000
34.73000 445.000
34.74500 427.000
34.76000 444.000
34.77500 458.000
34.79000 439.000
34.80500 438.000
34.82000 451.000
34.83500 447.000
34.85000 463.000
34.86500 474.000
34.88000 469.000
34.89500 469.000
34.91000 465.000
34.92500 441.000
34.94000 475.000
34.95500 462.000
34.97000 457.000
34.98500 461.000
35.00000 440.000
35.01500 454.000
35.03000 475.000
35.04500 492.000
35.06000 517.000
35.07500 453.000
35.09000 494.000
35.10500 463.000
35.12000 503.000
35.13500 517.000
35.15000 500.000
35.16500 525.000
35.18000 509.000
35.19500 525.000
35.21000 542.000
35.22500 544.000
35.24000 541.000
35.25500 557.000
35.27000 537.000
35.28500 584.000
35.30000 582.000
35.31500 589.000
35.33000 581.000
35.34500 635.000
35.36000 669.000
35.37500 706.000
35.39000 692.000
35.40500 780.000
35.42000 837.000
35.43500 913.000
35.45000 944.000
35.46500 987.000
35.48000 985.000
35.49500 992.000
35.51000 952.000
35.52500 895.000
35.54000 821.000
35.55500 729.000
35.57000 735.000
35.58500 676.000
35.60000 653.000
35.61500 607.000
35.63000 596.000
35.64500 548.000
35.66000 559.000
35.67500 538.000
35.69000 558.000
35.70500 572.000
35.72000 525.000
35.73500 507.000
35.75000 485.000
35.76500 487.000
35.78000 476.000
35.79500 493.000
35.81000 463.000
35.82500 475.000
35.84000 447.000
35.85500 480.000
35.87000 487.000
35.88500 476.000
35.90000 481.000
35.91500 479.000
35.93000 479.000
35.94500 478.000
35.96000 508.000
35.97500 498.000
35.99000 489.000
36.00500 483.000
36.02000 495.000
36.03500 472.000
36.05000 477.000
36.06500 492.000
36.08000 473.000
36.09500 472.000
36.11000 512.000
36.12500 528.000
36.14000 534.000
36.15500 515.000
36.17000 505.000
36.18500 499.000
36.20000 495.000
36.21500 540.000
36.23000 534.000
36.24500 529.000
36.26000 538.000
36.27500 524.000
36.29000 543.000
36.30500 535.000
36.32000 537.000
36.33500 492.000
36.35000 540.000
36.36500 552.000
36.38000 541.000
36.39500 565.000
36.41000 561.000
36.42500 570.000
36.44000 539.000
36.45500 542.000
36.47000 554.000
36.48500 537.000
36.50000 529.000
36.51500 560.000
36.53000 571.000
36.54500 544.000
36.56000 544.000
36.57500 545.000
36.59000 547.000
36.60500 535.000
36.62000 554.000
36.63500 568.000
36.65000 573.000
36.66500 553.000
36.68000 534.000
36.69500 526.000
36.71000 549.000
36.72500 486.000
36.74000 493.000
36.75500 474.000
36.77000 470.000
36.78500 461.000
36.80000 475.000
36.81500 500.000
36.83000 479.000
36.84500 445.000
36.86000 465.000
36.87500 438.000
36.89000 467.000
36.90500 447.000
36.92000 448.000
36.93500 409.000
36.95000 442.000
36.96500 451.000
36.98000 449.000
36.99500 435.000
37.01000 469.000
37.02500 491.000
37.04000 460.000
37.05500 447.000
37.07000 456.000
37.08500 495.000
37.10000 472.000
37.11500 469.000
37.13000 470.000
37.14500 489.000
37.16000 490.000
37.17500 483.000
37.19000 499.000
37.20500 485.000
37.22000 481.000
37.23500 513.000
37.25000 484.000
37.26500 479.000
37.28000 519.000
37.29500 520.000
37.31000 519.000
37.32500 557.000
37.34000 530.000
37.35500 531.000
37.37000 532.000
37.38500 529.000
37.40000 521.000
37.41500 534.000
37.43000 527.000
37.44500 540.000
37.46000 514.000
37.47500 516.000
37.49000 521.000
37.50500 554.000
37.52000 512.000
37.53500 523.000
37.55000 516.000
37.56500 496.000
37.58000 493.000
37.59500 506.000
37.61000 501.000
37.62500 512.000
37.64000 495.000
37.65500 494.000
37.67000 524.000
37.68500 521.000
37.70000 496.000
37.71500 521.000
37.73000 496.000
37.74500 537.000
37.76000 502.000
37.77500 528.000
37.79000 534.000
37.80500 480.000
37.82000 454.000
37.83500 476.000
37.85000 485.000
37.86500 490.000
37.88000 504.000
37.89500 500.000
37.91000 451.000
37.92500 441.000
37.94000 473.000
37.95500 483.000
37.97000 456.000
37.98500 458.000
38.00000 466.000
38.01500 474.000
38.03000 471.000
38.04500 479.000
38.06000 497.000
38.07500 474.000
38.09000 480.000
38.10500 459.000
38.12000 449.000
38.13500 436.000
38.15000 437.000
38.16500 437.000
38.18000 429.000
38.19500 429.000
38.21000 460.000
38.22500 434.000
38.24000 451.000
38.25500 442.000
38.27000 436.000
38.28500 441.000
38.30000 464.000
38.31500 451.000
38.33000 454.000
38.34500 464.000
38.36000 461.000
38.37500 443.000
38.39000 451.000
38.40500 488.000
38.42000 483.000
38.43500 480.000
38.45000 492.000
38.46500 425.000
38.48000 480.000
38.49500 491.000
38.51000 481.000
38.52500 448.000
38.54000 517.000
38.55500 500.000
38.57000 478.000
38.58500 526.000
38.60000 479.000
38.61500 505.000
38.63000 455.000
38.64500 473.000
38.66000 489.000
38.67500 474.000
38.69000 469.000
38.70500 462.000
38.72000 460.000
38.73500 472.000
38.75000 491.000
38.76500 466.000
38.78000 435.000
38.79500 469.000
38.81000 458.000
38.82500 462.000
38.84000 460.000
38.85500 477.000
38.87000 453.000
38.88500 478.000
38.90000 450.000
38.91500 441.000
38.93000 436.000
38.94500 466.000
38.96000 476.000
38.97500 426.000
38.99000 460.000
39.00500 432.000
39.02000 442.000
39.03500 469.000
39.05000 412.000
39.06500 397.000
39.08000 412.000
39.09500 413.000
39.11000 408.000
39.12500 404.000
39.14000 398.000
39.15500 417.000
39.17000 420.000
39.18500 404.000
39.20000 397.000
39.21500 403.000
39.23000 415.000
39.24500 387.000
39.26000 404.000
39.27500 371.000
39.29000 368.000
39.30500 362.000
39.32000 356.000
39.33500 395.000
39.35000 424.000
39.36500 374.000
39.38000 377.000
39.39500 383.000
39.41000 380.000
39.42500 368.000
39.44000 375.000
39.45500 400.000
39.47000 416.000
39.48500 398.000
39.50000 364.000
39.51500 400.000
39.53000 410.000
39.54500 390.000
39.56000 397.000
39.57500 392.000
39.59000 371.000
39.60500 392.000
39.62000 389.000
39.63500 374.000
39.65000 441.000
39.66500 419.000
39.68000 400.000
39.69500 430.000
39.71000 430.000
39.72500 435.000
39.74000 430.000
39.75500 389.000
39.77000 425.000
39.78500 388.000
39.80000 380.000
39.81500 418.000
39.83000 391.000
39.84500 406.000
39.86000 421.000
39.87500 446.000
39.89000 465.000
39.90500 433.000
39.92000 446.000
39.93500 425.000
39.95000 393.000
39.96500 453.000
39.98000 425.000
39.99500 444.000
40.01000 444.000
40.02500 424.000
40.04000 431.000
40.05500 430.000
40.07000 464.000
40.08500 466.000
40.10000 424.000
40.11500 416.000
40.13000 433.000
40.14500 440.000
40.16000 429.000
40.17500 417.000
40.19000 433.000
40.20500 427.000
40.22000 439.000
40.23500 447.000
40.25000 435.000
40.26500 441.000
40.28000 443.000
40.29500 424.000
40.31000 425.000
40.32500 432.000
40.34000 418.000
40.35500 393.000
40.37000 420.000
40.38500 433.000
40.40000 449.000
40.41500 455.000
40.43000 458.000
40.44500 414.000
40.46000 421.000
40.47500 435.000
40.49000 458.000
40.50500 414.000
40.52000 396.000
40.53500 402.000
40.55000 442.000
40.56500 410.000
40.58000 418.000
40.59500 472.000
40.61000 423.000
40.62500 443.000
40.64000 457.000
40.65500 438.000
40.67000 382.000
40.68500 410.000
40.70000 412.000
40.71500 423.000
40.73000 404.000
40.74500 391.000
40.76000 404.000
40.77500 413.000
40.79000 416.000
40.80500 388.000
40.82000 408.000
40.83500 386.000
40.85000 391.000
40.86500 390.000
40.88000 371.000
40.89500 414.000
40.91000 394.000
40.92500 415.000
40.94000 420.000
40.95500 362.000
40.97000 382.000
40.98500 373.000
41.00000 387.000
41.01500 401.000
41.03000 374.000
41.04500 362.000
41.06000 371.000
41.07500 373.000
41.09000 376.000
41.10500 396.000
41.12000 406.000
41.13500 373.000
41.15000 364.000
41.16500 381.000
41.18000 384.000
41.19500 407.000
41.21000 424.000
41.22500 374.000
41.24000 374.000
41.25500 349.000
41.27000 336.000
41.28500 380.000
41.30000 371.000
41.31500 383.000
41.33000 354.000
41.34500 361.000
41.36000 360.000
41.37500 339.000
41.39000 356.000
41.40500 372.000
41.42000 374.000
41.43500 362.000
41.45000 357.000
41.46500 331.000
41.48000 352.000
41.49500 384.000
41.51000 391.000
41.52500 385.000
41.54000 380.000
41.55500 382.000
41.57000 381.000
41.58500 389.000
41.60000 403.000
41.61500 375.000
41.63000 357.000
41.64500 359.000
41.66000 359.000
41.67500 379.000
41.69000 355.000
41.70500 341.000
41.72000 336.000
41.73500 382.000
41.75000 361.000
41.76500 342.000
41.78000 356.000
41.79500 357.000
41.81000 337.000
41.82500 324.000
41.84000 351.000
41.85500 373.000
41.87000 328.000
41.88500 364.000
41.90000 367.000
41.91500 361.000
41.93000 388.000
41.94500 351.000
41.96000 357.000
41.97500 337.000
41.99000 331.000
42.00500 345.000
42.02000 357.000
42.03500 383.000
42.05000 338.000
42.06500 325.000
42.08000 344.000
42.09500 338.000
42.11000 332.000
42.12500 344.000
42.14000 322.000
42.15500 373.000
42.17000 367.000
42.18500 326.000
42.20000 340.000
42.21500 358.000
42.23000 344.000
42.24500 354.000
42.26000 346.000
42.27500 349.000
42.29000 351.000
42.30500 364.000
42.32000 349.000
42.33500 347.000
42.35000 381.000
42.36500 358.000
42.38000 356.000
42.39500 369.000
42.41000 384.000
42.42500 385.000
42.44000 371.000
42.45500 359.000
42.47000 355.000
42.48500 376.000
42.50000 384.000
42.51500 392.000
42.53000 383.000
42.54500 373.000
42.56000 355.000
42.57500 412.000
42.59000 362.000
42.60500 360.000
42.62000 389.000
42.63500 350.000
42.65000 385.000
42.66500 382.000
42.68000 387.000
42.69500 367.000
42.71000 390.000
42.72500 404.000
42.74000 358.000
42.75500 349.000
42.77000 394.000
42.78500 369.000
42.80000 394.000
42.81500 374.000
42.83000 400.000
42.84500 387.000
42.86000 370.000
42.87500 381.000
42.89000 382.000
42.90500 400.000
42.92000 399.000
42.93500 452.000
42.95000 419.000
42.96500 387.000
42.98000 414.000
42.99500 454.000
43.01000 451.000
43.02500 439.000
43.04000 450.000
43.05500 435.000
43.07000 463.000
43.08500 505.000
43.10000 453.000
43.11500 473.000
43.13000 487.000
43.14500 511.000
43.16000 566.000
43.17500 534.000
43.19000 553.000
43.20500 576.000
43.22000 585.000
43.23500 626.000
43.25000 634.000
43.26500 615.000
43.28000 640.000
43.29500 625.000
43.31000 637.000
43.32500 643.000
43.34000 604.000
43.35500 569.000
43.37000 557.000
43.38500 530.000
43.40000 501.000
43.41500 543.000
43.43000 481.000
43.44500 491.000
43.46000 487.000
43.47500 495.000
43.49000 502.000
43.50500 491.000
43.52000 470.000
43.53500 464.000
43.55000 455.000
43.56500 446.000
43.58000 439.000
43.59500 426.000
43.61000 449.000
43.62500 441.000
43.64000 408.000
43.65500 431.000
43.67000 405.000
43.68500 436.000
43.70000 450.000
43.71500 428.000
43.73000 407.000
43.74500 411.000
43.76000 413.000
43.77500 392.000
43.79000 401.000
43.80500 342.000
43.82000 403.000
43.83500 386.000
43.85000 422.000
43.86500 390.000
43.88000 401.000
43.89500 432.000
43.91000 401.000
43.92500 364.000
43.94000 362.000
43.95500 394.000
43.97000 348.000
43.98500 374.000
44.00000 368.000
44.01500 385.000
44.03000 391.000
44.04500 361.000
44.06000 375.000
44.07500 358.000
44.09000 379.000
44.10500 372.000
44.12000 389.000
44.13500 355.000
44.15000 408.000
44.16500 425.000
44.18000 412.000
44.19500 390.000
44.21000 422.000
44.22500 441.000
44.24000 439.000
44.25500 415.000
44.27000 421.000
44.28500 436.000
44.30000 429.000
44.31500 434.000
44.33000 453.000
44.34500 467.000
44.36000 435.000
44.37500 451.000
44.39000 483.000
44.40500 446.000
44.42000 449.000
44.43500 460.000
44.45000 448.000
44.46500 461.000
44.48000 429.000
44.49500 416.000
44.51000 440.000
44.52500 436.000
44.54000 438.000
44.55500 436.000
44.57000 413.000
44.58500 454.000
44.60000 432.000
44.61500 384.000
44.63000 372.000
44.64500 396.000
44.66000 422.000
44.67500 386.000
44.69000 422.000
44.70500 413.000
44.72000 427.000
44.73500 410.000
44.75000 413.000
44.76500 363.000
44.78000 396.000
44.79500 423.000
44.81000 403.000
44.82500 397.000
44.84000 412.000
44.85500 407.000
44.87000 389.000
44.88500 377.000
44.90000 405.000
44.91500 354.000
44.93000 393.000
44.94500 387.000
44.96000 397.000
44.97500 390.000
44.99000 401.000
45.00500 408.000
45.02000 408.000
45.03500 399.000
45.05000 412.000
45.06500 400.000
45.08000 424.000
45.09500 442.000
45.11000 412.000
45.12500 383.000
45.14000 402.000
45.15500 410.000
45.17000 403.000
45.18500 421.000
45.20000 413.000
45.21500 423.000
45.23000 387.000
45.24500 387.000
45.26000 402.000
45.27500 390.000
45.29000 374.000
45.30500 395.000
45.32000 379.000
45.33500 365.000
45.35000 380.000
45.36500 401.000
45.38000 420.000
45.39500 389.000
45.41000 397.000
45.42500 383.000
45.44000 396.000
45.45500 391.000
45.47000 361.000
45.48500 362.000
45.50000 364.000
45.51500 390.000
45.53000 381.000
45.54500 366.000
45.56000 372.000
45.57500 407.000
45.59000 433.000
45.60500 372.000
45.62000 372.000
45.63500 371.000
45.65000 385.000
45.66500 348.000
45.68000 350.000
45.69500 389.000
45.71000 356.000
45.72500 361.000
45.74000 381.000
45.75500 375.000
45.77000 372.000
45.78500 382.000
45.80000 405.000
45.81500 374.000
45.83000 361.000
45.84500 361.000
45.86000 350.000
45.87500 394.000
45.89000 391.000
45.90500 400.000
45.92000 388.000
45.93500 366.000
45.95000 353.000
45.96500 390.000
45.98000 383.000
45.99500 400.000
46.01000 387.000
46.02500 361.000
46.04000 360.000
46.05500 371.000
46.07000 388.000
46.08500 381.000
46.10000 385.000
46.11500 380.000
46.13000 392.000
46.14500 392.000
46.16000 363.000
46.17500 352.000
46.19000 379.000
46.20500 359.000
46.22000 376.000
46.23500 394.000
46.25000 411.000
46.26500 357.000
46.28000 376.000
46.29500 388.000
46.31000 373.000
46.32500 368.000
46.34000 366.000
46.35500 371.000
46.37000 368.000
46.38500 367.000
46.40000 360.000
46.41500 357.000
46.43000 380.000
46.44500 380.000
46.46000 386.000
46.47500 355.000
46.49000 350.000
46.50500 348.000
46.52000 352.000
46.53500 349.000
46.55000 358.000
46.56500 362.000
46.58000 365.000
46.59500 358.000
46.61000 344.000
46.62500 331.000
46.64000 330.000
46.65500 350.000
46.67000 368.000
46.68500 346.000
46.70000 365.000
46.71500 355.000
46.73000 363.000
46.74500 355.000
46.76000 344.000
46.77500 356.000
46.79000 331.000
46.80500 347.000
46.82000 347.000
46.83500 346.000
46.85000 352.000
46.86500 348.000
46.88000 348.000
46.89500 342.000
46.91000 357.000
46.92500 319.000
46.94000 332.000
46.95500 342.000
46.97000 355.000
46.98500 347.000
47.00000 349.000
47.01500 326.000
47.03000 306.000
47.04500 318.000
47.06000 333.000
47.07500 351.000
47.09000 339.000
47.10500 355.000
47.12000 330.000
47.13500 337.000
47.15000 339.000
47.16500 333.000
47.18000 317.000
47.19500 324.000
47.21000 316.000
47.22500 325.000
47.24000 344.000
47.25500 333.000
47.27000 297.000
47.28500 323.000
47.30000 337.000
47.31500 322.000
47.33000 306.000
47.34500 334.000
47.36000 318.000
47.37500 305.000
47.39000 332.000
47.40500 314.000
47.42000 297.000
47.43500 310.000
47.45000 302.000
47.46500 315.000
47.48000 312.000
47.49500 285.000
47.51000 321.000
47.52500 295.000
47.54000 304.000
47.55500 314.000
47.57000 277.000
47.58500 283.000
47.60000 268.000
47.61500 275.000
47.63000 288.000
47.64500 318.000
47.66000 318.000
47.67500 301.000
47.69000 285.000
47.70500 270.000
47.72000 289.000
47.73500 292.000
47.75000 311.000
47.76500 302.000
47.78000 281.000
47.79500 300.000
47.81000 296.000
47.82500 288.000
47.84000 303.000
47.85500 291.000
47.87000 290.000
47.88500 288.000
47.90000 311.000
47.91500 297.000
47.93000 293.000
47.94500 303.000
47.96000 307.000
47.97500 316.000
47.99000 313.000
48.00500 295.000
48.02000 278.000
48.03500 316.000
48.05000 297.000
48.06500 294.000
48.08000 283.000
48.09500 311.000
48.11000 287.000
48.12500 279.000
48.14000 281.000
48.15500 284.000
48.17000 286.000
48.18500 291.000
48.20000 306.000
48.21500 285.000
48.23000 303.000
48.24500 285.000
48.26000 307.000
48.27500 299.000
48.29000 292.000
48.30500 283.000
48.32000 283.000
48.33500 295.000
48.35000 290.000
48.36500 290.000
48.38000 293.000
48.39500 291.000
48.41000 280.000
48.42500 283.000
48.44000 282.000
48.45500 264.000
48.47000 275.000
48.48500 279.000
48.50000 274.000
48.51500 270.000
48.53000 268.000
48.54500 293.000
48.56000 291.000
48.57500 248.000
48.59000 259.000
48.60500 267.000
48.62000 269.000
48.63500 280.000
48.65000 285.000
48.66500 289.000
48.68000 261.000
48.69500 271.000
48.71000 286.000
48.72500 274.000
48.74000 262.000
48.75500 269.000
48.77000 259.000
48.78500 270.000
48.80000 273.000
48.81500 301.000
48.83000 303.000
48.84500 279.000
48.86000 265.000
48.87500 278.000
48.89000 270.000
48.90500 254.000
48.92000 279.000
48.93500 264.000
48.95000 260.000
48.96500 249.000
48.98000 282.000
48.99500 277.000
49.01000 300.000
49.02500 282.000
49.04000 264.000
49.05500 308.000
49.07000 320.000
49.08500 271.000
49.10000 285.000
49.11500 297.000
49.13000 285.000
49.14500 275.000
49.16000 259.000
49.17500 259.000
49.19000 258.000
49.20500 258.000
49.22000 264.000
49.23500 266.000
49.25000 272.000
49.26500 304.000
49.28000 293.000
49.29500 292.000
49.31000 268.000
49.32500 271.000
49.34000 291.000
49.35500 282.000
49.37000 290.000
49.38500 277.000
49.40000 297.000
49.41500 302.000
49.43000 276.000
49.44500 286.000
49.46000 278.000
49.47500 291.000
49.49000 281.000
49.50500 270.000
49.52000 279.000
49.53500 270.000
49.55000 275.000
49.56500 277.000
49.58000 292.000
49.59500 296.000
49.61000 284.000
49.62500 276.000
49.64000 268.000
49.65500 289.000
49.67000 279.000
49.68500 296.000
49.70000 280.000
49.71500 271.000
49.73000 279.000
49.74500 241.000
49.76000 287.000
49.77500 240.000
49.79000 273.000
49.80500 286.000
49.82000 289.000
49.83500 279.000
49.85000 287.000
49.86500 285.000
49.88000 278.000
49.89500 260.000
49.91000 258.000
49.92500 252.000
49.94000 258.000
49.95500 261.000
49.97000 287.000
49.98500 303.000
50.00000 278.000
50.01500 300.000
50.03000 312.000
50.04500 302.000
50.06000 289.000
50.07500 308.000
50.09000 348.000
50.10500 334.000
50.12000 313.000
50.13500 305.000
50.15000 314.000
50.16500 319.000
50.18000 310.000
50.19500 311.000
50.21000 301.000
50.22500 322.000
50.24000 321.000
50.25500 326.000
50.27000 303.000
50.28500 304.000
50.30000 282.000
50.31500 283.000
50.33000 264.000
50.34500 289.000
50.36000 302.000
50.37500 303.000
50.39000 308.000
50.40500 280.000
50.42000 289.000
50.43500 297.000
50.45000 290.000
50.46500 291.000
50.48000 282.000
50.49500 298.000
50.51000 299.000
50.52500 280.000
50.54000 302.000
50.55500 263.000
50.57000 311.000
50.58500 334.000
50.60000 314.000
50.61500 292.000
50.63000 290.000
50.64500 300.000
50.66000 304.000
50.67500 273.000
50.69000 293.000
50.70500 314.000
50.72000 299.000
50.73500 263.000
50.75000 266.000
50.76500 264.000
50.78000 288.000
50.79500 287.000
50.81000 259.000
50.82500 283.000
50.84000 273.000
50.85500 270.000
50.87000 299.000
50.88500 296.000
50.90000 287.000
50.91500 292.000
50.93000 307.000
50.94500 309.000
50.96000 287.000
50.97500 306.000
50.99000 297.000
51.00500 277.000
51.02000 277.000
51.03500 275.000
51.05000 297.000
51.06500 272.000
51.08000 276.000
51.09500 294.000
51.11000 314.000
51.12500 295.000
51.14000 295.000
51.15500 287.000
51.17000 283.000
51.18500 277.000
51.20000 299.000
51.21500 293.000
51.23000 288.000
51.24500 272.000
51.26000 297.000
51.27500 291.000
51.29000 270.000
51.30500 272.000
51.32000 299.000
51.33500 307.000
51.35000 305.000
51.36500 307.000
51.38000 269.000
51.39500 290.000
51.41000 316.000
51.42500 279.000
51.44000 297.000
51.45500 268.000
51.47000 288.000
51.48500 290.000
51.50000 250.000
51.51500 286.000
51.53000 287.000
51.54500 316.000
51.56000 313.000
51.57500 281.000
51.59000 290.000
51.60500 281.000
51.62000 288.000
51.63500 312.000
51.65000 308.000
51.66500 292.000
51.68000 300.000
51.69500 280.000
51.71000 295.000
51.72500 297.000
51.74000 273.000
51.75500 279.000
51.77000 287.000
51.78500 308.000
51.80000 300.000
51.81500 277.000
51.83000 286.000
51.84500 280.000
51.86000 270.000
51.87500 265.000
51.89000 275.000
51.90500 277.000
51.92000 276.000
51.93500 254.000
51.95000 281.000
51.96500 239.000
51.98000 263.000
51.99500 268.000
52.01000 289.000
52.02500 276.000
52.04000 278.000
52.05500 263.000
52.07000 266.000
52.08500 275.000
52.10000 248.000
52.11500 255.000
52.13000 251.000
52.14500 286.000
52.16000 256.000
52.17500 250.000
52.19000 273.000
52.20500 268.000
52.22000 276.000
52.23500 264.000
52.25000 278.000
52.26500 271.000
52.28000 282.000
52.29500 257.000
52.31000 268.000
52.32500 280.000
52.34000 287.000
52.35500 272.000
52.37000 267.000
52.38500 266.000
52.40000 274.000
52.41500 255.000
52.43000 262.000
52.44500 269.000
52.46000 287.000
52.47500 294.000
52.49000 298.000
52.50500 285.000
52.52000 249.000
52.53500 276.000
52.55000 240.000
52.56500 247.000
52.58000 266.000
52.59500 269.000
52.61000 277.000
52.62500 264.000
52.64000 299.000
52.65500 290.000
52.67000 301.000
52.68500 300.000
52.70000 263.000
52.71500 277.000
52.73000 274.000
52.74500 278.000
52.76000 279.000
52.77500 292.000
52.79000 270.000
52.80500 262.000
52.82000 286.000
52.83500 262.000
52.85000 258.000
52.86500 271.000
52.88000 291.000
52.89500 292.000
52.91000 285.000
52.92500 300.000
52.94000 285.000
52.95500 276.000
52.97000 292.000
52.98500 299.000
53.00000 287.000
53.01500 288.000
53.03000 304.000
53.04500 276.000
53.06000 268.000
53.07500 275.000
53.09000 280.000
53.10500 291.000
53.12000 286.000
53.13500 292.000
53.15000 281.000
53.16500 277.000
53.18000 299.000
53.19500 303.000
53.21000 277.000
53.22500 265.000
53.24000 285.000
53.25500 275.000
53.27000 266.000
53.28500 267.000
53.30000 272.000
53.31500 288.000
53.33000 264.000
53.34500 267.000
53.36000 274.000
53.37500 265.000
53.39000 275.000
53.40500 272.000
53.42000 271.000
53.43500 273.000
53.45000 255.000
53.46500 286.000
53.48000 305.000
53.49500 285.000
53.51000 253.000
53.52500 267.000
53.54000 260.000
53.55500 271.000
53.57000 271.000
53.58500 244.000
53.60000 264.000
53.61500 293.000
53.63000 265.000
53.64500 267.000
53.66000 248.000
53.67500 268.000
53.69000 260.000
53.70500 277.000
53.72000 269.000
53.73500 265.000
53.75000 266.000
53.76500 249.000
53.78000 255.000
53.79500 264.000
53.81000 254.000
53.82500 272.000
53.84000 254.000
53.85500 258.000
53.87000 257.000
53.88500 257.000
53.90000 257.000
53.91500 271.000
53.93000 262.000
53.94500 266.000
53.96000 280.000
53.97500 286.000
53.99000 262.000
54.00500 276.000
54.02000 266.000
54.03500 297.000
54.05000 254.000
54.06500 265.000
54.08000 260.000
54.09500 282.000
54.11000 272.000
54.12500 274.000
54.14000 268.000
54.15500 282.000
54.17000 282.000
54.18500 261.000
54.20000 278.000
54.21500 265.000
54.23000 274.000
54.24500 255.000
54.26000 268.000
54.27500 272.000
54.29000 273.000
54.30500 268.000
54.32000 292.000
54.33500 267.000
54.35000 275.000
54.36500 272.000
54.38000 273.000
54.39500 290.000
54.41000 282.000
54.42500 265.000
54.44000 295.000
54.45500 262.000
54.47000 250.000
54.48500 286.000
54.50000 269.000
54.51500 270.000
54.53000 268.000
54.54500 265.000
54.56000 245.000
54.57500 238.000
54.59000 215.000
54.60500 233.000
54.62000 243.000
54.63500 271.000
54.65000 241.000
54.66500 263.000
54.68000 261.000
54.69500 251.000
54.71000 235.000
54.72500 262.000
54.74000 281.000
54.75500 236.000
54.77000 243.000
54.78500 257.000
54.80000 245.000
54.81500 259.000
54.83000 260.000
54.84500 256.000
54.86000 243.000
54.87500 247.000
54.89000 244.000
54.90500 252.000
54.92000 239.000
54.93500 243.000
54.95000 225.000
54.96500 239.000
54.98000 246.000
54.99500 268.000
55.01000 270.000
55.02500 267.000
55.04000 269.000
55.05500 231.000
55.07000 260.000
55.08500 263.000
55.10000 252.000
55.11500 247.000
55.13000 249.000
55.14500 251.000
55.16000 254.000
55.17500 263.000
55.19000 251.000
55.20500 265.000
55.22000 257.000
55.23500 260.000
55.25000 250.000
55.26500 250.000
55.28000 242.000
55.29500 260.000
55.31000 249.000
55.32500 270.000
55.34000 259.000
55.35500 244.000
55.37000 258.000
55.38500 250.000
55.40000 255.000
55.41500 266.000
55.43000 244.000
55.44500 232.000
55.46000 252.000
55.47500 247.000
55.49000 242.000
55.50500 257.000
55.52000 250.000
55.53500 229.000
55.55000 248.000
55.56500 240.000
55.58000 253.000
55.59500 241.000
55.61000 258.000
55.62500 254.000
55.64000 249.000
55.65500 269.000
55.67000 244.000
55.68500 234.000
55.70000 260.000
55.71500 266.000
55.73000 245.000
55.74500 255.000
55.76000 257.000
55.77500 248.000
55.79000 238.000
55.80500 240.000
55.82000 265.000
55.83500 280.000
55.85000 265.000
55.86500 261.000
55.88000 253.000
55.89500 247.000
55.91000 242.000
55.92500 238.000
55.94000 245.000
55.95500 248.000
55.97000 225.000
55.98500 264.000
56.00000 246.000
56.01500 249.000
56.03000 261.000
56.04500 272.000
56.06000 259.000
56.07500 248.000
56.09000 250.000
56.10500 252.000
56.12000 248.000
56.13500 234.000
56.15000 262.000
56.16500 264.000
56.18000 256.000
56.19500 241.000
56.21000 246.000
56.22500 243.000
56.24000 264.000
56.25500 248.000
56.27000 258.000
56.28500 262.000
56.30000 288.000
56.31500 245.000
56.33000 225.000
56.34500 237.000
56.36000 250.000
56.37500 256.000
56.39000 279.000
56.40500 281.000
56.42000 260.000
56.43500 246.000
56.45000 259.000
56.46500 235.000
56.48000 246.000
56.49500 250.000
56.51000 236.000
56.52500 259.000
56.54000 256.000
56.55500 254.000
56.57000 271.000
56.58500 255.000
56.60000 257.000
56.61500 281.000
56.63000 248.000
56.64500 226.000
56.66000 235.000
56.67500 241.000
56.69000 256.000
56.70500 234.000
56.72000 242.000
56.73500 270.000
56.75000 263.000
56.76500 264.000
56.78000 262.000
56.79500 253.000
56.81000 265.000
56.82500 253.000
56.84000 262.000
56.85500 256.000
56.87000 263.000
56.88500 245.000
56.90000 248.000
56.91500 253.000
56.93000 270.000
56.94500 263.000
56.96000 291.000
56.97500 294.000
56.99000 270.000
57.00500 247.000
57.02000 275.000
57.03500 273.000
57.05000 266.000
57.06500 264.000
57.08000 274.000
57.09500 267.000
57.11000 255.000
57.12500 261.000
57.14000 279.000
57.15500 289.000
57.17000 283.000
57.18500 291.000
57.20000 276.000
57.21500 299.000
57.23000 293.000
57.24500 291.000
57.26000 302.000
57.27500 300.000
57.29000 301.000
57.30500 308.000
57.32000 326.000
57.33500 314.000
57.35000 291.000
57.36500 265.000
57.38000 295.000
57.39500 281.000
57.41000 291.000
57.42500 337.000
57.44000 306.000
57.45500 306.000
57.47000 302.000
57.48500 307.000
57.50000 292.000
57.51500 290.000
57.53000 313.000
57.54500 287.000
57.56000 288.000
57.57500 306.000
57.59000 275.000
57.60500 280.000
57.62000 270.000
57.63500 280.000
57.65000 274.000
57.66500 283.000
57.68000 293.000
57.69500 278.000
57.71000 279.000
57.72500 291.000
57.74000 292.000
57.75500 298.000
57.77000 263.000
57.78500 296.000
57.80000 289.000
57.81500 291.000
57.83000 283.000
57.84500 274.000
57.86000 279.000
57.87500 277.000
57.89000 299.000
57.90500 276.000
57.92000 279.000
57.93500 272.000
57.95000 253.000
57.96500 271.000
57.98000 264.000
57.99500 280.000
58.01000 276.000
58.02500 278.000
58.04000 293.000
58.05500 277.000
58.07000 275.000
58.08500 302.000
58.10000 254.000
58.11500 250.000
58.13000 284.000
58.14500 287.000
58.16000 313.000
58.17500 288.000
58.19000 303.000
58.20500 280.000
58.22000 301.000
58.23500 295.000
58.25000 277.000
58.26500 285.000
58.28000 280.000
58.29500 274.000
58.31000 272.000
58.32500 265.000
58.34000 262.000
58.35500 267.000
58.37000 262.000
58.38500 281.000
58.40000 259.000
58.41500 267.000
58.43000 277.000
58.44500 261.000
58.46000 287.000
58.47500 297.000
58.49000 263.000
58.50500 258.000
58.52000 278.000
58.53500 266.000
58.55000 254.000
58.56500 250.000
58.58000 244.000
58.59500 272.000
58.61000 277.000
58.62500 273.000
58.64000 261.000
58.65500 256.000
58.67000 252.000
58.68500 271.000
58.70000 258.000
58.71500 259.000
58.73000 277.000
58.74500 272.000
58.76000 259.000
58.77500 265.000
58.79000 257.000
58.80500 286.000
58.82000 244.000
58.83500 249.000
58.85000 257.000
58.86500 252.000
58.88000 231.000
58.89500 243.000
58.91000 246.000
58.92500 252.000
58.94000 265.000
58.95500 240.000
58.97000 242.000
58.98500 256.000
59.00000 255.000
59.01500 245.000
59.03000 243.000
59.04500 241.000
59.06000 250.000
59.07500 242.000
59.09000 253.000
59.10500 229.000
59.12000 230.000
59.13500 247.000
59.15000 237.000
59.16500 235.000
59.18000 270.000
59.19500 228.000
59.21000 254.000
59.22500 242.000
59.24000 265.000
59.25500 229.000
59.27000 241.000
59.28500 236.000
59.30000 250.000
59.31500 251.000
59.33000 240.000
59.34500 261.000
59.36000 236.000
59.37500 250.000
59.39000 230.000
59.40500 246.000
59.42000 240.000
59.43500 259.000
59.45000 249.000
59.46500 243.000
59.48000 252.000
59.49500 242.000
59.51000 272.000
59.52500 266.000
59.54000 236.000
59.55500 244.000
59.57000 243.000
59.58500 231.000
59.60000 228.000
59.61500 229.000
59.63000 223.000
59.64500 258.000
59.66000 247.000
59.67500 235.000
59.69000 256.000
59.70500 243.000
59.72000 255.000
59.73500 229.000
59.75000 230.000
59.76500 229.000
59.78000 221.000
59.79500 228.000
59.81000 241.000
59.82500 246.000
59.84000 241.000
59.85500 246.000
59.87000 243.000
59.88500 268.000
59.90000 251.000
59.91500 249.000
59.93000 251.000
59.94500 248.000
59.96000 261.000
59.97500 223.000
59.99000 218.000
60.00500 223.000
60.02000 225.000
60.03500 232.000
60.05000 232.000
60.06500 223.000
60.08000 227.000
60.09500 241.000
60.11000 241.000
60.12500 226.000
60.14000 237.000
60.15500 216.000
60.17000 227.000
60.18500 254.000
60.20000 249.000
60.21500 253.000
60.23000 232.000
60.24500 248.000
60.26000 247.000
60.27500 247.000
60.29000 256.000
60.30500 224.000
60.32000 231.000
60.33500 234.000
60.35000 234.000
60.36500 262.000
60.38000 255.000
60.39500 243.000
60.41000 240.000
60.42500 235.000
60.44000 238.000
60.45500 247.000
60.47000 236.000
60.48500 240.000
60.50000 250.000
60.51500 232.000
60.53000 225.000
60.54500 251.000
60.56000 259.000
60.57500 250.000
60.59000 260.000
60.60500 237.000
60.62000 242.000
60.63500 240.000
60.65000 239.000
60.66500 246.000
60.68000 246.000
60.69500 247.000
60.71000 252.000
60.72500 248.000
60.74000 211.000
60.75500 226.000
60.77000 236.000
60.78500 245.000
60.80000 261.000
60.81500 253.000
60.83000 253.000
60.84500 254.000
60.86000 247.000
60.87500 243.000
60.89000 252.000
60.90500 240.000
60.92000 207.000
60.93500 255.000
60.95000 249.000
60.96500 232.000
60.98000 239.000
60.99500 276.000
61.01000 259.000
61.02500 243.000
61.04000 242.000
61.05500 280.000
61.07000 227.000
61.08500 227.000
61.10000 234.000
61.11500 250.000
61.13000 222.000
61.14500 256.000
61.16000 252.000
61.17500 256.000
61.19000 247.000
61.20500 245.000
61.22000 257.000
61.23500 244.000
61.25000 236.000
61.26500 260.000
61.28000 241.000
61.29500 235.000
61.31000 247.000
61.32500 257.000
61.34000 221.000
61.35500 224.000
61.37000 248.000
61.38500 236.000
61.40000 230.000
61.41500 234.000
61.43000 228.000
61.44500 222.000
61.46000 220.000
61.47500 211.000
61.49000 223.000
61.50500 236.000
61.52000 208.000
61.53500 222.000
61.55000 222.000
61.56500 223.000
61.58000 231.000
61.59500 221.000
61.61000 203.000
61.62500 221.000
61.64000 213.000
61.65500 245.000
61.67000 248.000
61.68500 234.000
61.70000 242.000
61.71500 222.000
61.73000 192.000
61.74500 219.000
61.76000 212.000
61.77500 221.000
61.79000 212.000
61.80500 223.000
61.82000 225.000
61.83500 213.000
61.85000 214.000
61.86500 227.000
61.88000 216.000
61.89500 218.000
61.91000 216.000
61.92500 223.000
61.94000 218.000
61.95500 208.000
61.97000 216.000
61.98500 211.000
