2.00000 7.000
2.01500 11.000
2.03000 6.000
2.04500 5.000
2.06000 6.000
2.07500 5.000
2.09000 6.000
2.10500 8.000
2.12000 7.000
2.13500 8.000
2.15000 10.000
2.16500 8.000
2.18000 7.000
2.19500 6.000
2.21000 6.000
2.22500 5.000
2.24000 6.000
2.25500 8.000
2.27000 8.000
2.28500 9.000
2.30000 6.000
2.31500 5.000
2.33000 7.000
2.34500 4.000
2.36000 6.000
2.37500 3.000
2.39000 7.000
2.40500 6.000
2.42000 8.000
2.43500 3.000
2.45000 4.000
2.46500 5.000
2.48000 5.000
2.49500 5.000
2.51000 5.000
2.52500 4.000
2.54000 7.000
2.55500 6.000
2.57000 4.000
2.58500 4.000
2.60000 4.000
2.61500 5.000
2.63000 6.000
2.64500 6.000
2.66000 4.000
2.67500 5.000
2.69000 6.000
2.70500 5.000
2.72000 7.000
2.73500 6.000
2.75000 4.000
2.76500 3.000
2.78000 2.000
2.79500 5.000
2.81000 4.000
2.82500 5.000
2.84000 8.000
2.85500 4.000
2.87000 3.000
2.88500 5.000
2.90000 7.000
2.91500 2.000
2.93000 3.000
2.94500 8.000
2.96000 7.000
2.97500 7.000
2.99000 3.000
3.00500 3.000
3.02000 8.000
3.03500 4.000
3.05000 4.000
3.06500 3.000
3.08000 7.000
3.09500 10.000
3.11000 14.000
3.12500 19.000
3.14000 25.000
3.15500 24.000
3.17000 22.000
3.18500 40.000
3.20000 67.000
3.21500 111.000
3.23000 181.000
3.24500 268.000
3.26000 380.000
3.27500 425.000
3.29000 557.000
3.30500 700.000
3.32000 746.000
3.33500 806.000
3.35000 836.000
3.36500 774.000
3.38000 769.000
3.39500 760.000
3.41000 752.000
3.42500 762.000
3.44000 759.000
3.45500 772.000
3.47000 756.000
3.48500 723.000
3.50000 707.000
3.51500 781.000
3.53000 744.000
3.54500 698.000
3.56000 661.000
3.57500 701.000
3.59000 682.000
3.60500 649.000
3.62000 697.000
3.63500 679.000
3.65000 668.000
3.66500 702.000
3.68000 646.000
3.69500 657.000
3.71000 622.000
3.72500 654.000
3.74000 622.000
3.75500 657.000
3.77000 633.000
3.78500 655.000
3.80000 655.000
3.81500 641.000
3.83000 613.000
3.84500 615.000
3.86000 611.000
3.87500 563.000
3.89000 614.000
3.90500 635.000
3.92000 614.000
3.93500 585.000
3.95000 568.000
3.96500 571.000
3.98000 572.000
3.99500 558.000
4.01000 570.000
4.02500 619.000
4.04000 597.000
4.05500 624.000
4.07000 598.000
4.08500 575.000
4.10000 585.000
4.11500 579.000
4.13000 585.000
4.14500 557.000
4.16000 561.000
4.17500 547.000
4.19000 559.000
4.20500 560.000
4.22000 550.000
4.23500 546.000
4.25000 542.000
4.26500 522.000
4.28000 531.000
4.29500 538.000
4.31000 551.000
4.32500 527.000
4.34000 557.000
4.35500 554.000
4.37000 521.000
4.38500 536.000
4.40000 542.000
4.41500 515.000
4.43000 522.000
4.44500 496.000
4.46000 512.000
4.47500 547.000
4.49000 492.000
4.50500 491.000
4.52000 480.000
4.53500 502.000
4.55000 512.000
4.56500 505.000
4.58000 498.000
4.59500 526.000
4.61000 496.000
4.62500 474.000
4.64000 505.000
4.65500 522.000
4.67000 523.000
4.68500 557.000
4.70000 514.000
4.71500 497.000
4.73000 473.000
4.74500 478.000
4.76000 499.000
4.77500 496.000
4.79000 511.000
4.80500 517.000
4.82000 526.000
4.83500 524.000
4.85000 478.000
4.86500 500.000
4.88000 505.000
4.89500 461.000
4.91000 463.000
4.92500 464.000
4.94000 489.000
4.95500 486.000
4.97000 506.000
4.98500 520.000
5.00000 493.000
5.01500 490.000
5.03000 508.000
5.04500 496.000
5.06000 486.000
5.07500 462.000
5.09000 462.000
5.10500 449.000
5.12000 482.000
5.13500 476.000
5.15000 505.000
5.16500 508.000
5.18000 480.000
5.19500 472.000
5.21000 465.000
5.22500 453.000
5.24000 470.000
5.25500 503.000
5.27000 481.000
5.28500 490.000
5.30000 455.000
5.31500 464.000
5.33000 480.000
5.34500 463.000
5.36000 480.000
5.37500 469.000
5.39000 464.000
5.40500 463.000
5.42000 511.000
5.43500 513.000
5.45000 471.000
5.46500 467.000
5.48000 459.000
5.49500 484.000
5.51000 457.000
5.52500 480.000
5.54000 515.000
5.55500 462.000
5.57000 462.000
5.58500 471.000
5.60000 474.000
5.61500 489.000
5.63000 475.000
5.64500 498.000
5.66000 482.000
5.67500 499.000
5.69000 489.000
5.70500 472.000
5.72000 447.000
5.73500 464.000
5.75000 461.000
5.76500 461.000
5.78000 443.000
5.79500 474.000
5.81000 506.000
5.82500 487.000
5.84000 486.000
5.85500 503.000
5.87000 486.000
5.88500 510.000
5.90000 490.000
5.91500 478.000
5.93000 495.000
5.94500 479.000
5.96000 483.000
5.97500 469.000
5.99000 442.000
6.00500 457.000
6.02000 461.000
6.03500 480.000
6.05000 490.000
6.06500 489.000
6.08000 486.000
6.09500 489.000
6.11000 485.000
6.12500 477.000
6.14000 453.000
6.15500 464.000
6.17000 478.000
6.18500 433.000
6.20000 497.000
6.21500 478.000
6.23000 495.000
6.24500 484.000
6.26000 483.000
6.27500 482.000
6.29000 485.000
6.30500 469.000
6.32000 455.000
6.33500 446.000
6.35000 470.000
6.36500 470.000
6.38000 468.000
6.39500 488.000
6.41000 498.000
6.42500 489.000
6.44000 489.000
6.45500 453.000
6.47000 448.000
6.48500 503.000
6.50000 511.000
6.51500 484.000
6.53000 490.000
6.54500 510.000
6.56000 526.000
6.57500 508.000
6.59000 495.000
6.60500 516.000
6.62000 487.000
6.63500 492.000
6.65000 483.000
6.66500 491.000
6.68000 512.000
6.69500 491.000
6.71000 448.000
6.72500 478.000
6.74000 526.000
6.75500 492.000
6.77000 497.000
6.78500 524.000
6.80000 484.000
6.81500 470.000
6.83000 477.000
6.84500 475.000
6.86000 509.000
6.87500 502.000
6.89000 520.000
6.90500 527.000
6.92000 501.000
6.93500 493.000
6.95000 501.000
6.96500 494.000
6.98000 511.000
6.99500 524.000
7.01000 539.000
7.02500 512.000
7.04000 527.000
7.05500 502.000
7.07000 503.000
7.08500 540.000
7.10000 539.000
7.11500 557.000
7.13000 548.000
7.14500 533.000
7.16000 504.000
7.17500 520.000
7.19000 550.000
7.20500 493.000
7.22000 516.000
7.23500 572.000
7.25000 515.000
7.26500 533.000
7.28000 532.000
7.29500 555.000
7.31000 566.000
7.32500 558.000
7.34000 543.000
7.35500 553.000
7.37000 557.000
7.38500 579.000
7.40000 569.000
7.41500 573.000
7.43000 582.000
7.44500 578.000
7.46000 598.000
7.47500 612.000
7.49000 602.000
7.50500 621.000
7.52000 617.000
7.53500 648.000
7.55000 689.000
7.56500 667.000
7.58000 683.000
7.59500 710.000
7.61000 713.000
7.62500 710.000
7.64000 705.000
7.65500 724.000
7.67000 761.000
7.68500 736.000
7.70000 791.000
7.71500 796.000
7.73000 794.000
7.74500 880.000
7.76000 882.000
7.77500 898.000
7.79000 915.000
7.80500 917.000
7.82000 981.000
7.83500 1009.000
7.85000 1058.000
7.86500 1041.000
7.88000 1100.000
7.89500 1100.000
7.91000 1148.000
7.92500 1183.000
7.94000 1157.000
7.95500 1178.000
7.97000 1195.000
7.98500 1185.000
8.00000 1187.000
8.01500 1173.000
8.03000 1143.000
8.04500 1178.000
8.06000 1133.000
8.07500 1113.000
8.09000 1071.000
8.10500 1056.000
8.12000 1051.000
8.13500 1077.000
8.15000 1023.000
8.16500 1047.000
8.18000 1014.000
8.19500 978.000
8.21000 971.000
8.22500 952.000
8.24000 965.000
8.25500 864.000
8.27000 881.000
8.28500 871.000
8.30000 845.000
8.31500 842.000
8.33000 802.000
8.34500 789.000
8.36000 851.000
8.37500 829.000
8.39000 836.000
8.40500 762.000
8.42000 776.000
8.43500 765.000
8.45000 768.000
8.46500 744.000
8.48000 757.000
8.49500 752.000
8.51000 768.000
8.52500 759.000
8.54000 748.000
8.55500 756.000
8.57000 755.000
8.58500 722.000
8.60000 710.000
8.61500 702.000
8.63000 699.000
8.64500 727.000
8.66000 745.000
8.67500 707.000
8.69000 701.000
8.70500 704.000
8.72000 690.000
8.73500 691.000
8.75000 685.000
8.76500 698.000
8.78000 716.000
8.79500 726.000
8.81000 711.000
8.82500 695.000
8.84000 740.000
8.85500 709.000
8.87000 679.000
8.88500 658.000
8.90000 717.000
8.91500 693.000
8.93000 759.000
8.94500 721.000
8.96000 662.000
8.97500 679.000
8.99000 709.000
9.00500 682.000
9.02000 643.000
9.03500 643.000
9.05000 679.000
9.06500 634.000
9.08000 681.000
9.09500 718.000
9.11000 664.000
9.12500 687.000
9.14000 671.000
9.15500 678.000
9.17000 683.000
9.18500 654.000
9.20000 658.000
9.21500 658.000
9.23000 688.000
9.24500 676.000
9.26000 663.000
9.27500 688.000
9.29000 710.000
9.30500 699.000
9.32000 677.000
9.33500 662.000
9.35000 700.000
9.36500 679.000
9.38000 692.000
9.39500 692.000
9.41000 677.000
9.42500 680.000
9.44000 682.000
9.45500 702.000
9.47000 720.000
9.48500 679.000
9.50000 690.000
9.51500 737.000
9.53000 704.000
9.54500 659.000
9.56000 684.000
9.57500 676.000
9.59000 711.000
9.60500 701.000
9.62000 671.000
9.63500 789.000
9.65000 755.000
9.66500 704.000
9.68000 710.000
9.69500 714.000
9.71000 733.000
9.72500 743.000
9.74000 719.000
9.75500 754.000
9.77000 762.000
9.78500 766.000
9.80000 770.000
9.81500 745.000
9.83000 774.000
9.84500 771.000
9.86000 756.000
9.87500 757.000
9.89000 724.000
9.90500 773.000
9.92000 772.000
9.93500 745.000
9.95000 752.000
9.96500 774.000
9.98000 792.000
9.99500 779.000
10.01000 766.000
10.02500 719.000
10.04000 729.000
10.05500 765.000
10.07000 740.000
10.08500 730.000
10.10000 735.000
10.11500 726.000
10.13000 682.000
10.14500 758.000
10.16000 722.000
10.17500 713.000
10.19000 736.000
10.20500 727.000
10.22000 696.000
10.23500 699.000
10.25000 725.000
10.26500 722.000
10.28000 673.000
10.29500 698.000
10.31000 671.000
10.32500 657.000
10.34000 704.000
10.35500 681.000
10.37000 661.000
10.38500 664.000
10.40000 668.000
10.41500 643.000
10.43000 640.000
10.44500 636.000
10.46000 621.000
10.47500 672.000
10.49000 672.000
10.50500 625.000
10.52000 623.000
10.53500 634.000
10.55000 622.000
10.56500 630.000
10.58000 623.000
10.59500 616.000
10.61000 612.000
10.62500 589.000
10.64000 625.000
10.65500 618.000
10.67000 576.000
10.68500 557.000
10.70000 574.000
10.71500 551.000
10.73000 575.000
10.74500 552.000
10.76000 567.000
10.77500 562.000
10.79000 601.000
10.80500 612.000
10.82000 554.000
10.83500 562.000
10.85000 559.000
10.86500 558.000
10.88000 547.000
10.89500 535.000
10.91000 522.000
10.92500 555.000
10.94000 559.000
10.95500 535.000
10.97000 549.000
10.98500 545.000
11.00000 549.000
11.01500 532.000
11.03000 559.000
11.04500 592.000
11.06000 561.000
11.07500 534.000
11.09000 525.000
11.10500 523.000
11.12000 522.000
11.13500 550.000
11.15000 560.000
11.16500 553.000
11.18000 551.000
11.19500 543.000
11.21000 547.000
11.22500 547.000
11.24000 591.000
11.25500 541.000
11.27000 519.000
11.28500 540.000
11.30000 544.000
11.31500 533.000
11.33000 548.000
11.34500 528.000
11.36000 540.000
11.37500 533.000
11.39000 527.000
11.40500 502.000
11.42000 534.000
11.43500 563.000
11.45000 554.000
11.46500 530.000
11.48000 501.000
11.49500 512.000
11.51000 550.000
11.52500 564.000
11.54000 522.000
11.55500 522.000
11.57000 552.000
11.58500 556.000
11.60000 528.000
11.61500 537.000
11.63000 518.000
11.64500 559.000
11.66000 559.000
11.67500 555.000
11.69000 548.000
11.70500 528.000
11.72000 543.000
11.73500 548.000
11.75000 527.000
11.76500 535.000
11.78000 528.000
11.79500 530.000
11.81000 517.000
11.82500 543.000
11.84000 520.000
11.85500 534.000
11.87000 512.000
11.88500 510.000
11.90000 560.000
11.91500 516.000
11.93000 519.000
11.94500 533.000
11.96000 528.000
11.97500 515.000
11.99000 534.000
12.00500 526.000
12.02000 523.000
12.03500 523.000
12.05000 512.000
12.06500 489.000
12.08000 513.000
12.09500 505.000
12.11000 527.000
12.12500 548.000
12.14000 552.000
12.15500 546.000
12.17000 527.000
12.18500 526.000
12.20000 533.000
12.21500 536.000
12.23000 505.000
12.24500 536.000
12.26000 513.000
12.27500 525.000
12.29000 528.000
12.30500 549.000
12.32000 562.000
12.33500 560.000
12.35000 556.000
12.36500 556.000
12.38000 521.000
12.39500 538.000
12.41000 567.000
12.42500 572.000
12.44000 563.000
12.45500 567.000
12.47000 596.000
12.48500 587.000
12.50000 544.000
12.51500 538.000
12.53000 572.000
12.54500 560.000
12.56000 533.000
12.57500 550.000
12.59000 594.000
12.60500 565.000
12.62000 542.000
12.63500 591.000
12.65000 572.000
12.66500 594.000
12.68000 582.000
12.69500 577.000
12.71000 589.000
12.72500 602.000
12.74000 606.000
12.75500 557.000
12.77000 579.000
12.78500 592.000
12.80000 577.000
12.81500 575.000
12.83000 588.000
12.84500 592.000
12.86000 579.000
12.87500 593.000
12.89000 602.000
12.90500 584.000
12.92000 587.000
12.93500 625.000
12.95000 577.000
12.96500 529.000
12.98000 558.000
12.99500 589.000
13.01000 606.000
13.02500 584.000
13.04000 550.000
13.05500 563.000
13.07000 572.000
13.08500 565.000
13.10000 556.000
13.11500 604.000
13.13000 619.000
13.14500 583.000
13.16000 610.000
13.17500 615.000
13.19000 591.000
13.20500 590.000
13.22000 579.000
13.23500 586.000
13.25000 553.000
13.26500 568.000
13.28000 564.000
13.29500 530.000
13.31000 559.000
13.32500 559.000
13.34000 610.000
13.35500 597.000
13.37000 601.000
13.38500 620.000
13.40000 556.000
13.41500 568.000
13.43000 593.000
13.44500 584.000
13.46000 605.000
13.47500 577.000
13.49000 606.000
13.50500 594.000
13.52000 574.000
13.53500 555.000
13.55000 574.000
13.56500 560.000
13.58000 548.000
13.59500 594.000
13.61000 557.000
13.62500 528.000
13.64000 564.000
13.65500 606.000
13.67000 590.000
13.68500 598.000
13.70000 566.000
13.71500 545.000
13.73000 562.000
13.74500 589.000
13.76000 546.000
13.77500 606.000
13.79000 566.000
13.80500 573.000
13.82000 563.000
13.83500 553.000
13.85000 586.000
13.86500 588.000
13.88000 602.000
13.89500 589.000
13.91000 596.000
13.92500 569.000
13.94000 555.000
13.95500 588.000
13.97000 558.000
13.98500 542.000
14.00000 576.000
14.01500 585.000
14.03000 559.000
14.04500 529.000
14.06000 589.000
14.07500 576.000
14.09000 579.000
14.10500 591.000
14.12000 578.000
14.13500 608.000
14.15000 575.000
14.16500 625.000
14.18000 580.000
14.19500 563.000
14.21000 590.000
14.22500 634.000
14.24000 562.000
14.25500 580.000
14.27000 570.000
14.28500 593.000
14.30000 536.000
14.31500 552.000
14.33000 581.000
14.34500 595.000
14.36000 588.000
14.37500 584.000
14.39000 579.000
14.40500 556.000
14.42000 557.000
14.43500 607.000
14.45000 566.000
14.46500 568.000
14.48000 578.000
14.49500 564.000
14.51000 588.000
14.52500 610.000
14.54000 576.000
14.55500 553.000
14.57000 593.000
14.58500 593.000
14.60000 587.000
14.61500 637.000
14.63000 564.000
14.64500 574.000
14.66000 565.000
14.67500 565.000
14.69000 589.000
14.70500 618.000
14.72000 607.000
14.73500 594.000
14.75000 597.000
14.76500 585.000
14.78000 601.000
14.79500 631.000
14.81000 627.000
14.82500 577.000
14.84000 591.000
14.85500 566.000
14.87000 610.000
14.88500 589.000
14.90000 587.000
14.91500 567.000
14.93000 608.000
14.94500 599.000
14.96000 624.000
14.97500 635.000
14.99000 640.000
15.00500 627.000
15.02000 608.000
15.03500 612.000
15.05000 596.000
15.06500 602.000
15.08000 630.000
15.09500 588.000
15.11000 591.000
15.12500 622.000
15.14000 581.000
15.15500 619.000
15.17000 597.000
15.18500 615.000
15.20000 612.000
15.21500 630.000
15.23000 627.000
15.24500 625.000
15.26000 610.000
15.27500 589.000
15.29000 598.000
15.30500 616.000
15.32000 586.000
15.33500 577.000
15.35000 601.000
15.36500 598.000
15.38000 577.000
15.39500 604.000
15.41000 610.000
15.42500 632.000
15.44000 632.000
15.45500 594.000
15.47000 585.000
15.48500 614.000
15.50000 604.000
15.51500 588.000
15.53000 586.000
15.54500 603.000
15.56000 609.000
15.57500 611.000
15.59000 606.000
15.60500 594.000
15.62000 571.000
15.63500 583.000
15.65000 587.000
15.66500 595.000
15.68000 585.000
15.69500 611.000
15.71000 573.000
15.72500 571.000
15.74000 588.000
15.75500 540.000
15.77000 559.000
15.78500 590.000
15.80000 565.000
15.81500 536.000
15.83000 567.000
15.84500 591.000
15.86000 580.000
15.87500 558.000
15.89000 528.000
15.90500 532.000
15.92000 545.000
15.93500 548.000
15.95000 539.000
15.96500 563.000
15.98000 552.000
15.99500 563.000
16.01000 571.000
16.02500 584.000
16.04000 561.000
16.05500 567.000
16.07000 580.000
16.08500 581.000
16.10000 557.000
16.11500 567.000
16.13000 578.000
16.14500 591.000
16.16000 565.000
16.17500 564.000
16.19000 577.000
16.20500 572.000
16.22000 543.000
16.23500 562.000
16.25000 560.000
16.26500 550.000
16.28000 597.000
16.29500 567.000
16.31000 561.000
16.32500 611.000
16.34000 595.000
16.35500 578.000
16.37000 535.000
16.38500 557.000
16.40000 551.000
16.41500 571.000
16.43000 578.000
16.44500 589.000
16.46000 530.000
16.47500 531.000
16.49000 583.000
16.50500 538.000
16.52000 545.000
16.53500 577.000
16.55000 546.000
16.56500 543.000
16.58000 561.000
16.59500 569.000
16.61000 561.000
16.62500 552.000
16.64000 536.000
16.65500 583.000
16.67000 584.000
16.68500 571.000
16.70000 552.000
16.71500 570.000
16.73000 533.000
16.74500 562.000
16.76000 582.000
16.77500 546.000
16.79000 606.000
16.80500 560.000
16.82000 531.000
16.83500 579.000
16.85000 564.000
16.86500 533.000
16.88000 550.000
16.89500 550.000
16.91000 529.000
16.92500 536.000
16.94000 578.000
16.95500 593.000
16.97000 578.000
16.98500 583.000
17.00000 542.000
17.01500 545.000
17.03000 589.000
17.04500 602.000
17.06000 565.000
17.07500 566.000
17.09000 567.000
17.10500 577.000
17.12000 588.000
17.13500 571.000
17.15000 600.000
17.16500 578.000
17.18000 566.000
17.19500 552.000
17.21000 570.000
17.22500 552.000
17.24000 542.000
17.25500 550.000
17.27000 558.000
17.28500 581.000
17.30000 584.000
17.31500 556.000
17.33000 531.000
17.34500 538.000
17.36000 570.000
17.37500 566.000
17.39000 549.000
17.40500 561.000
17.42000 558.000
17.43500 578.000
17.45000 561.000
17.46500 546.000
17.48000 567.000
17.49500 593.000
17.51000 577.000
17.52500 553.000
17.54000 611.000
17.55500 609.000
17.57000 545.000
17.58500 547.000
17.60000 563.000
17.61500 562.000
17.63000 549.000
17.64500 566.000
17.66000 560.000
17.67500 532.000
17.69000 582.000
17.70500 591.000
17.72000 570.000
17.73500 590.000
17.75000 559.000
17.76500 570.000
17.78000 579.000
17.79500 585.000
17.81000 609.000
17.82500 625.000
17.84000 590.000
17.85500 561.000
17.87000 559.000
17.88500 568.000
17.90000 577.000
17.91500 606.000
17.93000 594.000
17.94500 577.000
17.96000 589.000
17.97500 604.000
17.99000 620.000
18.00500 578.000
18.02000 564.000
18.03500 562.000
18.05000 567.000
18.06500 558.000
18.08000 534.000
18.09500 540.000
18.11000 592.000
18.12500 591.000
18.14000 532.000
18.15500 562.000
18.17000 549.000
18.18500 554.000
18.20000 578.000
18.21500 600.000
18.23000 597.000
18.24500 578.000
18.26000 565.000
18.27500 598.000
18.29000 575.000
18.30500 581.000
18.32000 587.000
18.33500 567.000
18.35000 579.000
18.36500 607.000
18.38000 578.000
18.39500 567.000
18.41000 553.000
18.42500 576.000
18.44000 621.000
18.45500 613.000
18.47000 549.000
18.48500 592.000
18.50000 585.000
18.51500 572.000
18.53000 574.000
18.54500 594.000
18.56000 598.000
18.57500 558.000
18.59000 566.000
18.60500 615.000
18.62000 569.000
18.63500 576.000
18.65000 574.000
18.66500 555.000
18.68000 593.000
18.69500 591.000
18.71000 600.000
18.72500 584.000
18.74000 592.000
18.75500 595.000
18.77000 565.000
18.78500 568.000
18.80000 636.000
18.81500 594.000
18.83000 606.000
18.84500 620.000
18.86000 596.000
18.87500 589.000
18.89000 583.000
18.90500 617.000
18.92000 599.000
18.93500 602.000
18.95000 573.000
18.96500 561.000
18.98000 617.000
18.99500 602.000
19.01000 588.000
19.02500 573.000
19.04000 574.000
19.05500 577.000
19.07000 595.000
19.08500 617.000
19.10000 587.000
19.11500 586.000
19.13000 593.000
19.14500 567.000
19.16000 591.000
19.17500 567.000
19.19000 593.000
19.20500 601.000
19.22000 568.000
19.23500 578.000
19.25000 613.000
19.26500 580.000
19.28000 582.000
19.29500 575.000
19.31000 569.000
19.32500 565.000
19.34000 560.000
19.35500 625.000
19.37000 627.000
19.38500 584.000
19.40000 596.000
19.41500 579.000
19.43000 591.000
19.44500 559.000
19.46000 598.000
19.47500 554.000
19.49000 575.000
19.50500 594.000
19.52000 549.000
19.53500 579.000
19.55000 564.000
19.56500 585.000
19.58000 559.000
19.59500 575.000
19.61000 619.000
19.62500 603.000
19.64000 599.000
19.65500 587.000
19.67000 578.000
19.68500 572.000
19.70000 579.000
19.71500 584.000
19.73000 618.000
19.74500 595.000
19.76000 593.000
19.77500 572.000
19.79000 587.000
19.80500 611.000
19.82000 585.000
19.83500 570.000
19.85000 552.000
19.86500 544.000
19.88000 544.000
19.89500 537.000
19.91000 570.000
19.92500 602.000
19.94000 601.000
19.95500 613.000
19.97000 590.000
19.98500 581.000
20.00000 593.000
20.01500 594.000
20.03000 616.000
20.04500 599.000
20.06000 588.000
20.07500 608.000
20.09000 579.000
20.10500 596.000
20.12000 572.000
20.13500 560.000
20.15000 587.000
20.16500 582.000
20.18000 589.000
20.19500 602.000
20.21000 618.000
20.22500 583.000
20.24000 610.000
20.25500 598.000
20.27000 595.000
20.28500 595.000
20.30000 575.000
20.31500 592.000
20.33000 597.000
20.34500 589.000
20.36000 597.000
20.37500 591.000
20.39000 589.000
20.40500 588.000
20.42000 593.000
20.43500 583.000
20.45000 601.000
20.46500 599.000
20.48000 571.000
20.49500 578.000
20.51000 582.000
20.52500 585.000
20.54000 611.000
20.55500 629.000
20.57000 617.000
20.58500 616.000
20.60000 626.000
20.61500 591.000
20.63000 557.000
20.64500 578.000
20.66000 604.000
20.67500 615.000
20.69000 563.000
20.70500 599.000
20.72000 612.000
20.73500 577.000
20.75000 573.000
20.76500 561.000
20.78000 586.000
20.79500 586.000
20.81000 576.000
20.82500 583.000
20.84000 638.000
20.85500 607.000
20.87000 594.000
20.88500 607.000
20.90000 644.000
20.91500 611.000
20.93000 615.000
20.94500 615.000
20.96000 599.000
20.97500 649.000
20.99000 601.000
21.00500 570.000
21.02000 589.000
21.03500 628.000
21.05000 591.000
21.06500 630.000
21.08000 615.000
21.09500 607.000
21.11000 659.000
21.12500 617.000
21.14000 640.000
21.15500 612.000
21.17000 615.000
21.18500 594.000
21.20000 647.000
21.21500 630.000
21.23000 628.000
21.24500 694.000
21.26000 687.000
21.27500 649.000
21.29000 623.000
21.30500 665.000
21.32000 679.000
21.33500 625.000
21.35000 666.000
21.36500 684.000
21.38000 638.000
21.39500 649.000
21.41000 661.000
21.42500 653.000
21.44000 670.000
21.45500 678.000
21.47000 652.000
21.48500 635.000
21.50000 634.000
21.51500 664.000
21.53000 684.000
21.54500 656.000
21.56000 616.000
21.57500 675.000
21.59000 673.000
21.60500 692.000
21.62000 638.000
21.63500 672.000
21.65000 663.000
21.66500 660.000
21.68000 639.000
21.69500 661.000
21.71000 705.000
21.72500 672.000
21.74000 688.000
21.75500 649.000
21.77000 669.000
21.78500 672.000
21.80000 659.000
21.81500 664.000
21.83000 672.000
21.84500 662.000
21.86000 705.000
21.87500 682.000
21.89000 687.000
21.90500 651.000
21.92000 685.000
21.93500 717.000
21.95000 691.000
21.96500 676.000
21.98000 655.000
21.99500 703.000
22.01000 677.000
22.02500 720.000
22.04000 678.000
22.05500 632.000
22.07000 664.000
22.08500 679.000
22.10000 723.000
22.11500 665.000
22.13000 693.000
22.14500 678.000
22.16000 664.000
22.17500 689.000
22.19000 658.000
22.20500 695.000
22.22000 693.000
22.23500 693.000
22.25000 739.000
22.26500 693.000
22.28000 673.000
22.29500 712.000
22.31000 658.000
22.32500 672.000
22.34000 746.000
22.35500 707.000
22.37000 657.000
22.38500 670.000
22.40000 671.000
22.41500 676.000
22.43000 690.000
22.44500 685.000
22.46000 713.000
22.47500 685.000
22.49000 707.000
22.50500 706.000
22.52000 683.000
22.53500 708.000
22.55000 701.000
22.56500 680.000
22.58000 731.000
22.59500 719.000
22.61000 651.000
22.62500 671.000
22.64000 677.000
22.65500 693.000
22.67000 729.000
22.68500 687.000
22.70000 704.000
22.71500 722.000
22.73000 702.000
22.74500 700.000
22.76000 701.000
22.77500 715.000
22.79000 737.000
22.80500 734.000
22.82000 660.000
22.83500 683.000
22.85000 680.000
22.86500 708.000
22.88000 711.000
22.89500 737.000
22.91000 680.000
22.92500 721.000
22.94000 733.000
22.95500 729.000
22.97000 741.000
22.98500 725.000
23.00000 716.000
23.01500 689.000
23.03000 731.000
23.04500 713.000
23.06000 741.000
23.07500 756.000
23.09000 750.000
23.10500 757.000
23.12000 736.000
23.13500 718.000
23.15000 719.000
23.16500 711.000
23.18000 725.000
23.19500 728.000
23.21000 678.000
23.22500 724.000
23.24000 730.000
23.25500 746.000
23.27000 720.000
23.28500 726.000
23.30000 742.000
23.31500 737.000
23.33000 702.000
23.34500 698.000
23.36000 705.000
23.37500 709.000
23.39000 696.000
23.40500 709.000
23.42000 750.000
23.43500 756.000
23.45000 744.000
23.46500 752.000
23.48000 710.000
23.49500 715.000
23.51000 740.000
23.52500 717.000
23.54000 716.000
23.55500 738.000
23.57000 710.000
23.58500 695.000
23.60000 724.000
23.61500 710.000
23.63000 709.000
23.64500 700.000
23.66000 709.000
23.67500 732.000
23.69000 705.000
23.70500 717.000
23.72000 710.000
23.73500 696.000
23.75000 711.000
23.76500 721.000
23.78000 679.000
23.79500 691.000
23.81000 658.000
23.82500 685.000
23.84000 713.000
23.85500 716.000
23.87000 693.000
23.88500 691.000
23.90000 738.000
23.91500 678.000
23.93000 720.000
23.94500 718.000
23.96000 708.000
23.97500 731.000
23.99000 678.000
24.00500 674.000
24.02000 692.000
24.03500 699.000
24.05000 685.000
24.06500 673.000
24.08000 716.000
24.09500 695.000
24.11000 725.000
24.12500 710.000
24.14000 690.000
24.15500 738.000
24.17000 693.000
24.18500 667.000
24.20000 679.000
24.21500 716.000
24.23000 659.000
24.24500 675.000
24.26000 680.000
24.27500 665.000
24.29000 708.000
24.30500 710.000
24.32000 688.000
24.33500 693.000
24.35000 694.000
24.36500 678.000
24.38000 743.000
24.39500 757.000
24.41000 713.000
24.42500 722.000
24.44000 730.000
24.45500 754.000
24.47000 710.000
24.48500 676.000
24.50000 704.000
24.51500 713.000
24.53000 664.000
24.54500 678.000
24.56000 670.000
24.57500 727.000
24.59000 718.000
24.60500 742.000
24.62000 729.000
24.63500 682.000
24.65000 691.000
24.66500 711.000
24.68000 740.000
24.69500 726.000
24.71000 745.000
24.72500 697.000
24.74000 664.000
24.75500 728.000
24.77000 736.000
24.78500 718.000
24.80000 692.000
24.81500 688.000
24.83000 702.000
24.84500 757.000
24.86000 721.000
24.87500 712.000
24.89000 656.000
24.90500 697.000
24.92000 680.000
24.93500 722.000
24.95000 679.000
24.96500 694.000
24.98000 711.000
24.99500 719.000
25.01000 725.000
25.02500 757.000
25.04000 735.000
25.05500 723.000
25.07000 715.000
25.08500 766.000
25.10000 725.000
25.11500 683.000
25.13000 701.000
25.14500 712.000
25.16000 729.000
25.17500 767.000
25.19000 710.000
25.20500 748.000
25.22000 776.000
25.23500 719.000
25.25000 734.000
25.26500 723.000
25.28000 722.000
25.29500 730.000
25.31000 745.000
25.32500 770.000
25.34000 729.000
25.35500 747.000
25.37000 713.000
25.38500 764.000
25.40000 732.000
25.41500 727.000
25.43000 739.000
25.44500 753.000
25.46000 761.000
25.47500 727.000
25.49000 750.000
25.50500 758.000
25.52000 741.000
25.53500 733.000
25.55000 729.000
25.56500 715.000
25.58000 773.000
25.59500 767.000
25.61000 745.000
25.62500 730.000
25.64000 759.000
25.65500 754.000
25.67000 763.000
25.68500 749.000
25.70000 770.000
25.71500 776.000
25.73000 764.000
25.74500 757.000
25.76000 762.000
25.77500 745.000
25.79000 780.000
25.80500 744.000
25.82000 775.000
25.83500 782.000
25.85000 747.000
25.86500 737.000
25.88000 813.000
25.89500 804.000
25.91000 796.000
25.92500 775.000
25.94000 771.000
25.95500 745.000
25.97000 758.000
25.98500 756.000
26.00000 784.000
26.01500 774.000
26.03000 814.000
26.04500 768.000
26.06000 776.000
26.07500 800.000
26.09000 834.000
26.10500 775.000
26.12000 818.000
26.13500 846.000
26.15000 816.000
26.16500 797.000
26.18000 803.000
26.19500 770.000
26.21000 734.000
26.22500 791.000
26.24000 798.000
26.25500 827.000
26.27000 852.000
26.28500 839.000
26.30000 825.000
26.31500 867.000
26.33000 850.000
26.34500 802.000
26.36000 829.000
26.37500 823.000
26.39000 807.000
26.40500 833.000
26.42000 873.000
26.43500 846.000
26.45000 842.000
26.46500 869.000
26.48000 846.000
26.49500 896.000
26.51000 884.000
26.52500 927.000
26.54000 896.000
26.55500 902.000
26.57000 876.000
26.58500 936.000
26.60000 929.000
26.61500 892.000
26.63000 935.000
26.64500 933.000
26.66000 913.000
26.67500 914.000
26.69000 941.000
26.70500 952.000
26.72000 933.000
26.73500 935.000
26.75000 933.000
26.76500 968.000
26.78000 949.000
26.79500 966.000
26.81000 964.000
26.82500 967.000
26.84000 984.000
26.85500 983.000
26.87000 998.000
26.88500 1001.000
26.90000 1034.000
26.91500 1027.000
26.93000 1068.000
26.94500 1047.000
26.96000 1084.000
26.97500 1044.000
26.99000 1037.000
27.00500 1072.000
27.02000 1125.000
27.03500 1140.000
27.05000 1110.000
27.06500 1115.000
27.08000 1106.000
27.09500 1126.000
27.11000 1131.000
27.12500 1166.000
27.14000 1165.000
27.15500 1202.000
27.17000 1210.000
27.18500 1141.000
27.20000 1190.000
27.21500 1178.000
27.23000 1174.000
27.24500 1230.000
27.26000 1245.000
27.27500 1231.000
27.29000 1215.000
27.30500 1286.000
27.32000 1298.000
27.33500 1299.000
27.35000 1291.000
27.36500 1289.000
27.38000 1314.000
27.39500 1384.000
27.41000 1372.000
27.42500 1401.000
27.44000 1362.000
27.45500 1398.000
27.47000 1387.000
27.48500 1432.000
27.50000 1411.000
27.51500 1452.000
27.53000 1437.000
27.54500 1489.000
27.56000 1470.000
27.57500 1538.000
27.59000 1498.000
27.60500 1525.000
27.62000 1554.000
27.63500 1620.000
27.65000 1705.000
27.66500 1725.000
27.68000 1626.000
27.69500 1694.000
27.71000 1735.000
27.72500 1774.000
27.74000 1753.000
27.75500 1768.000
27.77000 1882.000
27.78500 1862.000
27.80000 1928.000
27.81500 1921.000
27.83000 1920.000
27.84500 2046.000
27.86000 2064.000
27.87500 2138.000
27.89000 2173.000
27.90500 2244.000
27.92000 2288.000
27.93500 2437.000
27.95000 2457.000
27.96500 2494.000
27.98000 2544.000
27.99500 2570.000
28.01000 2688.000
28.02500 2769.000
28.04000 2784.000
28.05500 2848.000
28.07000 2879.000
28.08500 2967.000
28.10000 2927.000
28.11500 2968.000
28.13000 2986.000
28.14500 3020.000
28.16000 2947.000
28.17500 2942.000
28.19000 2914.000
28.20500 2856.000
28.22000 2893.000
28.23500 2814.000
28.25000 2783.000
28.26500 2656.000
28.28000 2633.000
28.29500 2702.000
28.31000 2571.000
28.32500 2467.000
28.34000 2408.000
28.35500 2385.000
28.37000 2338.000
28.38500 2259.000
28.40000 2234.000
28.41500 2136.000
28.43000 2066.000
28.44500 1966.000
28.46000 1760.000
28.47500 1792.000
28.49000 1788.000
28.50500 1698.000
28.52000 1643.000
28.53500 1615.000
28.55000 1517.000
28.56500 1532.000
28.58000 1480.000
28.59500 1456.000
28.61000 1402.000
28.62500 1379.000
28.64000 1327.000
28.65500 1352.000
28.67000 1272.000
28.68500 1216.000
28.70000 1255.000
28.71500 1214.000
28.73000 1173.000
28.74500 1168.000
28.76000 1175.000
28.77500 1117.000
28.79000 1160.000
28.80500 1123.000
28.82000 1130.000
28.83500 1083.000
28.85000 1048.000
28.86500 1036.000
28.88000 1057.000
28.89500 1057.000
28.91000 1026.000
28.92500 1055.000
28.94000 1009.000
28.95500 1006.000
28.97000 1052.000
28.98500 1021.000
29.00000 968.000
29.01500 1013.000
29.03000 1021.000
29.04500 980.000
29.06000 967.000
29.07500 939.000
29.09000 959.000
29.10500 912.000
29.12000 930.000
29.13500 951.000
29.15000 946.000
29.16500 952.000
29.18000 945.000
29.19500 923.000
29.21000 910.000
29.22500 868.000
29.24000 862.000
29.25500 864.000
29.27000 891.000
29.28500 863.000
29.30000 889.000
29.31500 899.000
29.33000 846.000
29.34500 918.000
29.36000 869.000
29.37500 825.000
29.39000 820.000
29.40500 851.000
29.42000 817.000
29.43500 806.000
29.45000 818.000
29.46500 813.000
29.48000 839.000
29.49500 818.000
29.51000 814.000
29.52500 841.000
29.54000 799.000
29.55500 761.000
29.57000 812.000
29.58500 793.000
29.60000 762.000
29.61500 776.000
29.63000 805.000
29.64500 740.000
29.66000 762.000
29.67500 737.000
29.69000 708.000
29.70500 768.000
29.72000 754.000
29.73500 737.000
29.75000 733.000
29.76500 719.000
29.78000 731.000
29.79500 698.000
29.81000 724.000
29.82500 739.000
29.84000 718.000
29.85500 727.000
29.87000 730.000
29.88500 696.000
29.90000 720.000
29.91500 693.000
29.93000 726.000
29.94500 716.000
29.96000 704.000
29.97500 705.000
29.99000 705.000
30.00500 673.000
30.02000 697.000
30.03500 721.000
30.05000 696.000
30.06500 684.000
30.08000 670.000
30.09500 734.000
30.11000 685.000
30.12500 685.000
30.14000 657.000
30.15500 700.000
30.17000 723.000
30.18500 643.000
30.20000 646.000
30.21500 670.000
30.23000 652.000
30.24500 685.000
30.26000 663.000
30.27500 654.000
30.29000 641.000
30.30500 641.000
30.32000 665.000
30.33500 661.000
30.35000 658.000
30.36500 683.000
30.38000 633.000
30.39500 636.000
30.41000 643.000
30.42500 634.000
30.44000 654.000
30.45500 669.000
30.47000 660.000
30.48500 658.000
30.50000 654.000
30.51500 674.000
30.53000 645.000
30.54500 620.000
30.56000 671.000
30.57500 636.000
30.59000 627.000
30.60500 636.000
30.62000 649.000
30.63500 642.000
30.65000 645.000
30.66500 668.000
30.68000 642.000
30.69500 609.000
30.71000 627.000
30.72500 631.000
30.74000 618.000
30.75500 655.000
30.77000 632.000
30.78500 625.000
30.80000 611.000
30.81500 666.000
30.83000 645.000
30.84500 633.000
30.86000 642.000
30.87500 643.000
30.89000 622.000
30.90500 577.000
30.92000 639.000
30.93500 664.000
30.95000 589.000
30.96500 579.000
30.98000 572.000
30.99500 576.000
31.01000 577.000
31.02500 602.000
31.04000 621.000
31.05500 627.000
31.07000 611.000
31.08500 636.000
31.10000 611.000
31.11500 597.000
31.13000 627.000
31.14500 614.000
31.16000 579.000
31.17500 622.000
31.19000 593.000
31.20500 585.000
31.22000 596.000
31.23500 575.000
31.25000 600.000
31.26500 591.000
31.28000 582.000
31.29500 562.000
31.31000 577.000
31.32500 583.000
31.34000 594.000
31.35500 575.000
31.37000 590.000
31.38500 569.000
31.40000 596.000
31.41500 586.000
31.43000 597.000
31.44500 597.000
31.46000 564.000
31.47500 582.000
31.49000 551.000
31.50500 547.000
31.52000 590.000
31.53500 575.000
31.55000 540.000
31.56500 556.000
31.58000 564.000
31.59500 581.000
31.61000 553.000
31.62500 547.000
31.64000 576.000
31.65500 575.000
31.67000 574.000
31.68500 569.000
31.70000 547.000
31.71500 548.000
31.73000 592.000
31.74500 563.000
31.76000 541.000
31.77500 561.000
31.79000 571.000
31.80500 558.000
31.82000 597.000
31.83500 529.000
31.85000 535.000
31.86500 575.000
31.88000 569.000
31.89500 593.000
31.91000 599.000
31.92500 566.000
31.94000 566.000
31.95500 511.000
31.97000 528.000
31.98500 576.000
32.00000 556.000
32.01500 582.000
32.03000 582.000
32.04500 529.000
32.06000 554.000
32.07500 574.000
32.09000 555.000
32.10500 563.000
32.12000 568.000
32.13500 577.000
32.15000 570.000
32.16500 566.000
32.18000 545.000
32.19500 537.000
32.21000 557.000
32.22500 579.000
32.24000 529.000
32.25500 533.000
32.27000 564.000
32.28500 583.000
32.30000 560.000
32.31500 564.000
32.33000 541.000
32.34500 546.000
32.36000 571.000
32.37500 559.000
32.39000 552.000
32.40500 553.000
32.42000 586.000
32.43500 576.000
32.45000 564.000
32.46500 552.000
32.48000 543.000
32.49500 560.000
32.51000 562.000
32.52500 546.000
32.54000 527.000
32.55500 539.000
32.57000 537.000
32.58500 535.000
32.60000 523.000
32.61500 524.000
32.63000 523.000
32.64500 542.000
32.66000 490.000
32.67500 496.000
32.69000 504.000
32.70500 518.000
32.72000 519.000
32.73500 529.000
32.75000 517.000
32.76500 486.000
32.78000 473.000
32.79500 504.000
32.81000 486.000
32.82500 458.000
32.84000 493.000
32.85500 486.000
32.87000 486.000
32.88500 480.000
32.90000 484.000
32.91500 495.000
32.93000 542.000
32.94500 487.000
32.96000 512.000
32.97500 500.000
32.99000 502.000
33.00500 469.000
33.02000 491.000
33.03500 454.000
33.05000 470.000
33.06500 486.000
33.08000 483.000
33.09500 481.000
33.11000 460.000
33.12500 480.000
33.14000 471.000
33.15500 486.000
33.17000 495.000
33.18500 441.000
33.20000 474.000
33.21500 483.000
33.23000 429.000
33.24500 445.000
33.26000 507.000
33.27500 485.000
33.29000 437.000
33.30500 465.000
33.32000 473.000
33.33500 454.000
33.35000 439.000
33.36500 463.000
33.38000 464.000
33.39500 449.000
33.41000 474.000
33.42500 464.000
33.44000 476.000
33.45500 468.000
33.47000 479.000
33.48500 448.000
33.50000 431.000
33.51500 424.000
33.53000 391.000
33.54500 430.000
33.56000 424.000
33.57500 457.000
33.59000 472.000
33.60500 444.000
33.62000 444.000
33.63500 442.000
33.65000 482.000
33.66500 454.000
33.68000 437.000
33.69500 415.000
33.71000 451.000
33.72500 441.000
33.74000 423.000
33.75500 447.000
33.77000 495.000
33.78500 475.000
33.80000 463.000
33.81500 465.000
33.83000 451.000
33.84500 454.000
33.86000 450.000
33.87500 445.000
33.89000 427.000
33.90500 447.000
33.92000 429.000
33.93500 454.000
33.95000 479.000
33.96500 444.000
33.98000 471.000
33.99500 467.000
34.01000 466.000
34.02500 435.000
34.04000 456.000
34.05500 435.000
34.07000 429.000
34.08500 449.000
34.10000 446.000
34.11500 439.000
34.13000 431.000
34.14500 444.000
34.16000 429.000
34.17500 435.000
34.19000 458.000
34.20500 442.000
34.22000 429.000
34.23500 421.000
34.25000 424.000
34.26500 436.000
34.28000 429.000
34.29500 449.000
34.31000 444.000
34.32500 416.000
34.34000 413.000
34.35500 434.000
34.37000 449.000
34.38500 460.000
34.40000 421.000
34.41500 448.000
34.43000 440.000
34.44500 421.000
34.46000 448.000
34.47500 447.000
34.49000 427.000
34.50500 457.000
34.52000 440.000
34.53500 427.000
34.55000 432.000
34.56500 430.000
34.58000 423.000
34.59500 443.000
34.61000 427.000
34.62500 411.000
34.64000 412.000
34.65500 429.000
34.67000 457.000
34.68500 428.000
34.70000 417.000
34.71500 433.000
34.73000 429.000
34.74500 416.000
34.76000 436.000
34.77500 469.000
34.79000 482.000
34.80500 470.000
34.82000 464.000
34.83500 444.000
34.85000 433.000
34.86500 464.000
34.88000 436.000
34.89500 436.000
34.91000 435.000
34.92500 460.000
34.94000 458.000
34.95500 462.000
34.97000 450.000
34.98500 466.000
35.00000 435.000
35.01500 438.000
35.03000 426.000
35.04500 451.000
35.06000 450.000
35.07500 450.000
35.09000 467.000
35.10500 465.000
35.12000 496.000
35.13500 490.000
35.15000 494.000
35.16500 479.000
35.18000 505.000
35.19500 505.000
35.21000 480.000
35.22500 480.000
35.24000 484.000
35.25500 461.000
35.27000 488.000
35.28500 461.000
35.30000 467.000
35.31500 522.000
35.33000 478.000
35.34500 517.000
35.36000 486.000
35.37500 501.000
35.39000 513.000
35.40500 486.000
35.42000 485.000
35.43500 513.000
35.45000 486.000
35.46500 459.000
35.48000 464.000
35.49500 479.000
35.51000 498.000
35.52500 491.000
35.54000 484.000
35.55500 497.000
35.57000 533.000
35.58500 541.000
35.60000 528.000
35.61500 513.000
35.63000 503.000
35.64500 476.000
35.66000 511.000
35.67500 535.000
35.69000 499.000
35.70500 535.000
35.72000 545.000
35.73500 485.000
35.75000 490.000
35.76500 487.000
35.78000 515.000
35.79500 494.000
35.81000 522.000
35.82500 496.000
35.84000 489.000
35.85500 472.000
35.87000 508.000
35.88500 537.000
35.90000 506.000
35.91500 484.000
35.93000 479.000
35.94500 495.000
35.96000 517.000
35.97500 526.000
35.99000 500.000
36.00500 486.000
36.02000 526.000
36.03500 512.000
36.05000 509.000
36.06500 485.000
36.08000 513.000
36.09500 508.000
36.11000 493.000
36.12500 496.000
36.14000 480.000
36.15500 492.000
36.17000 482.000
36.18500 538.000
36.20000 496.000
36.21500 485.000
36.23000 468.000
36.24500 469.000
36.26000 496.000
36.27500 496.000
36.29000 519.000
36.30500 511.000
36.32000 498.000
36.33500 471.000
36.35000 472.000
36.36500 485.000
36.38000 460.000
36.39500 486.000
36.41000 505.000
36.42500 461.000
36.44000 482.000
36.45500 473.000
36.47000 476.000
36.48500 477.000
36.50000 499.000
36.51500 506.000
36.53000 458.000
36.54500 460.000
36.56000 475.000
36.57500 494.000
36.59000 510.000
36.60500 465.000
36.62000 432.000
36.63500 500.000
36.65000 500.000
36.66500 497.000
36.68000 494.000
36.69500 485.000
36.71000 470.000
36.72500 464.000
36.74000 446.000
36.75500 458.000
36.77000 450.000
36.78500 450.000
36.80000 437.000
36.81500 476.000
36.83000 478.000
36.84500 479.000
36.86000 496.000
36.87500 462.000
36.89000 465.000
36.90500 459.000
36.92000 477.000
36.93500 520.000
36.95000 479.000
36.96500 465.000
36.98000 453.000
36.99500 479.000
37.01000 468.000
37.02500 482.000
37.04000 498.000
37.05500 447.000
37.07000 453.000
37.08500 484.000
37.10000 478.000
37.11500 468.000
37.13000 417.000
37.14500 440.000
37.16000 447.000
37.17500 484.000
37.19000 466.000
37.20500 456.000
37.22000 458.000
37.23500 449.000
37.25000 443.000
37.26500 460.000
37.28000 481.000
37.29500 481.000
37.31000 482.000
37.32500 478.000
37.34000 464.000
37.35500 479.000
37.37000 450.000
37.38500 469.000
37.40000 470.000
37.41500 477.000
37.43000 468.000
37.44500 439.000
37.46000 431.000
37.47500 425.000
37.49000 461.000
37.50500 449.000
37.52000 449.000
37.53500 464.000
37.55000 438.000
37.56500 438.000
37.58000 429.000
37.59500 458.000
37.61000 473.000
37.62500 473.000
37.64000 462.000
37.65500 465.000
37.67000 446.000
37.68500 417.000
37.70000 433.000
37.71500 432.000
37.73000 422.000
37.74500 421.000
37.76000 481.000
37.77500 455.000
37.79000 451.000
37.80500 470.000
37.82000 496.000
37.83500 456.000
37.85000 447.000
37.86500 410.000
37.88000 441.000
37.89500 426.000
37.91000 435.000
37.92500 432.000
37.94000 422.000
37.95500 452.000
37.97000 414.000
37.98500 435.000
38.00000 422.000
38.01500 448.000
38.03000 435.000
38.04500 435.000
38.06000 447.000
38.07500 406.000
38.09000 452.000
38.10500 439.000
38.12000 414.000
38.13500 404.000
38.15000 435.000
38.16500 448.000
38.18000 433.000
38.19500 424.000
38.21000 403.000
38.22500 392.000
38.24000 433.000
38.25500 409.000
38.27000 437.000
38.28500 439.000
38.30000 427.000
38.31500 424.000
38.33000 403.000
38.34500 416.000
38.36000 385.000
38.37500 423.000
38.39000 410.000
38.40500 397.000
38.42000 402.000
38.43500 415.000
38.45000 427.000
38.46500 428.000
38.48000 428.000
38.49500 430.000
38.51000 439.000
38.52500 409.000
38.54000 402.000
38.55500 392.000
38.57000 417.000
38.58500 417.000
38.60000 372.000
38.61500 386.000
38.63000 379.000
38.64500 411.000
38.66000 426.000
38.67500 435.000
38.69000 419.000
38.70500 421.000
38.72000 418.000
38.73500 419.000
38.75000 412.000
38.76500 403.000
38.78000 438.000
38.79500 427.000
38.81000 381.000
38.82500 402.000
38.84000 404.000
38.85500 393.000
38.87000 392.000
38.88500 403.000
38.90000 407.000
38.91500 396.000
38.93000 407.000
38.94500 393.000
38.96000 400.000
38.97500 391.000
38.99000 402.000
39.00500 397.000
39.02000 394.000
39.03500 414.000
39.05000 409.000
39.06500 376.000
39.08000 408.000
39.09500 406.000
39.11000 392.000
39.12500 393.000
39.14000 346.000
39.15500 359.000
39.17000 406.000
39.18500 415.000
39.20000 395.000
39.21500 401.000
39.23000 377.000
39.24500 398.000
39.26000 376.000
39.27500 375.000
39.29000 369.000
39.30500 389.000
39.32000 392.000
39.33500 360.000
39.35000 374.000
39.36500 362.000
39.38000 388.000
39.39500 388.000
39.41000 370.000
39.42500 370.000
39.44000 379.000
39.45500 375.000
39.47000 397.000
39.48500 393.000
39.50000 378.000
39.51500 377.000
39.53000 367.000
39.54500 359.000
39.56000 339.000
39.57500 372.000
39.59000 388.000
39.60500 400.000
39.62000 367.000
39.63500 379.000
39.65000 351.000
39.66500 368.000
39.68000 400.000
39.69500 362.000
39.71000 375.000
39.72500 369.000
39.74000 348.000
39.75500 380.000
39.77000 384.000
39.78500 385.000
39.80000 355.000
39.81500 390.000
39.83000 364.000
39.84500 356.000
39.86000 356.000
39.87500 355.000
39.89000 370.000
39.90500 366.000
39.92000 346.000
39.93500 331.000
39.95000 362.000
39.96500 366.000
39.98000 347.000
39.99500 363.000
40.01000 379.000
40.02500 370.000
40.04000 376.000
40.05500 363.000
40.07000 385.000
40.08500 377.000
40.10000 352.000
40.11500 367.000
40.13000 363.000
40.14500 352.000
40.16000 367.000
40.17500 350.000
40.19000 346.000
40.20500 360.000
40.22000 377.000
40.23500 376.000
40.25000 381.000
40.26500 396.000
40.28000 348.000
40.29500 357.000
40.31000 383.000
40.32500 389.000
40.34000 374.000
40.35500 387.000
40.37000 348.000
40.38500 381.000
40.40000 356.000
40.41500 342.000
40.43000 350.000
40.44500 347.000
40.46000 345.000
40.47500 307.000
40.49000 335.000
40.50500 336.000
40.52000 313.000
40.53500 324.000
40.55000 342.000
40.56500 345.000
40.58000 380.000
40.59500 345.000
40.61000 372.000
40.62500 359.000
40.64000 359.000
40.65500 344.000
40.67000 363.000
40.68500 353.000
40.70000 361.000
40.71500 372.000
40.73000 366.000
40.74500 376.000
40.76000 350.000
40.77500 386.000
40.79000 391.000
40.80500 354.000
40.82000 364.000
40.83500 370.000
40.85000 375.000
40.86500 381.000
40.88000 336.000
40.89500 357.000
40.91000 352.000
40.92500 345.000
40.94000 341.000
40.95500 319.000
40.97000 329.000
40.98500 343.000
41.00000 351.000
41.01500 352.000
41.03000 353.000
41.04500 340.000
41.06000 357.000
41.07500 362.000
41.09000 327.000
41.10500 344.000
41.12000 356.000
41.13500 349.000
41.15000 338.000
41.16500 372.000
41.18000 341.000
41.19500 356.000
41.21000 355.000
41.22500 340.000
41.24000 355.000
41.25500 344.000
41.27000 344.000
41.28500 324.000
41.30000 330.000
41.31500 328.000
41.33000 344.000
41.34500 339.000
41.36000 368.000
41.37500 366.000
41.39000 343.000
41.40500 335.000
41.42000 334.000
41.43500 321.000
41.45000 355.000
41.46500 362.000
41.48000 324.000
41.49500 365.000
41.51000 353.000
41.52500 316.000
41.54000 313.000
41.55500 338.000
41.57000 343.000
41.58500 361.000
41.60000 349.000
41.61500 373.000
41.63000 365.000
41.64500 362.000
41.66000 354.000
41.67500 344.000
41.69000 361.000
41.70500 330.000
41.72000 350.000
41.73500 348.000
41.75000 359.000
41.76500 322.000
41.78000 325.000
41.79500 348.000
41.81000 343.000
41.82500 323.000
41.84000 317.000
41.85500 314.000
41.87000 321.000
41.88500 326.000
41.90000 325.000
41.91500 331.000
41.93000 353.000
41.94500 330.000
41.96000 323.000
41.97500 343.000
41.99000 338.000
42.00500 349.000
42.02000 330.000
42.03500 353.000
42.05000 318.000
42.06500 360.000
42.08000 330.000
42.09500 346.000
42.11000 350.000
42.12500 356.000
42.14000 354.000
42.15500 361.000
42.17000 348.000
42.18500 351.000
42.20000 340.000
42.21500 329.000
42.23000 351.000
42.24500 356.000
42.26000 339.000
42.27500 343.000
42.29000 368.000
42.30500 330.000
42.32000 347.000
42.33500 349.000
42.35000 348.000
42.36500 342.000
42.38000 341.000
42.39500 334.000
42.41000 374.000
42.42500 382.000
42.44000 356.000
42.45500 340.000
42.47000 355.000
42.48500 368.000
42.50000 338.000
42.51500 356.000
42.53000 327.000
42.54500 340.000
42.56000 330.000
42.57500 355.000
42.59000 356.000
42.60500 368.000
42.62000 335.000
42.63500 344.000
42.65000 352.000
42.66500 348.000
42.68000 357.000
42.69500 359.000
42.71000 367.000
42.72500 354.000
42.74000 368.000
42.75500 346.000
42.77000 385.000
42.78500 362.000
42.80000 351.000
42.81500 379.000
42.83000 356.000
42.84500 366.000
42.86000 356.000
42.87500 351.000
42.89000 371.000
42.90500 371.000
42.92000 377.000
42.93500 382.000
42.95000 371.000
42.96500 348.000
42.98000 365.000
42.99500 368.000
43.01000 378.000
43.02500 374.000
43.04000 373.000
43.05500 370.000
43.07000 379.000
43.08500 429.000
43.10000 432.000
43.11500 389.000
43.13000 398.000
43.14500 417.000
43.16000 394.000
43.17500 406.000
43.19000 393.000
43.20500 389.000
43.22000 413.000
43.23500 405.000
43.25000 408.000
43.26500 442.000
43.28000 464.000
43.29500 414.000
43.31000 402.000
43.32500 426.000
43.34000 474.000
43.35500 462.000
43.37000 457.000
43.38500 467.000
43.40000 442.000
43.41500 419.000
43.43000 419.000
43.44500 392.000
43.46000 430.000
43.47500 424.000
43.49000 379.000
43.50500 377.000
43.52000 420.000
43.53500 409.000
43.55000 382.000
43.56500 387.000
43.58000 392.000
43.59500 388.000
43.61000 389.000
43.62500 393.000
43.64000 386.000
43.65500 395.000
43.67000 393.000
43.68500 391.000
43.70000 383.000
43.71500 355.000
43.73000 370.000
43.74500 401.000
43.76000 392.000
43.77500 370.000
43.79000 390.000
43.80500 390.000
43.82000 377.000
43.83500 368.000
43.85000 390.000
43.86500 404.000
43.88000 391.000
43.89500 372.000
43.91000 382.000
43.92500 361.000
43.94000 397.000
43.95500 390.000
43.97000 367.000
43.98500 390.000
44.00000 370.000
44.01500 368.000
44.03000 378.000
44.04500 363.000
44.06000 389.000
44.07500 357.000
44.09000 365.000
44.10500 340.000
44.12000 355.000
44.13500 368.000
44.15000 377.000
44.16500 364.000
44.18000 361.000
44.19500 391.000
44.21000 365.000
44.22500 365.000
44.24000 358.000
44.25500 382.000
44.27000 355.000
44.28500 350.000
44.30000 363.000
44.31500 366.000
44.33000 374.000
44.34500 365.000
44.36000 383.000
44.37500 388.000
44.39000 361.000
44.40500 356.000
44.42000 358.000
44.43500 375.000
44.45000 379.000
44.46500 362.000
44.48000 370.000
44.49500 353.000
44.51000 388.000
44.52500 373.000
44.54000 357.000
44.55500 363.000
44.57000 344.000
44.58500 376.000
44.60000 367.000
44.61500 392.000
44.63000 356.000
44.64500 376.000
44.66000 360.000
44.67500 381.000
44.69000 351.000
44.70500 373.000
44.72000 374.000
44.73500 380.000
44.75000 342.000
44.76500 354.000
44.78000 381.000
44.79500 383.000
44.81000 383.000
44.82500 377.000
44.84000 359.000
44.85500 373.000
44.87000 356.000
44.88500 393.000
44.90000 389.000
44.91500 394.000
44.93000 372.000
44.94500 371.000
44.96000 363.000
44.97500 343.000
44.99000 359.000
45.00500 395.000
45.02000 402.000
45.03500 378.000
45.05000 376.000
45.06500 350.000
45.08000 336.000
45.09500 371.000
45.11000 353.000
45.12500 344.000
45.14000 356.000
45.15500 357.000
45.17000 341.000
45.18500 359.000
45.20000 341.000
45.21500 329.000
45.23000 357.000
45.24500 371.000
45.26000 348.000
45.27500 365.000
45.29000 384.000
45.30500 375.000
45.32000 402.000
45.33500 367.000
45.35000 414.000
45.36500 354.000
45.38000 353.000
45.39500 357.000
45.41000 365.000
45.42500 354.000
45.44000 372.000
45.45500 368.000
45.47000 370.000
45.48500 347.000
45.50000 370.000
45.51500 342.000
45.53000 347.000
45.54500 338.000
45.56000 343.000
45.57500 363.000
45.59000 344.000
45.60500 328.000
45.62000 337.000
45.63500 338.000
45.65000 347.000
45.66500 359.000
45.68000 353.000
45.69500 344.000
45.71000 336.000
45.72500 355.000
45.74000 370.000
45.75500 350.000
45.77000 332.000
45.78500 370.000
45.80000 344.000
45.81500 339.000
45.83000 325.000
45.84500 335.000
45.86000 355.000
45.87500 307.000
45.89000 329.000
45.90500 325.000
45.92000 331.000
45.93500 355.000
45.95000 342.000
45.96500 341.000
45.98000 320.000
45.99500 326.000
46.01000 328.000
46.02500 328.000
46.04000 334.000
46.05500 320.000
46.07000 331.000
46.08500 347.000
46.10000 317.000
46.11500 319.000
46.13000 309.000
46.14500 322.000
46.16000 299.000
46.17500 334.000
46.19000 313.000
46.20500 311.000
46.22000 325.000
46.23500 312.000
46.25000 318.000
46.26500 335.000
46.28000 326.000
46.29500 325.000
46.31000 324.000
46.32500 314.000
46.34000 338.000
46.35500 334.000
46.37000 344.000
46.38500 317.000
46.40000 319.000
46.41500 341.000
46.43000 327.000
46.44500 313.000
46.46000 304.000
46.47500 291.000
46.49000 294.000
46.50500 318.000
46.52000 296.000
46.53500 289.000
46.55000 288.000
46.56500 321.000
46.58000 311.000
46.59500 324.000
46.61000 314.000
46.62500 293.000
46.64000 304.000
46.65500 327.000
46.67000 319.000
46.68500 306.000
46.70000 301.000
46.71500 310.000
46.73000 308.000
46.74500 315.000
46.76000 312.000
46.77500 291.000
46.79000 278.000
46.80500 295.000
46.82000 288.000
46.83500 301.000
46.85000 313.000
46.86500 296.000
46.88000 293.000
46.89500 292.000
46.91000 301.000
46.92500 286.000
46.94000 308.000
46.95500 299.000
46.97000 279.000
46.98500 305.000
47.00000 308.000
47.01500 285.000
47.03000 277.000
47.04500 288.000
47.06000 283.000
47.07500 276.000
47.09000 272.000
47.10500 291.000
47.12000 275.000
47.13500 270.000
47.15000 300.000
47.16500 309.000
47.18000 299.000
47.19500 288.000
47.21000 300.000
47.22500 307.000
47.24000 288.000
47.25500 291.000
47.27000 286.000
47.28500 291.000
47.30000 302.000
47.31500 282.000
47.33000 272.000
47.34500 293.000
47.36000 308.000
47.37500 283.000
47.39000 269.000
47.40500 272.000
47.42000 294.000
47.43500 288.000
47.45000 284.000
47.46500 267.000
47.48000 262.000
47.49500 291.000
47.51000 269.000
47.52500 301.000
47.54000 264.000
47.55500 281.000
47.57000 275.000
47.58500 310.000
47.60000 278.000
47.61500 272.000
47.63000 285.000
47.64500 289.000
47.66000 284.000
47.67500 278.000
47.69000 284.000
47.70500 266.000
47.72000 247.000
47.73500 292.000
47.75000 268.000
47.76500 268.000
47.78000 289.000
47.79500 289.000
47.81000 261.000
47.82500 269.000
47.84000 283.000
47.85500 291.000
47.87000 248.000
47.88500 254.000
47.90000 263.000
47.91500 299.000
47.93000 285.000
47.94500 286.000
47.96000 283.000
47.97500 271.000
47.99000 291.000
48.00500 264.000
48.02000 280.000
48.03500 278.000
48.05000 259.000
48.06500 271.000
48.08000 269.000
48.09500 255.000
48.11000 271.000
48.12500 273.000
48.14000 264.000
48.15500 278.000
48.17000 271.000
48.18500 263.000
48.20000 259.000
48.21500 271.000
48.23000 276.000
48.24500 273.000
48.26000 290.000
48.27500 275.000
48.29000 254.000
48.30500 279.000
48.32000 289.000
48.33500 278.000
48.35000 262.000
48.36500 255.000
48.38000 281.000
48.39500 256.000
48.41000 272.000
48.42500 263.000
48.44000 263.000
48.45500 268.000
48.47000 261.000
48.48500 271.000
48.50000 296.000
48.51500 263.000
48.53000 288.000
48.54500 275.000
48.56000 277.000
48.57500 256.000
48.59000 285.000
48.60500 275.000
48.62000 270.000
48.63500 267.000
48.65000 267.000
48.66500 266.000
48.68000 275.000
48.69500 272.000
48.71000 266.000
48.72500 261.000
48.74000 264.000
48.75500 250.000
48.77000 253.000
48.78500 256.000
48.80000 273.000
48.81500 257.000
48.83000 264.000
48.84500 279.000
48.86000 256.000
48.87500 259.000
48.89000 265.000
48.90500 255.000
48.92000 261.000
48.93500 296.000
48.95000 259.000
48.96500 278.000
48.98000 274.000
48.99500 258.000
49.01000 260.000
49.02500 272.000
49.04000 253.000
49.05500 260.000
49.07000 256.000
49.08500 256.000
49.10000 267.000
49.11500 247.000
49.13000 246.000
49.14500 255.000
49.16000 276.000
49.17500 287.000
49.19000 276.000
49.20500 245.000
49.22000 247.000
49.23500 248.000
49.25000 263.000
49.26500 288.000
49.28000 263.000
49.29500 276.000
49.31000 273.000
49.32500 262.000
49.34000 237.000
49.35500 237.000
49.37000 259.000
49.38500 277.000
49.40000 279.000
49.41500 261.000
49.43000 260.000
49.44500 261.000
49.46000 270.000
49.47500 247.000
49.49000 267.000
49.50500 267.000
49.52000 247.000
49.53500 256.000
49.55000 256.000
49.56500 274.000
49.58000 291.000
49.59500 261.000
49.61000 259.000
49.62500 253.000
49.64000 280.000
49.65500 261.000
49.67000 231.000
49.68500 242.000
49.70000 265.000
49.71500 256.000
49.73000 273.000
49.74500 257.000
49.76000 252.000
49.77500 281.000
49.79000 265.000
49.80500 268.000
49.82000 261.000
49.83500 253.000
49.85000 240.000
49.86500 251.000
49.88000 256.000
49.89500 260.000
49.91000 266.000
49.92500 254.000
49.94000 264.000
49.95500 266.000
49.97000 259.000
49.98500 252.000
50.00000 257.000
50.01500 276.000
50.03000 258.000
50.04500 277.000
50.06000 277.000
50.07500 253.000
50.09000 235.000
50.10500 269.000
50.12000 290.000
50.13500 263.000
50.15000 255.000
50.16500 280.000
50.18000 268.000
50.19500 274.000
50.21000 303.000
50.22500 260.000
50.24000 251.000
50.25500 280.000
50.27000 269.000
50.28500 258.000
50.30000 256.000
50.31500 257.000
50.33000 255.000
50.34500 250.000
50.36000 244.000
50.37500 276.000
50.39000 270.000
50.40500 273.000
50.42000 260.000
50.43500 258.000
50.45000 242.000
50.46500 266.000
50.48000 286.000
50.49500 275.000
50.51000 242.000
50.52500 282.000
50.54000 273.000
50.55500 264.000
50.57000 279.000
50.58500 270.000
50.60000 266.000
50.61500 252.000
50.63000 276.000
50.64500 272.000
50.66000 278.000
50.67500 309.000
50.69000 261.000
50.70500 269.000
50.72000 252.000
50.73500 283.000
50.75000 250.000
50.76500 285.000
50.78000 256.000
50.79500 266.000
50.81000 267.000
50.82500 248.000
50.84000 266.000
50.85500 246.000
50.87000 236.000
50.88500 259.000
50.90000 271.000
50.91500 283.000
50.93000 280.000
50.94500 276.000
50.96000 276.000
50.97500 272.000
50.99000 270.000
51.00500 248.000
51.02000 265.000
51.03500 278.000
51.05000 291.000
51.06500 272.000
51.08000 255.000
51.09500 259.000
51.11000 253.000
51.12500 274.000
51.14000 268.000
51.15500 279.000
51.17000 282.000
51.18500 282.000
51.20000 260.000
51.21500 248.000
51.23000 277.000
51.24500 257.000
51.26000 272.000
51.27500 264.000
51.29000 270.000
51.30500 266.000
51.32000 261.000
51.33500 267.000
51.35000 272.000
51.36500 275.000
51.38000 254.000
51.39500 260.000
51.41000 264.000
51.42500 275.000
51.44000 274.000
51.45500 274.000
51.47000 260.000
51.48500 290.000
51.50000 277.000
51.51500 283.000
51.53000 266.000
51.54500 275.000
51.56000 268.000
51.57500 285.000
51.59000 280.000
51.60500 294.000
51.62000 275.000
51.63500 265.000
51.65000 276.000
51.66500 273.000
51.68000 275.000
51.69500 277.000
51.71000 283.000
51.72500 288.000
51.74000 282.000
51.75500 259.000
51.77000 261.000
51.78500 251.000
51.80000 271.000
51.81500 296.000
51.83000 267.000
51.84500 277.000
51.86000 292.000
51.87500 278.000
51.89000 269.000
51.90500 243.000
51.92000 270.000
51.93500 272.000
51.95000 275.000
51.96500 265.000
51.98000 273.000
51.99500 267.000
52.01000 241.000
52.02500 253.000
52.04000 246.000
52.05500 269.000
52.07000 273.000
52.08500 256.000
52.10000 242.000
52.11500 258.000
52.13000 270.000
52.14500 261.000
52.16000 245.000
52.17500 257.000
52.19000 269.000
52.20500 250.000
52.22000 252.000
52.23500 261.000
52.25000 266.000
52.26500 254.000
52.28000 252.000
52.29500 263.000
52.31000 258.000
52.32500 285.000
52.34000 252.000
52.35500 252.000
52.37000 249.000
52.38500 242.000
52.40000 250.000
52.41500 224.000
52.43000 236.000
52.44500 267.000
52.46000 274.000
52.47500 261.000
52.49000 289.000
52.50500 256.000
52.52000 257.000
52.53500 273.000
52.55000 259.000
52.56500 256.000
52.58000 257.000
52.59500 289.000
52.61000 253.000
52.62500 241.000
52.64000 247.000
52.65500 264.000
52.67000 246.000
52.68500 249.000
52.70000 245.000
52.71500 255.000
52.73000 248.000
52.74500 258.000
52.76000 280.000
52.77500 269.000
52.79000 232.000
52.80500 266.000
52.82000 274.000
52.83500 252.000
52.85000 251.000
52.86500 235.000
52.88000 240.000
52.89500 245.000
52.91000 252.000
52.92500 259.000
52.94000 257.000
52.95500 258.000
52.97000 261.000
52.98500 255.000
53.00000 244.000
53.01500 216.000
53.03000 253.000
53.04500 239.000
53.06000 246.000
53.07500 280.000
53.09000 250.000
53.10500 272.000
53.12000 273.000
53.13500 267.000
53.15000 271.000
53.16500 270.000
53.18000 267.000
53.19500 242.000
53.21000 249.000
53.22500 250.000
53.24000 270.000
53.25500 250.000
53.27000 230.000
53.28500 234.000
53.30000 258.000
53.31500 243.000
53.33000 244.000
53.34500 223.000
53.36000 234.000
53.37500 260.000
53.39000 271.000
53.40500 247.000
53.42000 251.000
53.43500 270.000
53.45000 241.000
53.46500 235.000
53.48000 258.000
53.49500 267.000
53.51000 268.000
53.52500 263.000
53.54000 254.000
53.55500 255.000
53.57000 256.000
53.58500 276.000
53.60000 256.000
53.61500 251.000
53.63000 262.000
53.64500 244.000
53.66000 255.000
53.67500 282.000
53.69000 275.000
53.70500 272.000
53.72000 278.000
53.73500 262.000
53.75000 263.000
53.76500 248.000
53.78000 258.000
53.79500 247.000
53.81000 212.000
53.82500 224.000
53.84000 263.000
53.85500 252.000
53.87000 229.000
53.88500 246.000
53.90000 266.000
53.91500 261.000
53.93000 256.000
53.94500 258.000
53.96000 262.000
53.97500 261.000
53.99000 281.000
54.00500 267.000
54.02000 258.000
54.03500 204.000
54.05000 242.000
54.06500 255.000
54.08000 251.000
54.09500 260.000
54.11000 229.000
54.12500 243.000
54.14000 233.000
54.15500 261.000
54.17000 238.000
54.18500 246.000
54.20000 261.000
54.21500 256.000
54.23000 252.000
54.24500 242.000
54.26000 238.000
54.27500 255.000
54.29000 251.000
54.30500 248.000
54.32000 236.000
54.33500 230.000
54.35000 254.000
54.36500 235.000
54.38000 243.000
54.39500 241.000
54.41000 246.000
54.42500 231.000
54.44000 248.000
54.45500 259.000
54.47000 233.000
54.48500 259.000
54.50000 265.000
54.51500 279.000
54.53000 248.000
54.54500 251.000
54.56000 244.000
54.57500 235.000
54.59000 250.000
54.60500 245.000
54.62000 237.000
54.63500 239.000
54.65000 241.000
54.66500 256.000
54.68000 241.000
54.69500 235.000
54.71000 230.000
54.72500 236.000
54.74000 242.000
54.75500 253.000
54.77000 235.000
54.78500 243.000
54.80000 250.000
54.81500 248.000
54.83000 253.000
54.84500 241.000
54.86000 229.000
54.87500 237.000
54.89000 230.000
54.90500 236.000
54.92000 255.000
54.93500 259.000
54.95000 254.000
54.96500 233.000
54.98000 246.000
54.99500 239.000
55.01000 247.000
55.02500 250.000
55.04000 241.000
55.05500 254.000
55.07000 240.000
55.08500 236.000
55.10000 228.000
55.11500 230.000
55.13000 237.000
55.14500 215.000
55.16000 217.000
55.17500 256.000
55.19000 251.000
55.20500 262.000
55.22000 281.000
55.23500 248.000
55.25000 248.000
55.26500 240.000
55.28000 229.000
55.29500 248.000
55.31000 243.000
55.32500 256.000
55.34000 237.000
55.35500 264.000
55.37000 238.000
55.38500 236.000
55.40000 228.000
55.41500 230.000
55.43000 265.000
55.44500 240.000
55.46000 249.000
55.47500 257.000
55.49000 273.000
55.50500 268.000
55.52000 248.000
55.53500 242.000
55.55000 250.000
55.56500 251.000
55.58000 232.000
55.59500 233.000
55.61000 232.000
55.62500 237.000
55.64000 252.000
55.65500 238.000
55.67000 242.000
55.68500 248.000
55.70000 255.000
55.71500 252.000
55.73000 211.000
55.74500 244.000
55.76000 230.000
55.77500 226.000
55.79000 238.000
55.80500 263.000
55.82000 238.000
55.83500 237.000
55.85000 244.000
55.86500 230.000
55.88000 261.000
55.89500 240.000
55.91000 236.000
55.92500 248.000
55.94000 219.000
55.95500 232.000
55.97000 233.000
55.98500 241.000
56.00000 213.000
56.01500 252.000
56.03000 237.000
56.04500 229.000
56.06000 235.000
56.07500 241.000
56.09000 267.000
56.10500 234.000
56.12000 246.000
56.13500 258.000
56.15000 263.000
56.16500 251.000
56.18000 256.000
56.19500 235.000
56.21000 234.000
56.22500 243.000
56.24000 239.000
56.25500 231.000
56.27000 223.000
56.28500 251.000
56.30000 252.000
56.31500 230.000
56.33000 225.000
56.34500 230.000
56.36000 232.000
56.37500 216.000
56.39000 228.000
56.40500 220.000
56.42000 212.000
56.43500 235.000
56.45000 248.000
56.46500 247.000
56.48000 250.000
56.49500 238.000
56.51000 247.000
56.52500 243.000
56.54000 244.000
56.55500 222.000
56.57000 231.000
56.58500 255.000
56.60000 248.000
56.61500 257.000
56.63000 254.000
56.64500 268.000
56.66000 235.000
56.67500 237.000
56.69000 253.000
56.70500 259.000
56.72000 238.000
56.73500 225.000
56.75000 239.000
56.76500 217.000
56.78000 225.000
56.79500 235.000
56.81000 249.000
56.82500 265.000
56.84000 234.000
56.85500 237.000
56.87000 248.000
56.88500 251.000
56.90000 256.000
56.91500 261.000
56.93000 231.000
56.94500 244.000
56.96000 249.000
56.97500 227.000
56.99000 245.000
57.00500 264.000
57.02000 234.000
57.03500 238.000
57.05000 232.000
57.06500 218.000
57.08000 240.000
57.09500 242.000
57.11000 240.000
57.12500 235.000
57.14000 241.000
57.15500 230.000
57.17000 236.000
57.18500 237.000
57.20000 249.000
57.21500 247.000
57.23000 233.000
57.24500 236.000
57.26000 242.000
57.27500 238.000
57.29000 232.000
57.30500 248.000
57.32000 246.000
57.33500 268.000
57.35000 238.000
57.36500 256.000
57.38000 281.000
57.39500 254.000
57.41000 250.000
57.42500 253.000
57.44000 228.000
57.45500 243.000
57.47000 266.000
57.48500 279.000
57.50000 260.000
57.51500 251.000
57.53000 269.000
57.54500 263.000
57.56000 258.000
57.57500 247.000
57.59000 267.000
57.60500 275.000
57.62000 288.000
57.63500 253.000
57.65000 258.000
57.66500 266.000
57.68000 256.000
57.69500 261.000
57.71000 261.000
57.72500 264.000
57.74000 256.000
57.75500 260.000
57.77000 258.000
57.78500 248.000
57.80000 241.000
57.81500 252.000
57.83000 233.000
57.84500 264.000
57.86000 279.000
57.87500 269.000
57.89000 276.000
57.90500 268.000
57.92000 245.000
57.93500 262.000
57.95000 265.000
57.96500 260.000
57.98000 245.000
57.99500 267.000
58.01000 260.000
58.02500 275.000
58.04000 272.000
58.05500 265.000
58.07000 274.000
58.08500 276.000
58.10000 256.000
58.11500 275.000
58.13000 289.000
58.14500 268.000
58.16000 226.000
58.17500 263.000
58.19000 287.000
58.20500 257.000
58.22000 246.000
58.23500 272.000
58.25000 259.000
58.26500 268.000
58.28000 273.000
58.29500 283.000
58.31000 250.000
58.32500 258.000
58.34000 286.000
58.35500 276.000
58.37000 254.000
58.38500 235.000
58.40000 265.000
58.41500 275.000
58.43000 247.000
58.44500 236.000
58.46000 266.000
58.47500 283.000
58.49000 274.000
58.50500 262.000
58.52000 243.000
58.53500 250.000
58.55000 267.000
58.56500 262.000
58.58000 254.000
58.59500 250.000
58.61000 283.000
58.62500 252.000
58.64000 241.000
58.65500 246.000
58.67000 258.000
58.68500 259.000
58.70000 253.000
58.71500 263.000
58.73000 254.000
58.74500 242.000
58.76000 239.000
58.77500 236.000
58.79000 259.000
58.80500 245.000
58.82000 238.000
58.83500 257.000
58.85000 255.000
58.86500 244.000
58.88000 248.000
58.89500 272.000
58.91000 258.000
58.92500 248.000
58.94000 230.000
58.95500 232.000
58.97000 217.000
58.98500 246.000
59.00000 246.000
59.01500 248.000
59.03000 233.000
59.04500 241.000
59.06000 232.000
59.07500 242.000
59.09000 236.000
59.10500 252.000
59.12000 237.000
59.13500 222.000
59.15000 218.000
59.16500 219.000
59.18000 218.000
59.19500 253.000
59.21000 238.000
59.22500 238.000
59.24000 229.000
59.25500 242.000
59.27000 221.000
59.28500 229.000
59.30000 218.000
59.31500 218.000
59.33000 238.000
59.34500 224.000
59.36000 237.000
59.37500 247.000
59.39000 229.000
59.40500 214.000
59.42000 219.000
59.43500 212.000
59.45000 229.000
59.46500 219.000
59.48000 212.000
59.49500 236.000
59.51000 223.000
59.52500 207.000
59.54000 219.000
59.55500 217.000
59.57000 207.000
59.58500 221.000
59.60000 219.000
59.61500 198.000
59.63000 205.000
59.64500 233.000
59.66000 212.000
59.67500 214.000
59.69000 215.000
59.70500 222.000
59.72000 212.000
59.73500 222.000
59.75000 226.000
59.76500 227.000
59.78000 212.000
59.79500 204.000
59.81000 201.000
59.82500 238.000
59.84000 227.000
59.85500 208.000
59.87000 203.000
59.88500 240.000
59.90000 225.000
59.91500 209.000
59.93000 215.000
59.94500 209.000
59.96000 204.000
59.97500 181.000
59.99000 225.000
60.00500 216.000
60.02000 209.000
60.03500 205.000
60.05000 210.000
60.06500 205.000
60.08000 201.000
60.09500 222.000
60.11000 221.000
60.12500 209.000
60.14000 211.000
60.15500 216.000
60.17000 201.000
60.18500 193.000
60.20000 203.000
60.21500 194.000
60.23000 211.000
60.24500 209.000
60.26000 215.000
60.27500 213.000
60.29000 201.000
60.30500 215.000
60.32000 218.000
60.33500 196.000
60.35000 226.000
60.36500 222.000
60.38000 191.000
60.39500 198.000
60.41000 197.000
60.42500 213.000
60.44000 225.000
60.45500 219.000
60.47000 196.000
60.48500 214.000
60.50000 205.000
60.51500 228.000
60.53000 209.000
60.54500 199.000
60.56000 182.000
60.57500 198.000
60.59000 205.000
60.60500 220.000
60.62000 204.000
60.63500 234.000
60.65000 202.000
60.66500 184.000
60.68000 183.000
60.69500 208.000
60.71000 213.000
60.72500 209.000
60.74000 196.000
60.75500 214.000
60.77000 202.000
60.78500 193.000
60.80000 193.000
60.81500 206.000
60.83000 223.000
60.84500 219.000
60.86000 204.000
60.87500 196.000
60.89000 196.000
60.90500 169.000
60.92000 191.000
60.93500 205.000
60.95000 205.000
60.96500 220.000
60.98000 198.000
60.99500 219.000
61.01000 214.000
61.02500 219.000
61.04000 226.000
61.05500 222.000
61.07000 228.000
61.08500 215.000
61.10000 216.000
61.11500 206.000
61.13000 211.000
61.14500 217.000
61.16000 216.000
61.17500 202.000
61.19000 205.000
61.20500 188.000
61.22000 199.000
61.23500 198.000
61.25000 188.000
61.26500 214.000
61.28000 194.000
61.29500 219.000
61.31000 216.000
61.32500 213.000
61.34000 215.000
61.35500 225.000
61.37000 198.000
61.38500 206.000
61.40000 208.000
61.41500 210.000
61.43000 202.000
61.44500 207.000
61.46000 203.000
61.47500 213.000
61.49000 230.000
61.50500 211.000
61.52000 208.000
61.53500 204.000
61.55000 208.000
61.56500 213.000
61.58000 204.000
61.59500 218.000
61.61000 208.000
61.62500 195.000
61.64000 196.000
61.65500 197.000
61.67000 190.000
61.68500 197.000
61.70000 233.000
61.71500 224.000
61.73000 202.000
61.74500 207.000
61.76000 213.000
61.77500 198.000
61.79000 205.000
61.80500 214.000
61.82000 206.000
61.83500 190.000
61.85000 185.000
61.86500 217.000
61.88000 231.000
61.89500 229.000
61.91000 194.000
61.92500 194.000
61.94000 211.000
61.95500 207.000
61.97000 222.000
61.98500 208.000
