2.00000 2.000
2.01500 2.000
2.03000 1.000
2.04500 3.000
2.06000 2.000
2.07500 3.000
2.09000 3.000
2.10500 2.000
2.12000 2.000
2.13500 1.000
2.15000 1.000
2.16500 2.000
2.18000 1.000
2.19500 1.000
2.21000 3.000
2.22500 1.000
2.24000 2.000
2.25500 0.000
2.27000 0.000
2.28500 2.000
2.30000 3.000
2.31500 3.000
2.33000 1.000
2.34500 1.000
2.36000 1.000
2.37500 2.000
2.39000 2.000
2.40500 1.000
2.42000 3.000
2.43500 6.000
2.45000 7.000
2.46500 9.000
2.48000 11.000
2.49500 17.000
2.51000 20.000
2.52500 28.000
2.54000 42.000
2.55500 44.000
2.57000 61.000
2.58500 81.000
2.60000 95.000
2.61500 101.000
2.63000 117.000
2.64500 97.000
2.66000 121.000
2.67500 126.000
2.69000 116.000
2.70500 113.000
2.72000 134.000
2.73500 115.000
2.75000 104.000
2.76500 118.000
2.78000 96.000
2.79500 106.000
2.81000 104.000
2.82500 107.000
2.84000 106.000
2.85500 116.000
2.87000 125.000
2.88500 124.000
2.90000 129.000
2.91500 101.000
2.93000 122.000
2.94500 118.000
2.96000 120.000
2.97500 115.000
2.99000 125.000
3.00500 117.000
3.02000 124.000
3.03500 121.000
3.05000 122.000
3.06500 110.000
3.08000 98.000
3.09500 107.000
3.11000 122.000
3.12500 119.000
3.14000 121.000
3.15500 109.000
3.17000 109.000
3.18500 133.000
3.20000 116.000
3.21500 121.000
3.23000 129.000
3.24500 126.000
3.26000 105.000
3.27500 121.000
3.29000 126.000
3.30500 124.000
3.32000 123.000
3.33500 124.000
3.35000 105.000
3.36500 105.000
3.38000 109.000
3.39500 127.000
3.41000 130.000
3.42500 119.000
3.44000 117.000
3.45500 118.000
3.47000 108.000
3.48500 125.000
3.50000 125.000
3.51500 122.000
3.53000 122.000
3.54500 107.000
3.56000 124.000
3.57500 116.000
3.59000 128.000
3.60500 127.000
3.62000 120.000
3.63500 116.000
3.65000 108.000
3.66500 119.000
3.68000 118.000
3.69500 120.000
3.71000 135.000
3.72500 120.000
3.74000 131.000
3.75500 126.000
3.77000 128.000
3.78500 124.000
3.80000 142.000
3.81500 135.000
3.83000 125.000
3.84500 123.000
3.86000 122.000
3.87500 120.000
3.89000 137.000
3.90500 131.000
3.92000 130.000
3.93500 127.000
3.95000 153.000
3.96500 150.000
3.98000 142.000
3.99500 133.000
4.01000 123.000
4.02500 129.000
4.04000 146.000
4.05500 123.000
4.07000 135.000
4.08500 121.000
4.10000 137.000
4.11500 132.000
4.13000 135.000
4.14500 147.000
4.16000 135.000
4.17500 125.000
4.19000 113.000
4.20500 139.000
4.22000 136.000
4.23500 131.000
4.25000 134.000
4.26500 124.000
4.28000 124.000
4.29500 131.000
4.31000 129.000
4.32500 138.000
4.34000 133.000
4.35500 147.000
4.37000 139.000
4.38500 138.000
4.40000 142.000
4.41500 143.000
4.43000 129.000
4.44500 126.000
4.46000 131.000
4.47500 135.000
4.49000 142.000
4.50500 133.000
4.52000 135.000
4.53500 128.000
4.55000 142.000
4.56500 145.000
4.58000 147.000
4.59500 147.000
4.61000 153.000
4.62500 127.000
4.64000 131.000
4.65500 156.000
4.67000 134.000
4.68500 120.000
4.70000 134.000
4.71500 136.000
4.73000 136.000
4.74500 155.000
4.76000 154.000
4.77500 148.000
4.79000 144.000
4.80500 146.000
4.82000 128.000
4.83500 148.000
4.85000 129.000
4.86500 134.000
4.88000 150.000
4.89500 153.000
4.91000 132.000
4.92500 152.000
4.94000 128.000
4.95500 165.000
4.97000 167.000
4.98500 140.000
5.00000 150.000
5.01500 146.000
5.03000 154.000
5.04500 135.000
5.06000 123.000
5.07500 133.000
5.09000 157.000
5.10500 155.000
5.12000 135.000
5.13500 138.000
5.15000 146.000
5.16500 136.000
5.18000 148.000
5.19500 161.000
5.21000 159.000
5.22500 158.000
5.24000 150.000
5.25500 134.000
5.27000 144.000
5.28500 158.000
5.30000 143.000
5.31500 138.000
5.33000 151.000
5.34500 147.000
5.36000 161.000
5.37500 138.000
5.39000 152.000
5.40500 150.000
5.42000 164.000
5.43500 159.000
5.45000 153.000
5.46500 160.000
5.48000 162.000
5.49500 162.000
5.51000 166.000
5.52500 145.000
5.54000 157.000
5.55500 145.000
5.57000 153.000
5.58500 170.000
5.60000 150.000
5.61500 134.000
5.63000 171.000
5.64500 158.000
5.66000 146.000
5.67500 177.000
5.69000 141.000
5.70500 171.000
5.72000 173.000
5.73500 161.000
5.75000 152.000
5.76500 156.000
5.78000 144.000
5.79500 160.000
5.81000 150.000
5.82500 161.000
5.84000 151.000
5.85500 151.000
5.87000 147.000
5.88500 157.000
5.90000 134.000
5.91500 143.000
5.93000 153.000
5.94500 165.000
5.96000 155.000
5.97500 154.000
5.99000 152.000
6.00500 154.000
6.02000 162.000
6.03500 149.000
6.05000 158.000
6.06500 173.000
6.08000 156.000
6.09500 137.000
6.11000 147.000
6.12500 154.000
6.14000 152.000
6.15500 142.000
6.17000 153.000
6.18500 167.000
6.20000 162.000
6.21500 157.000
6.23000 157.000
6.24500 164.000
6.26000 156.000
6.27500 156.000
6.29000 170.000
6.30500 176.000
6.32000 170.000
6.33500 150.000
6.35000 152.000
6.36500 137.000
6.38000 142.000
6.39500 151.000
6.41000 167.000
6.42500 170.000
6.44000 162.000
6.45500 168.000
6.47000 157.000
6.48500 157.000
6.50000 181.000
6.51500 168.000
6.53000 142.000
6.54500 160.000
6.56000 162.000
6.57500 156.000
6.59000 161.000
6.60500 161.000
6.62000 158.000
6.63500 166.000
6.65000 171.000
6.66500 153.000
6.68000 172.000
6.69500 174.000
6.71000 164.000
6.72500 158.000
6.74000 160.000
6.75500 174.000
6.77000 176.000
6.78500 185.000
6.80000 175.000
6.81500 188.000
6.83000 175.000
6.84500 166.000
6.86000 186.000
6.87500 176.000
6.89000 181.000
6.90500 189.000
6.92000 191.000
6.93500 176.000
6.95000 174.000
6.96500 174.000
6.98000 157.000
6.99500 157.000
7.01000 161.000
7.02500 183.000
7.04000 170.000
7.05500 170.000
7.07000 169.000
7.08500 183.000
7.10000 195.000
7.11500 169.000
7.13000 150.000
7.14500 168.000
7.16000 162.000
7.17500 142.000
7.19000 144.000
7.20500 145.000
7.22000 156.000
7.23500 174.000
7.25000 185.000
7.26500 186.000
7.28000 186.000
7.29500 170.000
7.31000 183.000
7.32500 180.000
7.34000 174.000
7.35500 185.000
7.37000 186.000
7.38500 177.000
7.40000 172.000
7.41500 181.000
7.43000 174.000
7.44500 177.000
7.46000 192.000
7.47500 182.000
7.49000 165.000
7.50500 178.000
7.52000 192.000
7.53500 191.000
7.55000 185.000
7.56500 199.000
7.58000 202.000
7.59500 182.000
7.61000 198.000
7.62500 207.000
7.64000 219.000
7.65500 224.000
7.67000 228.000
7.68500 226.000
7.70000 257.000
7.71500 282.000
7.73000 271.000
7.74500 285.000
7.76000 291.000
7.77500 303.000
7.79000 314.000
7.80500 320.000
7.82000 359.000
7.83500 398.000
7.85000 411.000
7.86500 432.000
7.88000 463.000
7.89500 534.000
7.91000 559.000
7.92500 613.000
7.94000 712.000
7.95500 801.000
7.97000 824.000
7.98500 795.000
8.00000 660.000
8.01500 514.000
8.03000 411.000
8.04500 378.000
8.06000 372.000
8.07500 326.000
8.09000 295.000
8.10500 285.000
8.12000 257.000
8.13500 268.000
8.15000 291.000
8.16500 251.000
8.18000 277.000
8.19500 233.000
8.21000 251.000
8.22500 216.000
8.24000 232.000
8.25500 207.000
8.27000 186.000
8.28500 206.000
8.30000 225.000
8.31500 226.000
8.33000 188.000
8.34500 218.000
8.36000 213.000
8.37500 203.000
8.39000 207.000
8.40500 219.000
8.42000 198.000
8.43500 217.000
8.45000 217.000
8.46500 201.000
8.48000 234.000
8.49500 206.000
8.51000 212.000
8.52500 202.000
8.54000 203.000
8.55500 198.000
8.57000 195.000
8.58500 206.000
8.60000 182.000
8.61500 198.000
8.63000 179.000
8.64500 189.000
8.66000 214.000
8.67500 205.000
8.69000 208.000
8.70500 209.000
8.72000 214.000
8.73500 210.000
8.75000 206.000
8.76500 198.000
8.78000 181.000
8.79500 203.000
8.81000 207.000
8.82500 210.000
8.84000 210.000
8.85500 198.000
8.87000 178.000
8.88500 193.000
8.90000 204.000
8.91500 189.000
8.93000 207.000
8.94500 185.000
8.96000 194.000
8.97500 192.000
8.99000 201.000
9.00500 206.000
9.02000 217.000
9.03500 200.000
9.05000 212.000
9.06500 203.000
9.08000 197.000
9.09500 205.000
9.11000 221.000
9.12500 206.000
9.14000 184.000
9.15500 214.000
9.17000 203.000
9.18500 188.000
9.20000 173.000
9.21500 202.000
9.23000 202.000
9.24500 201.000
9.26000 189.000
9.27500 183.000
9.29000 191.000
9.30500 197.000
9.32000 212.000
9.33500 209.000
9.35000 205.000
9.36500 194.000
9.38000 193.000
9.39500 213.000
9.41000 220.000
9.42500 214.000
9.44000 206.000
9.45500 221.000
9.47000 204.000
9.48500 209.000
9.50000 201.000
9.51500 201.000
9.53000 198.000
9.54500 197.000
9.56000 191.000
9.57500 204.000
9.59000 189.000
9.60500 177.000
9.62000 191.000
9.63500 225.000
9.65000 227.000
9.66500 203.000
9.68000 219.000
9.69500 216.000
9.71000 216.000
9.72500 217.000
9.74000 214.000
9.75500 204.000
9.77000 210.000
9.78500 237.000
9.80000 227.000
9.81500 210.000
9.83000 231.000
9.84500 230.000
9.86000 249.000
9.87500 244.000
9.89000 260.000
9.90500 246.000
9.92000 261.000
9.93500 268.000
9.95000 286.000
9.96500 299.000
9.98000 343.000
9.99500 348.000
10.01000 352.000
10.02500 369.000
10.04000 375.000
10.05500 387.000
10.07000 367.000
10.08500 381.000
10.10000 390.000
10.11500 418.000
10.13000 384.000
10.14500 354.000
10.16000 380.000
10.17500 366.000
10.19000 346.000
10.20500 286.000
10.22000 297.000
10.23500 289.000
10.25000 252.000
10.26500 245.000
10.28000 234.000
10.29500 241.000
10.31000 237.000
10.32500 239.000
10.34000 219.000
10.35500 225.000
10.37000 205.000
10.38500 224.000
10.40000 218.000
10.41500 223.000
10.43000 206.000
10.44500 202.000
10.46000 225.000
10.47500 210.000
10.49000 211.000
10.50500 188.000
10.52000 196.000
10.53500 195.000
10.55000 184.000
10.56500 208.000
10.58000 183.000
10.59500 179.000
10.61000 192.000
10.62500 197.000
10.64000 198.000
10.65500 205.000
10.67000 195.000
10.68500 197.000
10.70000 206.000
10.71500 204.000
10.73000 187.000
10.74500 185.000
10.76000 176.000
10.77500 205.000
10.79000 202.000
10.80500 182.000
10.82000 192.000
10.83500 186.000
10.85000 176.000
10.86500 170.000
10.88000 186.000
10.89500 192.000
10.91000 208.000
10.92500 178.000
10.94000 207.000
10.95500 189.000
10.97000 191.000
10.98500 180.000
11.00000 211.000
11.01500 192.000
11.03000 187.000
11.04500 186.000
11.06000 186.000
11.07500 178.000
11.09000 192.000
11.10500 187.000
11.12000 171.000
11.13500 187.000
11.15000 189.000
11.16500 183.000
11.18000 193.000
11.19500 173.000
11.21000 186.000
11.22500 207.000
11.24000 187.000
11.25500 181.000
11.27000 201.000
11.28500 201.000
11.30000 198.000
11.31500 179.000
11.33000 173.000
11.34500 193.000
11.36000 178.000
11.37500 191.000
11.39000 199.000
11.40500 200.000
11.42000 193.000
11.43500 185.000
11.45000 189.000
11.46500 180.000
11.48000 196.000
11.49500 204.000
11.51000 184.000
11.52500 175.000
11.54000 205.000
11.55500 202.000
11.57000 191.000
11.58500 190.000
11.60000 202.000
11.61500 189.000
11.63000 178.000
11.64500 173.000
11.66000 171.000
11.67500 188.000
11.69000 170.000
11.70500 176.000
11.72000 189.000
11.73500 161.000
11.75000 172.000
11.76500 160.000
11.78000 162.000
11.79500 195.000
11.81000 188.000
11.82500 184.000
11.84000 192.000
11.85500 174.000
11.87000 159.000
11.88500 185.000
11.90000 174.000
11.91500 174.000
11.93000 178.000
11.94500 170.000
11.96000 180.000
11.97500 181.000
11.99000 185.000
12.00500 190.000
12.02000 193.000
12.03500 178.000
12.05000 193.000
12.06500 203.000
12.08000 182.000
12.09500 172.000
12.11000 186.000
12.12500 195.000
12.14000 186.000
12.15500 199.000
12.17000 193.000
12.18500 188.000
12.20000 174.000
12.21500 177.000
12.23000 181.000
12.24500 167.000
12.26000 190.000
12.27500 175.000
12.29000 171.000
12.30500 185.000
12.32000 198.000
12.33500 198.000
12.35000 191.000
12.36500 192.000
12.38000 172.000
12.39500 169.000
12.41000 184.000
12.42500 192.000
12.44000 192.000
12.45500 185.000
12.47000 199.000
12.48500 196.000
12.50000 171.000
12.51500 160.000
12.53000 182.000
12.54500 184.000
12.56000 176.000
12.57500 172.000
12.59000 183.000
12.60500 178.000
12.62000 186.000
12.63500 191.000
12.65000 194.000
12.66500 170.000
12.68000 192.000
12.69500 186.000
12.71000 200.000
12.72500 183.000
12.74000 197.000
12.75500 184.000
12.77000 181.000
12.78500 179.000
12.80000 178.000
12.81500 180.000
12.83000 168.000
12.84500 189.000
12.86000 183.000
12.87500 197.000
12.89000 179.000
12.90500 166.000
12.92000 177.000
12.93500 184.000
12.95000 177.000
12.96500 170.000
12.98000 177.000
12.99500 188.000
13.01000 193.000
13.02500 212.000
13.04000 182.000
13.05500 158.000
13.07000 162.000
13.08500 176.000
13.10000 174.000
13.11500 184.000
13.13000 187.000
13.14500 173.000
13.16000 175.000
13.17500 173.000
13.19000 180.000
13.20500 175.000
13.22000 180.000
13.23500 185.000
13.25000 191.000
13.26500 183.000
13.28000 183.000
13.29500 199.000
13.31000 204.000
13.32500 192.000
13.34000 195.000
13.35500 185.000
13.37000 164.000
13.38500 185.000
13.40000 180.000
13.41500 162.000
13.43000 178.000
13.44500 176.000
13.46000 168.000
13.47500 179.000
13.49000 182.000
13.50500 177.000
13.52000 165.000
13.53500 182.000
13.55000 185.000
13.56500 208.000
13.58000 167.000
13.59500 157.000
13.61000 188.000
13.62500 176.000
13.64000 168.000
13.65500 161.000
13.67000 180.000
13.68500 170.000
13.70000 191.000
13.71500 173.000
13.73000 175.000
13.74500 173.000
13.76000 201.000
13.77500 191.000
13.79000 171.000
13.80500 187.000
13.82000 218.000
13.83500 196.000
13.85000 175.000
13.86500 184.000
13.88000 177.000
13.89500 175.000
13.91000 191.000
13.92500 199.000
13.94000 206.000
13.95500 180.000
13.97000 180.000
13.98500 181.000
14.00000 172.000
14.01500 175.000
14.03000 164.000
14.04500 163.000
14.06000 168.000
14.07500 176.000
14.09000 187.000
14.10500 175.000
14.12000 186.000
14.13500 174.000
14.15000 180.000
14.16500 190.000
14.18000 175.000
14.19500 189.000
14.21000 184.000
14.22500 173.000
14.24000 168.000
14.25500 176.000
14.27000 161.000
14.28500 174.000
14.30000 162.000
14.31500 176.000
14.33000 186.000
14.34500 191.000
14.36000 173.000
14.37500 191.000
14.39000 185.000
14.40500 194.000
14.42000 188.000
14.43500 172.000
14.45000 167.000
14.46500 191.000
14.48000 177.000
14.49500 189.000
14.51000 198.000
14.52500 182.000
14.54000 202.000
14.55500 192.000
14.57000 175.000
14.58500 178.000
14.60000 194.000
14.61500 194.000
14.63000 184.000
14.64500 197.000
14.66000 195.000
14.67500 189.000
14.69000 170.000
14.70500 176.000
14.72000 191.000
14.73500 182.000
14.75000 184.000
14.76500 199.000
14.78000 167.000
14.79500 166.000
14.81000 177.000
14.82500 169.000
14.84000 202.000
14.85500 205.000
14.87000 188.000
14.88500 188.000
14.90000 185.000
14.91500 186.000
14.93000 185.000
14.94500 195.000
14.96000 200.000
14.97500 191.000
14.99000 200.000
15.00500 188.000
15.02000 200.000
15.03500 212.000
15.05000 181.000
15.06500 193.000
15.08000 217.000
15.09500 218.000
15.11000 231.000
15.12500 216.000
15.14000 205.000
15.15500 232.000
15.17000 221.000
15.18500 202.000
15.20000 226.000
15.21500 229.000
15.23000 240.000
15.24500 218.000
15.26000 210.000
15.27500 192.000
15.29000 219.000
15.30500 214.000
15.32000 193.000
15.33500 191.000
15.35000 205.000
15.36500 188.000
15.38000 185.000
15.39500 184.000
15.41000 179.000
15.42500 186.000
15.44000 183.000
15.45500 182.000
15.47000 177.000
15.48500 188.000
15.50000 177.000
15.51500 184.000
15.53000 192.000
15.54500 201.000
15.56000 194.000
15.57500 199.000
15.59000 206.000
15.60500 178.000
15.62000 174.000
15.63500 171.000
15.65000 175.000
15.66500 185.000
15.68000 195.000
15.69500 179.000
15.71000 177.000
15.72500 181.000
15.74000 184.000
15.75500 172.000
15.77000 178.000
15.78500 189.000
15.80000 185.000
15.81500 177.000
15.83000 198.000
15.84500 183.000
15.86000 179.000
15.87500 177.000
15.89000 208.000
15.90500 182.000
15.92000 161.000
15.93500 158.000
15.95000 181.000
15.96500 169.000
15.98000 174.000
15.99500 202.000
16.01000 186.000
16.02500 184.000
16.04000 184.000
16.05500 183.000
16.07000 183.000
16.08500 180.000
16.10000 202.000
16.11500 191.000
16.13000 187.000
16.14500 176.000
16.16000 182.000
16.17500 186.000
16.19000 186.000
16.20500 193.000
16.22000 182.000
16.23500 206.000
16.25000 186.000
16.26500 177.000
16.28000 161.000
16.29500 163.000
16.31000 185.000
16.32500 185.000
16.34000 165.000
16.35500 176.000
16.37000 174.000
16.38500 197.000
16.40000 171.000
16.41500 184.000
16.43000 180.000
16.44500 182.000
16.46000 165.000
16.47500 177.000
16.49000 178.000
16.50500 182.000
16.52000 177.000
16.53500 177.000
16.55000 180.000
16.56500 190.000
16.58000 175.000
16.59500 169.000
16.61000 165.000
16.62500 184.000
16.64000 162.000
16.65500 158.000
16.67000 182.000
16.68500 177.000
16.70000 181.000
16.71500 173.000
16.73000 176.000
16.74500 180.000
16.76000 175.000
16.77500 175.000
16.79000 174.000
16.80500 183.000
16.82000 159.000
16.83500 167.000
16.85000 203.000
16.86500 189.000
16.88000 175.000
16.89500 178.000
16.91000 179.000
16.92500 181.000
16.94000 181.000
16.95500 178.000
16.97000 186.000
16.98500 171.000
17.00000 169.000
17.01500 197.000
17.03000 158.000
17.04500 189.000
17.06000 168.000
17.07500 184.000
17.09000 188.000
17.10500 211.000
17.12000 194.000
17.13500 190.000
17.15000 194.000
17.16500 182.000
17.18000 178.000
17.19500 169.000
17.21000 177.000
17.22500 176.000
17.24000 160.000
17.25500 176.000
17.27000 192.000
17.28500 198.000
17.30000 167.000
17.31500 187.000
17.33000 178.000
17.34500 190.000
17.36000 183.000
17.37500 187.000
17.39000 195.000
17.40500 197.000
17.42000 178.000
17.43500 188.000
17.45000 176.000
17.46500 192.000
17.48000 178.000
17.49500 173.000
17.51000 165.000
17.52500 171.000
17.54000 183.000
17.55500 184.000
17.57000 178.000
17.58500 184.000
17.60000 192.000
17.61500 181.000
17.63000 172.000
17.64500 193.000
17.66000 184.000
17.67500 176.000
17.69000 165.000
17.70500 179.000
17.72000 187.000
17.73500 185.000
17.75000 157.000
17.76500 161.000
17.78000 181.000
17.79500 195.000
17.81000 173.000
17.82500 188.000
17.84000 189.000
17.85500 178.000
17.87000 168.000
17.88500 169.000
17.90000 213.000
17.91500 184.000
17.93000 206.000
17.94500 199.000
17.96000 189.000
17.97500 186.000
17.99000 194.000
18.00500 177.000
18.02000 178.000
18.03500 181.000
18.05000 178.000
18.06500 182.000
18.08000 210.000
18.09500 193.000
18.11000 179.000
18.12500 166.000
18.14000 197.000
18.15500 192.000
18.17000 190.000
18.18500 195.000
18.20000 175.000
18.21500 173.000
18.23000 198.000
18.24500 201.000
18.26000 184.000
18.27500 226.000
18.29000 185.000
18.30500 164.000
18.32000 179.000
18.33500 177.000
18.35000 199.000
18.36500 200.000
18.38000 210.000
18.39500 221.000
18.41000 191.000
18.42500 202.000
18.44000 195.000
18.45500 211.000
18.47000 203.000
18.48500 200.000
18.50000 221.000
18.51500 233.000
18.53000 235.000
18.54500 232.000
18.56000 256.000
18.57500 290.000
18.59000 259.000
18.60500 258.000
18.62000 269.000
18.63500 252.000
18.65000 264.000
18.66500 273.000
18.68000 270.000
18.69500 273.000
18.71000 274.000
18.72500 240.000
18.74000 264.000
18.75500 236.000
18.77000 231.000
18.78500 238.000
18.80000 241.000
18.81500 234.000
18.83000 218.000
18.84500 219.000
18.86000 235.000
18.87500 216.000
18.89000 190.000
18.90500 191.000
18.92000 217.000
18.93500 225.000
18.95000 196.000
18.96500 194.000
18.98000 191.000
18.99500 209.000
19.01000 216.000
19.02500 200.000
19.04000 192.000
19.05500 211.000
19.07000 200.000
19.08500 192.000
19.10000 191.000
19.11500 207.000
19.13000 182.000
19.14500 200.000
19.16000 196.000
19.17500 180.000
19.19000 208.000
19.20500 203.000
19.22000 189.000
19.23500 196.000
19.25000 180.000
19.26500 189.000
19.28000 171.000
19.29500 194.000
19.31000 191.000
19.32500 195.000
19.34000 174.000
19.35500 192.000
19.37000 190.000
19.38500 193.000
19.40000 180.000
19.41500 175.000
19.43000 184.000
19.44500 194.000
19.46000 170.000
19.47500 178.000
19.49000 206.000
19.50500 195.000
19.52000 178.000
19.53500 198.000
19.55000 184.000
19.56500 200.000
19.58000 199.000
19.59500 193.000
19.61000 182.000
19.62500 188.000
19.64000 180.000
19.65500 204.000
19.67000 181.000
19.68500 192.000
19.70000 175.000
19.71500 187.000
19.73000 161.000
19.74500 176.000
19.76000 195.000
19.77500 179.000
19.79000 203.000
19.80500 206.000
19.82000 189.000
19.83500 185.000
19.85000 181.000
19.86500 184.000
19.88000 193.000
19.89500 208.000
19.91000 187.000
19.92500 195.000
19.94000 188.000
19.95500 174.000
19.97000 194.000
19.98500 189.000
20.00000 186.000
20.01500 203.000
20.03000 186.000
20.04500 175.000
20.06000 205.000
20.07500 185.000
20.09000 193.000
20.10500 195.000
20.12000 191.000
20.13500 201.000
20.15000 189.000
20.16500 214.000
20.18000 216.000
20.19500 226.000
20.21000 199.000
20.22500 203.000
20.24000 213.000
20.25500 198.000
20.27000 204.000
20.28500 212.000
20.30000 194.000
20.31500 182.000
20.33000 187.000
20.34500 199.000
20.36000 207.000
20.37500 189.000
20.39000 205.000
20.40500 200.000
20.42000 206.000
20.43500 200.000
20.45000 195.000
20.46500 192.000
20.48000 189.000
20.49500 209.000
20.51000 207.000
20.52500 204.000
20.54000 197.000
20.55500 211.000
20.57000 223.000
20.58500 220.000
20.60000 207.000
20.61500 181.000
20.63000 196.000
20.64500 183.000
20.66000 208.000
20.67500 209.000
20.69000 211.000
20.70500 206.000
20.72000 202.000
20.73500 207.000
20.75000 194.000
20.76500 206.000
20.78000 204.000
20.79500 188.000
20.81000 205.000
20.82500 212.000
20.84000 215.000
20.85500 195.000
20.87000 178.000
20.88500 204.000
20.90000 195.000
20.91500 176.000
20.93000 183.000
20.94500 175.000
20.96000 188.000
20.97500 189.000
20.99000 198.000
21.00500 206.000
21.02000 212.000
21.03500 222.000
21.05000 207.000
21.06500 197.000
21.08000 199.000
21.09500 202.000
21.11000 198.000
21.12500 195.000
21.14000 204.000
21.15500 195.000
21.17000 199.000
21.18500 213.000
21.20000 206.000
21.21500 204.000
21.23000 195.000
21.24500 180.000
21.26000 204.000
21.27500 200.000
21.29000 212.000
21.30500 214.000
21.32000 211.000
21.33500 204.000
21.35000 214.000
21.36500 223.000
21.38000 237.000
21.39500 220.000
21.41000 215.000
21.42500 201.000
21.44000 204.000
21.45500 225.000
21.47000 217.000
21.48500 216.000
21.50000 204.000
21.51500 201.000
21.53000 224.000
21.54500 235.000
21.56000 218.000
21.57500 209.000
21.59000 211.000
21.60500 197.000
21.62000 211.000
21.63500 230.000
21.65000 215.000
21.66500 206.000
21.68000 237.000
21.69500 221.000
21.71000 234.000
21.72500 221.000
21.74000 235.000
21.75500 240.000
21.77000 239.000
21.78500 226.000
21.80000 239.000
21.81500 253.000
21.83000 219.000
21.84500 226.000
21.86000 254.000
21.87500 251.000
21.89000 252.000
21.90500 265.000
21.92000 246.000
21.93500 279.000
21.95000 290.000
21.96500 259.000
21.98000 257.000
21.99500 260.000
22.01000 277.000
22.02500 258.000
22.04000 271.000
22.05500 271.000
22.07000 287.000
22.08500 295.000
22.10000 262.000
22.11500 273.000
22.13000 299.000
22.14500 293.000
22.16000 298.000
22.17500 275.000
22.19000 255.000
22.20500 271.000
22.22000 294.000
22.23500 298.000
22.25000 289.000
22.26500 260.000
22.28000 281.000
22.29500 275.000
22.31000 253.000
22.32500 256.000
22.34000 230.000
22.35500 247.000
22.37000 231.000
22.38500 224.000
22.40000 245.000
22.41500 242.000
22.43000 259.000
22.44500 283.000
22.46000 266.000
22.47500 249.000
22.49000 244.000
22.50500 262.000
22.52000 266.000
22.53500 263.000
22.55000 230.000
22.56500 277.000
22.58000 272.000
22.59500 254.000
22.61000 270.000
22.62500 280.000
22.64000 274.000
22.65500 253.000
22.67000 271.000
22.68500 291.000
22.70000 262.000
22.71500 285.000
22.73000 279.000
22.74500 259.000
22.76000 283.000
22.77500 294.000
22.79000 313.000
22.80500 331.000
22.82000 311.000
22.83500 336.000
22.85000 318.000
22.86500 328.000
22.88000 353.000
22.89500 343.000
22.91000 355.000
22.92500 352.000
22.94000 345.000
22.95500 337.000
22.97000 353.000
22.98500 382.000
23.00000 362.000
23.01500 341.000
23.03000 334.000
23.04500 362.000
23.06000 346.000
23.07500 341.000
23.09000 319.000
23.10500 340.000
23.12000 342.000
23.13500 312.000
23.15000 318.000
23.16500 277.000
23.18000 303.000
23.19500 303.000
23.21000 289.000
23.22500 305.000
23.24000 273.000
23.25500 277.000
23.27000 266.000
23.28500 252.000
23.30000 252.000
23.31500 263.000
23.33000 279.000
23.34500 296.000
23.36000 280.000
23.37500 255.000
23.39000 258.000
23.40500 240.000
23.42000 258.000
23.43500 253.000
23.45000 256.000
23.46500 257.000
23.48000 262.000
23.49500 258.000
23.51000 266.000
23.52500 253.000
23.54000 230.000
23.55500 249.000
23.57000 264.000
23.58500 254.000
23.60000 276.000
23.61500 250.000
23.63000 239.000
23.64500 252.000
23.66000 249.000
23.67500 258.000
23.69000 279.000
23.70500 271.000
23.72000 243.000
23.73500 257.000
23.75000 271.000
23.76500 270.000
23.78000 238.000
23.79500 271.000
23.81000 254.000
23.82500 247.000
23.84000 254.000
23.85500 255.000
23.87000 263.000
23.88500 235.000
23.90000 244.000
23.91500 266.000
23.93000 264.000
23.94500 273.000
23.96000 272.000
23.97500 243.000
23.99000 258.000
24.00500 268.000
24.02000 248.000
24.03500 307.000
24.05000 283.000
24.06500 281.000
24.08000 274.000
24.09500 278.000
24.11000 271.000
24.12500 279.000
24.14000 271.000
24.15500 263.000
24.17000 248.000
24.18500 249.000
24.20000 250.000
24.21500 262.000
24.23000 274.000
24.24500 263.000
24.26000 273.000
24.27500 265.000
24.29000 265.000
24.30500 267.000
24.32000 266.000
24.33500 279.000
24.35000 270.000
24.36500 275.000
24.38000 282.000
24.39500 274.000
24.41000 268.000
24.42500 299.000
24.44000 289.000
24.45500 272.000
24.47000 295.000
24.48500 307.000
24.50000 283.000
24.51500 308.000
24.53000 297.000
24.54500 323.000
24.56000 297.000
24.57500 297.000
24.59000 331.000
24.60500 318.000
24.62000 317.000
24.63500 305.000
24.65000 325.000
24.66500 317.000
24.68000 306.000
24.69500 326.000
24.71000 314.000
24.72500 319.000
24.74000 324.000
24.75500 301.000
24.77000 298.000
24.78500 316.000
24.80000 281.000
24.81500 301.000
24.83000 287.000
24.84500 292.000
24.86000 285.000
24.87500 311.000
24.89000 283.000
24.90500 280.000
24.92000 301.000
24.93500 325.000
24.95000 292.000
24.96500 286.000
24.98000 277.000
24.99500 311.000
25.01000 282.000
25.02500 280.000
25.04000 298.000
25.05500 307.000
25.07000 289.000
25.08500 285.000
25.10000 285.000
25.11500 296.000
25.13000 324.000
25.14500 316.000
25.16000 289.000
25.17500 275.000
25.19000 299.000
25.20500 287.000
25.22000 293.000
25.23500 281.000
25.25000 310.000
25.26500 313.000
25.28000 326.000
25.29500 316.000
25.31000 305.000
25.32500 284.000
25.34000 305.000
25.35500 314.000
25.37000 313.000
25.38500 325.000
25.40000 301.000
25.41500 300.000
25.43000 349.000
25.44500 326.000
25.46000 360.000
25.47500 334.000
25.49000 331.000
25.50500 356.000
25.52000 359.000
25.53500 361.000
25.55000 372.000
25.56500 361.000
25.58000 378.000
25.59500 387.000
25.61000 383.000
25.62500 361.000
25.64000 386.000
25.65500 382.000
25.67000 369.000
25.68500 359.000
25.70000 371.000
25.71500 393.000
25.73000 402.000
25.74500 353.000
25.76000 345.000
25.77500 353.000
25.79000 361.000
25.80500 370.000
25.82000 357.000
25.83500 373.000
25.85000 353.000
25.86500 352.000
25.88000 351.000
25.89500 329.000
25.91000 310.000
25.92500 345.000
25.94000 348.000
25.95500 340.000
25.97000 339.000
25.98500 335.000
26.00000 321.000
26.01500 360.000
26.03000 333.000
26.04500 317.000
26.06000 329.000
26.07500 330.000
26.09000 312.000
26.10500 329.000
26.12000 317.000
26.13500 320.000
26.15000 336.000
26.16500 328.000
26.18000 339.000
26.19500 334.000
26.21000 326.000
26.22500 320.000
26.24000 320.000
26.25500 297.000
26.27000 325.000
26.28500 358.000
26.30000 337.000
26.31500 311.000
26.33000 301.000
26.34500 322.000
26.36000 353.000
26.37500 354.000
26.39000 341.000
26.40500 345.000
26.42000 372.000
26.43500 335.000
26.45000 336.000
26.46500 317.000
26.48000 349.000
26.49500 340.000
26.51000 330.000
26.52500 318.000
26.54000 323.000
26.55500 339.000
26.57000 318.000
26.58500 329.000
26.60000 348.000
26.61500 345.000
26.63000 345.000
26.64500 349.000
26.66000 345.000
26.67500 334.000
26.69000 351.000
26.70500 351.000
26.72000 344.000
26.73500 316.000
26.75000 361.000
26.76500 359.000
26.78000 338.000
26.79500 356.000
26.81000 371.000
26.82500 346.000
26.84000 331.000
26.85500 348.000
26.87000 382.000
26.88500 360.000
26.90000 395.000
26.91500 391.000
26.93000 412.000
26.94500 363.000
26.96000 359.000
26.97500 375.000
26.99000 363.000
27.00500 356.000
27.02000 381.000
27.03500 394.000
27.05000 382.000
27.06500 369.000
27.08000 370.000
27.09500 374.000
27.11000 368.000
27.12500 390.000
27.14000 394.000
27.15500 378.000
27.17000 371.000
27.18500 386.000
27.20000 398.000
27.21500 416.000
27.23000 402.000
27.24500 379.000
27.26000 420.000
27.27500 408.000
27.29000 467.000
27.30500 459.000
27.32000 438.000
27.33500 425.000
27.35000 402.000
27.36500 411.000
27.38000 448.000
27.39500 466.000
27.41000 458.000
27.42500 486.000
27.44000 502.000
27.45500 510.000
27.47000 512.000
27.48500 544.000
27.50000 576.000
27.51500 575.000
27.53000 625.000
27.54500 665.000
27.56000 654.000
27.57500 715.000
27.59000 762.000
27.60500 806.000
27.62000 866.000
27.63500 937.000
27.65000 1014.000
27.66500 1106.000
27.68000 1142.000
27.69500 1217.000
27.71000 1324.000
27.72500 1387.000
27.74000 1437.000
27.75500 1523.000
27.77000 1530.000
27.78500 1540.000
27.80000 1520.000
27.81500 1541.000
27.83000 1425.000
27.84500 1440.000
27.86000 1443.000
27.87500 1338.000
27.89000 1334.000
27.90500 1286.000
27.92000 1250.000
27.93500 1218.000
27.95000 1207.000
27.96500 1163.000
27.98000 1199.000
27.99500 1182.000
28.01000 1153.000
28.02500 1129.000
28.04000 1039.000
28.05500 990.000
28.07000 937.000
28.08500 944.000
28.10000 944.000
28.11500 888.000
28.13000 873.000
28.14500 829.000
28.16000 770.000
28.17500 816.000
28.19000 801.000
28.20500 767.000
28.22000 746.000
28.23500 720.000
28.25000 713.000
28.26500 728.000
28.28000 700.000
28.29500 702.000
28.31000 648.000
28.32500 612.000
28.34000 585.000
28.35500 590.000
28.37000 554.000
28.38500 593.000
28.40000 611.000
28.41500 588.000
28.43000 582.000
28.44500 547.000
28.46000 518.000
28.47500 501.000
28.49000 518.000
28.50500 526.000
28.52000 512.000
28.53500 489.000
28.55000 469.000
28.56500 450.000
28.58000 471.000
28.59500 499.000
28.61000 431.000
28.62500 432.000
28.64000 435.000
28.65500 461.000
28.67000 472.000
28.68500 419.000
28.70000 385.000
28.71500 422.000
28.73000 432.000
28.74500 403.000
28.76000 408.000
28.77500 405.000
28.79000 397.000
28.80500 381.000
28.82000 394.000
28.83500 368.000
28.85000 367.000
28.86500 354.000
28.88000 357.000
28.89500 388.000
28.91000 377.000
28.92500 352.000
28.94000 348.000
28.95500 368.000
28.97000 388.000
28.98500 339.000
29.00000 342.000
29.01500 351.000
29.03000 358.000
29.04500 373.000
29.06000 377.000
29.07500 374.000
29.09000 397.000
29.10500 398.000
29.12000 372.000
29.13500 370.000
29.15000 416.000
29.16500 423.000
29.18000 389.000
29.19500 371.000
29.21000 394.000
29.22500 342.000
29.24000 346.000
29.25500 352.000
29.27000 341.000
29.28500 324.000
29.30000 329.000
29.31500 333.000
29.33000 334.000
29.34500 304.000
29.36000 308.000
29.37500 310.000
29.39000 288.000
29.40500 309.000
29.42000 311.000
29.43500 322.000
29.45000 301.000
29.46500 294.000
29.48000 305.000
29.49500 302.000
29.51000 317.000
29.52500 298.000
29.54000 309.000
29.55500 294.000
29.57000 311.000
29.58500 324.000
29.60000 299.000
29.61500 310.000
29.63000 322.000
29.64500 309.000
29.66000 294.000
29.67500 298.000
29.69000 297.000
29.70500 285.000
29.72000 294.000
29.73500 323.000
29.75000 312.000
29.76500 303.000
29.78000 308.000
29.79500 336.000
29.81000 306.000
29.82500 301.000
29.84000 329.000
29.85500 300.000
29.87000 307.000
29.88500 288.000
29.90000 298.000
29.91500 299.000
29.93000 297.000
29.94500 307.000
29.96000 297.000
29.97500 282.000
29.99000 257.000
30.00500 298.000
30.02000 284.000
30.03500 282.000
30.05000 277.000
30.06500 279.000
30.08000 276.000
30.09500 286.000
30.11000 283.000
30.12500 280.000
30.14000 280.000
30.15500 299.000
30.17000 305.000
30.18500 299.000
30.20000 273.000
30.21500 291.000
30.23000 300.000
30.24500 323.000
30.26000 300.000
30.27500 347.000
30.29000 307.000
30.30500 324.000
30.32000 314.000
30.33500 317.000
30.35000 312.000
30.36500 305.000
30.38000 302.000
30.39500 301.000
30.41000 330.000
30.42500 292.000
30.44000 316.000
30.45500 314.000
30.47000 292.000
30.48500 295.000
30.50000 283.000
30.51500 293.000
30.53000 301.000
30.54500 296.000
30.56000 304.000
30.57500 304.000
30.59000 348.000
30.60500 319.000
30.62000 296.000
30.63500 301.000
30.65000 331.000
30.66500 313.000
30.68000 309.000
30.69500 315.000
30.71000 292.000
30.72500 293.000
30.74000 288.000
30.75500 310.000
30.77000 305.000
30.78500 284.000
30.80000 283.000
30.81500 272.000
30.83000 288.000
30.84500 276.000
30.86000 269.000
30.87500 284.000
30.89000 274.000
30.90500 275.000
30.92000 266.000
30.93500 290.000
30.95000 268.000
30.96500 265.000
30.98000 246.000
30.99500 256.000
31.01000 270.000
31.02500 253.000
31.04000 266.000
31.05500 234.000
31.07000 241.000
31.08500 254.000
31.10000 247.000
31.11500 249.000
31.13000 249.000
31.14500 241.000
31.16000 244.000
31.17500 240.000
31.19000 247.000
31.20500 264.000
31.22000 226.000
31.23500 235.000
31.25000 229.000
31.26500 277.000
31.28000 252.000
31.29500 254.000
31.31000 262.000
31.32500 268.000
31.34000 253.000
31.35500 255.000
31.37000 240.000
31.38500 266.000
31.40000 271.000
31.41500 256.000
31.43000 235.000
31.44500 253.000
31.46000 265.000
31.47500 255.000
31.49000 270.000
31.50500 278.000
31.52000 256.000
31.53500 249.000
31.55000 239.000
31.56500 251.000
31.58000 253.000
31.59500 262.000
31.61000 279.000
31.62500 249.000
31.64000 251.000
31.65500 261.000
31.67000 292.000
31.68500 251.000
31.70000 258.000
31.71500 276.000
31.73000 245.000
31.74500 263.000
31.76000 265.000
31.77500 275.000
31.79000 248.000
31.80500 265.000
31.82000 257.000
31.83500 273.000
31.85000 265.000
31.86500 264.000
31.88000 266.000
31.89500 241.000
31.91000 258.000
31.92500 236.000
31.94000 245.000
31.95500 253.000
31.97000 248.000
31.98500 271.000
32.00000 263.000
32.01500 224.000
32.03000 246.000
32.04500 269.000
32.06000 270.000
32.07500 262.000
32.09000 252.000
32.10500 244.000
32.12000 248.000
32.13500 242.000
32.15000 257.000
32.16500 255.000
32.18000 252.000
32.19500 257.000
32.21000 255.000
32.22500 260.000
32.24000 254.000
32.25500 285.000
32.27000 264.000
32.28500 302.000
32.30000 332.000
32.31500 335.000
32.33000 310.000
32.34500 313.000
32.36000 309.000
32.37500 321.000
32.39000 327.000
32.40500 310.000
32.42000 330.000
32.43500 341.000
32.45000 347.000
32.46500 310.000
32.48000 272.000
32.49500 244.000
32.51000 239.000
32.52500 254.000
32.54000 230.000
32.55500 227.000
32.57000 259.000
32.58500 239.000
32.60000 220.000
32.61500 225.000
32.63000 211.000
32.64500 208.000
32.66000 201.000
32.67500 210.000
32.69000 213.000
32.70500 180.000
32.72000 176.000
32.73500 186.000
32.75000 194.000
32.76500 210.000
32.78000 182.000
32.79500 188.000
32.81000 188.000
32.82500 200.000
32.84000 208.000
32.85500 182.000
32.87000 188.000
32.88500 178.000
32.90000 197.000
32.91500 191.000
32.93000 211.000
32.94500 196.000
32.96000 191.000
32.97500 197.000
32.99000 193.000
33.00500 186.000
33.02000 172.000
33.03500 160.000
33.05000 182.000
33.06500 184.000
33.08000 170.000
33.09500 172.000
33.11000 163.000
33.12500 181.000
33.14000 186.000
33.15500 172.000
33.17000 171.000
33.18500 180.000
33.20000 180.000
33.21500 177.000
33.23000 180.000
33.24500 174.000
33.26000 177.000
33.27500 163.000
33.29000 178.000
33.30500 171.000
33.32000 175.000
33.33500 190.000
33.35000 160.000
33.36500 158.000
33.38000 176.000
33.39500 178.000
33.41000 181.000
33.42500 170.000
33.44000 193.000
33.45500 185.000
33.47000 171.000
33.48500 179.000
33.50000 176.000
33.51500 165.000
33.53000 176.000
33.54500 177.000
33.56000 156.000
33.57500 180.000
33.59000 159.000
33.60500 173.000
33.62000 176.000
33.63500 188.000
33.65000 186.000
33.66500 190.000
33.68000 190.000
33.69500 176.000
33.71000 160.000
33.72500 172.000
33.74000 177.000
33.75500 164.000
33.77000 166.000
33.78500 169.000
33.80000 180.000
33.81500 191.000
33.83000 192.000
33.84500 169.000
33.86000 175.000
33.87500 170.000
33.89000 177.000
33.90500 168.000
33.92000 165.000
33.93500 185.000
33.95000 178.000
33.96500 187.000
33.98000 172.000
33.99500 166.000
34.01000 160.000
34.02500 171.000
34.04000 171.000
34.05500 156.000
34.07000 173.000
34.08500 189.000
34.10000 181.000
34.11500 167.000
34.13000 180.000
34.14500 150.000
34.16000 154.000
34.17500 152.000
34.19000 170.000
34.20500 188.000
34.22000 191.000
34.23500 193.000
34.25000 158.000
34.26500 168.000
34.28000 162.000
34.29500 165.000
34.31000 158.000
34.32500 156.000
34.34000 166.000
34.35500 174.000
34.37000 171.000
34.38500 171.000
34.40000 170.000
34.41500 155.000
34.43000 154.000
34.44500 185.000
34.46000 183.000
34.47500 162.000
34.49000 175.000
34.50500 178.000
34.52000 148.000
34.53500 150.000
34.55000 175.000
34.56500 170.000
34.58000 179.000
34.59500 175.000
34.61000 157.000
34.62500 186.000
34.64000 179.000
34.65500 156.000
34.67000 158.000
34.68500 157.000
34.70000 161.000
34.71500 161.000
34.73000 180.000
34.74500 199.000
34.76000 180.000
34.77500 179.000
34.79000 178.000
34.80500 179.000
34.82000 187.000
34.83500 171.000
34.85000 163.000
34.86500 181.000
34.88000 168.000
34.89500 195.000
34.91000 194.000
34.92500 185.000
34.94000 185.000
34.95500 175.000
34.97000 192.000
34.98500 192.000
35.00000 188.000
35.01500 179.000
35.03000 169.000
35.04500 178.000
35.06000 197.000
35.07500 175.000
35.09000 190.000
35.10500 194.000
35.12000 208.000
35.13500 200.000
35.15000 169.000
35.16500 185.000
35.18000 195.000
35.19500 195.000
35.21000 205.000
35.22500 219.000
35.24000 222.000
35.25500 227.000
35.27000 214.000
35.28500 215.000
35.30000 208.000
35.31500 238.000
35.33000 227.000
35.34500 253.000
35.36000 241.000
35.37500 268.000
35.39000 287.000
35.40500 275.000
35.42000 307.000
35.43500 321.000
35.45000 358.000
35.46500 384.000
35.48000 394.000
35.49500 398.000
35.51000 372.000
35.52500 372.000
35.54000 370.000
35.55500 387.000
35.57000 340.000
35.58500 306.000
35.60000 245.000
35.61500 235.000
35.63000 210.000
35.64500 231.000
35.66000 234.000
35.67500 216.000
35.69000 226.000
35.70500 215.000
35.72000 224.000
35.73500 208.000
35.75000 199.000
35.76500 204.000
35.78000 176.000
35.79500 197.000
35.81000 199.000
35.82500 209.000
35.84000 202.000
35.85500 199.000
35.87000 199.000
35.88500 200.000
35.90000 206.000
35.91500 198.000
35.93000 189.000
35.94500 183.000
35.96000 191.000
35.97500 180.000
35.99000 168.000
36.00500 167.000
36.02000 182.000
36.03500 169.000
36.05000 194.000
36.06500 193.000
36.08000 183.000
36.09500 191.000
36.11000 194.000
36.12500 189.000
36.14000 200.000
36.15500 198.000
36.17000 203.000
36.18500 221.000
36.20000 207.000
36.21500 215.000
36.23000 200.000
36.24500 194.000
36.26000 227.000
36.27500 221.000
36.29000 222.000
36.30500 214.000
36.32000 192.000
36.33500 185.000
36.35000 224.000
36.36500 223.000
36.38000 227.000
36.39500 210.000
36.41000 212.000
36.42500 215.000
36.44000 221.000
36.45500 217.000
36.47000 212.000
36.48500 197.000
36.50000 228.000
36.51500 235.000
36.53000 231.000
36.54500 242.000
36.56000 208.000
36.57500 234.000
36.59000 240.000
36.60500 236.000
36.62000 209.000
36.63500 214.000
36.65000 219.000
36.66500 216.000
36.68000 215.000
36.69500 189.000
36.71000 198.000
36.72500 191.000
36.74000 189.000
36.75500 186.000
36.77000 195.000
36.78500 208.000
36.80000 186.000
36.81500 188.000
36.83000 180.000
36.84500 177.000
36.86000 166.000
36.87500 186.000
36.89000 192.000
36.90500 187.000
36.92000 185.000
36.93500 191.000
36.95000 165.000
36.96500 175.000
36.98000 191.000
36.99500 194.000
37.01000 183.000
37.02500 176.000
37.04000 179.000
37.05500 170.000
37.07000 157.000
37.08500 188.000
37.10000 150.000
37.11500 174.000
37.13000 183.000
37.14500 172.000
37.16000 170.000
37.17500 187.000
37.19000 195.000
37.20500 210.000
37.22000 179.000
37.23500 191.000
37.25000 212.000
37.26500 190.000
37.28000 210.000
37.29500 225.000
37.31000 202.000
37.32500 205.000
37.34000 224.000
37.35500 202.000
37.37000 207.000
37.38500 211.000
37.40000 212.000
37.41500 218.000
37.43000 209.000
37.44500 200.000
37.46000 221.000
37.47500 213.000
37.49000 214.000
37.50500 198.000
37.52000 198.000
37.53500 219.000
37.55000 187.000
37.56500 188.000
37.58000 208.000
37.59500 215.000
37.61000 223.000
37.62500 207.000
37.64000 193.000
37.65500 192.000
37.67000 196.000
37.68500 206.000
37.70000 214.000
37.71500 199.000
37.73000 203.000
37.74500 204.000
37.76000 202.000
37.77500 193.000
37.79000 197.000
37.80500 219.000
37.82000 201.000
37.83500 192.000
37.85000 186.000
37.86500 185.000
37.88000 192.000
37.89500 188.000
37.91000 186.000
37.92500 192.000
37.94000 180.000
37.95500 176.000
37.97000 173.000
37.98500 182.000
38.00000 179.000
38.01500 173.000
38.03000 186.000
38.04500 178.000
38.06000 194.000
38.07500 193.000
38.09000 179.000
38.10500 172.000
38.12000 191.000
38.13500 192.000
38.15000 168.000
38.16500 182.000
38.18000 198.000
38.19500 181.000
38.21000 162.000
38.22500 186.000
38.24000 191.000
38.25500 171.000
38.27000 168.000
38.28500 168.000
38.30000 174.000
38.31500 182.000
38.33000 188.000
38.34500 175.000
38.36000 185.000
38.37500 192.000
38.39000 194.000
38.40500 183.000
38.42000 198.000
38.43500 215.000
38.45000 196.000
38.46500 172.000
38.48000 172.000
38.49500 173.000
38.51000 181.000
38.52500 188.000
38.54000 177.000
38.55500 192.000
38.57000 179.000
38.58500 173.000
38.60000 210.000
38.61500 185.000
38.63000 211.000
38.64500 180.000
38.66000 200.000
38.67500 209.000
38.69000 196.000
38.70500 193.000
38.72000 196.000
38.73500 186.000
38.75000 203.000
38.76500 197.000
38.78000 186.000
38.79500 194.000
38.81000 184.000
38.82500 184.000
38.84000 167.000
38.85500 165.000
38.87000 174.000
38.88500 165.000
38.90000 166.000
38.91500 195.000
38.93000 210.000
38.94500 194.000
38.96000 194.000
38.97500 165.000
38.99000 170.000
39.00500 181.000
39.02000 180.000
39.03500 185.000
39.05000 174.000
39.06500 174.000
39.08000 151.000
39.09500 167.000
39.11000 165.000
39.12500 157.000
39.14000 172.000
39.15500 177.000
39.17000 139.000
39.18500 134.000
39.20000 150.000
39.21500 162.000
39.23000 150.000
39.24500 159.000
39.26000 165.000
39.27500 164.000
39.29000 163.000
39.30500 148.000
39.32000 170.000
39.33500 157.000
39.35000 150.000
39.36500 166.000
39.38000 138.000
39.39500 141.000
39.41000 143.000
39.42500 151.000
39.44000 141.000
39.45500 141.000
39.47000 164.000
39.48500 159.000
39.50000 154.000
39.51500 141.000
39.53000 161.000
39.54500 161.000
39.56000 142.000
39.57500 167.000
39.59000 145.000
39.60500 153.000
39.62000 146.000
39.63500 159.000
39.65000 183.000
39.66500 155.000
39.68000 140.000
39.69500 160.000
39.71000 174.000
39.72500 163.000
39.74000 156.000
39.75500 139.000
39.77000 151.000
39.78500 157.000
39.80000 160.000
39.81500 168.000
39.83000 149.000
39.84500 164.000
39.86000 183.000
39.87500 177.000
39.89000 180.000
39.90500 160.000
39.92000 182.000
39.93500 175.000
39.95000 184.000
39.96500 179.000
39.98000 159.000
39.99500 157.000
40.01000 183.000
40.02500 184.000
40.04000 178.000
40.05500 177.000
40.07000 187.000
40.08500 171.000
40.10000 176.000
40.11500 172.000
40.13000 178.000
40.14500 151.000
40.16000 185.000
40.17500 187.000
40.19000 183.000
40.20500 181.000
40.22000 189.000
40.23500 164.000
40.25000 168.000
40.26500 187.000
40.28000 180.000
40.29500 159.000
40.31000 184.000
40.32500 169.000
40.34000 192.000
40.35500 182.000
40.37000 199.000
40.38500 193.000
40.40000 180.000
40.41500 163.000
40.43000 161.000
40.44500 169.000
40.46000 173.000
40.47500 173.000
40.49000 182.000
40.50500 179.000
40.52000 157.000
40.53500 156.000
40.55000 166.000
40.56500 163.000
40.58000 166.000
40.59500 165.000
40.61000 169.000
40.62500 194.000
40.64000 174.000
40.65500 162.000
40.67000 162.000
40.68500 132.000
40.70000 154.000
40.71500 171.000
40.73000 156.000
40.74500 170.000
40.76000 168.000
40.77500 142.000
40.79000 154.000
40.80500 159.000
40.82000 147.000
40.83500 152.000
40.85000 153.000
40.86500 170.000
40.88000 165.000
40.89500 165.000
40.91000 145.000
40.92500 156.000
40.94000 149.000
40.95500 161.000
40.97000 147.000
40.98500 146.000
41.00000 144.000
41.01500 155.000
41.03000 148.000
41.04500 159.000
41.06000 145.000
41.07500 152.000
41.09000 146.000
41.10500 158.000
41.12000 147.000
41.13500 143.000
41.15000 144.000
41.16500 142.000
41.18000 143.000
41.19500 163.000
41.21000 162.000
41.22500 153.000
41.24000 138.000
41.25500 138.000
41.27000 135.000
41.28500 143.000
41.30000 155.000
41.31500 135.000
41.33000 147.000
41.34500 130.000
41.36000 127.000
41.37500 142.000
41.39000 149.000
41.40500 147.000
41.42000 142.000
41.43500 137.000
41.45000 145.000
41.46500 136.000
41.48000 140.000
41.49500 146.000
41.51000 159.000
41.52500 142.000
41.54000 167.000
41.55500 143.000
41.57000 137.000
41.58500 148.000
41.60000 148.000
41.61500 143.000
41.63000 148.000
41.64500 148.000
41.66000 134.000
41.67500 135.000
41.69000 126.000
41.70500 152.000
41.72000 128.000
41.73500 130.000
41.75000 143.000
41.76500 147.000
41.78000 133.000
41.79500 136.000
41.81000 139.000
41.82500 134.000
41.84000 141.000
41.85500 150.000
41.87000 153.000
41.88500 136.000
41.90000 135.000
41.91500 135.000
41.93000 121.000
41.94500 132.000
41.96000 134.000
41.97500 142.000
41.99000 142.000
42.00500 143.000
42.02000 140.000
42.03500 144.000
42.05000 119.000
42.06500 128.000
42.08000 143.000
42.09500 129.000
42.11000 133.000
42.12500 143.000
42.14000 145.000
42.15500 151.000
42.17000 148.000
42.18500 138.000
42.20000 135.000
42.21500 154.000
42.23000 140.000
42.24500 143.000
42.26000 136.000
42.27500 139.000
42.29000 141.000
42.30500 153.000
42.32000 125.000
42.33500 156.000
42.35000 143.000
42.36500 128.000
42.38000 146.000
42.39500 132.000
42.41000 129.000
42.42500 135.000
42.44000 134.000
42.45500 129.000
42.47000 137.000
42.48500 152.000
42.50000 149.000
42.51500 155.000
42.53000 152.000
42.54500 153.000
42.56000 135.000
42.57500 142.000
42.59000 151.000
42.60500 152.000
42.62000 148.000
42.63500 139.000
42.65000 125.000
42.66500 154.000
42.68000 156.000
42.69500 155.000
42.71000 163.000
42.72500 157.000
42.74000 147.000
42.75500 150.000
42.77000 160.000
42.78500 167.000
42.80000 152.000
42.81500 156.000
42.83000 142.000
42.84500 146.000
42.86000 150.000
42.87500 163.000
42.89000 151.000
42.90500 149.000
42.92000 165.000
42.93500 170.000
42.95000 161.000
42.96500 161.000
42.98000 154.000
42.99500 145.000
43.01000 170.000
43.02500 170.000
43.04000 192.000
43.05500 196.000
43.07000 200.000
43.08500 188.000
43.10000 190.000
43.11500 203.000
43.13000 206.000
43.14500 214.000
43.16000 208.000
43.17500 239.000
43.19000 222.000
43.20500 242.000
43.22000 226.000
43.23500 249.000
43.25000 231.000
43.26500 239.000
43.28000 255.000
43.29500 244.000
43.31000 261.000
43.32500 266.000
43.34000 237.000
43.35500 244.000
43.37000 248.000
43.38500 248.000
43.40000 228.000
43.41500 237.000
43.43000 211.000
43.44500 193.000
43.46000 209.000
43.47500 191.000
43.49000 190.000
43.50500 180.000
43.52000 196.000
43.53500 193.000
43.55000 179.000
43.56500 179.000
43.58000 180.000
43.59500 186.000
43.61000 203.000
43.62500 177.000
43.64000 178.000
43.65500 183.000
43.67000 174.000
43.68500 177.000
43.70000 174.000
43.71500 185.000
43.73000 152.000
43.74500 159.000
43.76000 174.000
43.77500 172.000
43.79000 164.000
43.80500 159.000
43.82000 141.000
43.83500 125.000
43.85000 150.000
43.86500 171.000
43.88000 148.000
43.89500 161.000
43.91000 155.000
43.92500 138.000
43.94000 144.000
43.95500 151.000
43.97000 147.000
43.98500 163.000
44.00000 150.000
44.01500 154.000
44.03000 163.000
44.04500 151.000
44.06000 149.000
44.07500 152.000
44.09000 162.000
44.10500 157.000
44.12000 164.000
44.13500 152.000
44.15000 147.000
44.16500 158.000
44.18000 160.000
44.19500 177.000
44.21000 160.000
44.22500 153.000
44.24000 154.000
44.25500 143.000
44.27000 135.000
44.28500 169.000
44.30000 175.000
44.31500 166.000
44.33000 183.000
44.34500 167.000
44.36000 165.000
44.37500 180.000
44.39000 180.000
44.40500 186.000
44.42000 170.000
44.43500 193.000
44.45000 199.000
44.46500 197.000
44.48000 180.000
44.49500 173.000
44.51000 185.000
44.52500 190.000
44.54000 172.000
44.55500 190.000
44.57000 182.000
44.58500 187.000
44.60000 179.000
44.61500 185.000
44.63000 191.000
44.64500 162.000
44.66000 174.000
44.67500 172.000
44.69000 184.000
44.70500 179.000
44.72000 166.000
44.73500 164.000
44.75000 156.000
44.76500 155.000
44.78000 163.000
44.79500 163.000
44.81000 152.000
44.82500 171.000
44.84000 147.000
44.85500 167.000
44.87000 177.000
44.88500 168.000
44.90000 152.000
44.91500 166.000
44.93000 159.000
44.94500 156.000
44.96000 167.000
44.97500 178.000
44.99000 160.000
45.00500 151.000
45.02000 159.000
45.03500 168.000
45.05000 154.000
45.06500 149.000
45.08000 175.000
45.09500 162.000
45.11000 158.000
45.12500 162.000
45.14000 173.000
45.15500 163.000
45.17000 157.000
45.18500 158.000
45.20000 168.000
45.21500 158.000
45.23000 155.000
45.24500 190.000
45.26000 175.000
45.27500 161.000
45.29000 145.000
45.30500 160.000
45.32000 164.000
45.33500 145.000
45.35000 146.000
45.36500 156.000
45.38000 154.000
45.39500 165.000
45.41000 151.000
45.42500 155.000
45.44000 154.000
45.45500 159.000
45.47000 174.000
45.48500 177.000
45.50000 153.000
45.51500 181.000
45.53000 150.000
45.54500 156.000
45.56000 166.000
45.57500 151.000
45.59000 164.000
45.60500 155.000
45.62000 167.000
45.63500 148.000
45.65000 156.000
45.66500 154.000
45.68000 172.000
45.69500 167.000
45.71000 154.000
45.72500 127.000
45.74000 131.000
45.75500 140.000
45.77000 151.000
45.78500 134.000
45.80000 145.000
45.81500 145.000
45.83000 149.000
45.84500 155.000
45.86000 152.000
45.87500 154.000
45.89000 158.000
45.90500 148.000
45.92000 163.000
45.93500 163.000
45.95000 150.000
45.96500 161.000
45.98000 166.000
45.99500 168.000
46.01000 160.000
46.02500 134.000
46.04000 150.000
46.05500 155.000
46.07000 155.000
46.08500 162.000
46.10000 150.000
46.11500 141.000
46.13000 162.000
46.14500 183.000
46.16000 184.000
46.17500 151.000
46.19000 152.000
46.20500 161.000
46.22000 165.000
46.23500 159.000
46.25000 169.000
46.26500 158.000
46.28000 145.000
46.29500 133.000
46.31000 141.000
46.32500 140.000
46.34000 159.000
46.35500 171.000
46.37000 150.000
46.38500 146.000
46.40000 149.000
46.41500 145.000
46.43000 161.000
46.44500 141.000
46.46000 152.000
46.47500 145.000
46.49000 159.000
46.50500 153.000
46.52000 159.000
46.53500 145.000
46.55000 139.000
46.56500 127.000
46.58000 134.000
46.59500 137.000
46.61000 141.000
46.62500 166.000
46.64000 133.000
46.65500 137.000
46.67000 146.000
46.68500 142.000
46.70000 148.000
46.71500 151.000
46.73000 153.000
46.74500 166.000
46.76000 143.000
46.77500 153.000
46.79000 154.000
46.80500 166.000
46.82000 145.000
46.83500 141.000
46.85000 140.000
46.86500 134.000
46.88000 136.000
46.89500 144.000
46.91000 144.000
46.92500 153.000
46.94000 130.000
46.95500 138.000
46.97000 140.000
46.98500 153.000
47.00000 139.000
47.01500 135.000
47.03000 133.000
47.04500 128.000
47.06000 131.000
47.07500 159.000
47.09000 153.000
47.10500 154.000
47.12000 130.000
47.13500 139.000
47.15000 120.000
47.16500 134.000
47.18000 150.000
47.19500 157.000
47.21000 138.000
47.22500 137.000
47.24000 119.000
47.25500 143.000
47.27000 135.000
47.28500 135.000
47.30000 152.000
47.31500 129.000
47.33000 121.000
47.34500 117.000
47.36000 132.000
47.37500 123.000
47.39000 111.000
47.40500 120.000
47.42000 108.000
47.43500 113.000
47.45000 114.000
47.46500 135.000
47.48000 129.000
47.49500 126.000
47.51000 117.000
47.52500 119.000
47.54000 116.000
47.55500 105.000
47.57000 119.000
47.58500 119.000
47.60000 108.000
47.61500 117.000
47.63000 121.000
47.64500 113.000
47.66000 110.000
47.67500 105.000
47.69000 105.000
47.70500 125.000
47.72000 123.000
47.73500 118.000
47.75000 126.000
47.76500 117.000
47.78000 109.000
47.79500 102.000
47.81000 115.000
47.82500 110.000
47.84000 110.000
47.85500 103.000
47.87000 99.000
47.88500 118.000
47.90000 127.000
47.91500 119.000
47.93000 117.000
47.94500 113.000
47.96000 111.000
47.97500 123.000
47.99000 128.000
48.00500 129.000
48.02000 111.000
48.03500 101.000
48.05000 110.000
48.06500 115.000
48.08000 130.000
48.09500 121.000
48.11000 122.000
48.12500 136.000
48.14000 134.000
48.15500 121.000
48.17000 116.000
48.18500 110.000
48.20000 111.000
48.21500 117.000
48.23000 115.000
48.24500 119.000
48.26000 133.000
48.27500 114.000
48.29000 120.000
48.30500 126.000
48.32000 124.000
48.33500 112.000
48.35000 108.000
48.36500 100.000
48.38000 111.000
48.39500 130.000
48.41000 107.000
48.42500 113.000
48.44000 111.000
48.45500 125.000
48.47000 117.000
48.48500 91.000
48.50000 111.000
48.51500 116.000
48.53000 102.000
48.54500 106.000
48.56000 116.000
48.57500 104.000
48.59000 106.000
48.60500 95.000
48.62000 117.000
48.63500 113.000
48.65000 108.000
48.66500 105.000
48.68000 110.000
48.69500 105.000
48.71000 105.000
48.72500 114.000
48.74000 106.000
48.75500 103.000
48.77000 112.000
48.78500 110.000
48.80000 119.000
48.81500 119.000
48.83000 114.000
48.84500 111.000
48.86000 95.000
48.87500 109.000
48.89000 127.000
48.90500 116.000
48.92000 117.000
48.93500 106.000
48.95000 119.000
48.96500 114.000
48.98000 111.000
48.99500 104.000
49.01000 98.000
49.02500 113.000
49.04000 111.000
49.05500 102.000
49.07000 107.000
49.08500 105.000
49.10000 104.000
49.11500 118.000
49.13000 125.000
49.14500 114.000
49.16000 109.000
49.17500 98.000
49.19000 111.000
49.20500 103.000
49.22000 98.000
49.23500 117.000
49.25000 95.000
49.26500 109.000
49.28000 116.000
49.29500 112.000
49.31000 99.000
49.32500 109.000
49.34000 129.000
49.35500 122.000
49.37000 97.000
49.38500 112.000
49.40000 108.000
49.41500 111.000
49.43000 116.000
49.44500 122.000
49.46000 110.000
49.47500 102.000
49.49000 117.000
49.50500 107.000
49.52000 104.000
49.53500 118.000
49.55000 114.000
49.56500 109.000
49.58000 110.000
49.59500 105.000
49.61000 119.000
49.62500 114.000
49.64000 114.000
49.65500 105.000
49.67000 108.000
49.68500 101.000
49.70000 99.000
49.71500 110.000
49.73000 105.000
49.74500 105.000
49.76000 100.000
49.77500 99.000
49.79000 121.000
49.80500 108.000
49.82000 109.000
49.83500 110.000
49.85000 120.000
49.86500 118.000
49.88000 105.000
49.89500 109.000
49.91000 115.000
49.92500 102.000
49.94000 109.000
49.95500 111.000
49.97000 119.000
49.98500 120.000
50.00000 106.000
50.01500 125.000
50.03000 145.000
50.04500 125.000
50.06000 124.000
50.07500 131.000
50.09000 143.000
50.10500 141.000
50.12000 138.000
50.13500 148.000
50.15000 124.000
50.16500 128.000
50.18000 141.000
50.19500 141.000
50.21000 135.000
50.22500 139.000
50.24000 119.000
50.25500 129.000
50.27000 113.000
50.28500 115.000
50.30000 120.000
50.31500 134.000
50.33000 125.000
50.34500 115.000
50.36000 110.000
50.37500 110.000
50.39000 113.000
50.40500 121.000
50.42000 116.000
50.43500 108.000
50.45000 115.000
50.46500 119.000
50.48000 115.000
50.49500 107.000
50.51000 111.000
50.52500 111.000
50.54000 123.000
50.55500 133.000
50.57000 128.000
50.58500 118.000
50.60000 118.000
50.61500 112.000
50.63000 121.000
50.64500 119.000
50.66000 123.000
50.67500 120.000
50.69000 117.000
50.70500 120.000
50.72000 124.000
50.73500 118.000
50.75000 114.000
50.76500 116.000
50.78000 122.000
50.79500 126.000
50.81000 111.000
50.82500 107.000
50.84000 116.000
50.85500 117.000
50.87000 126.000
50.88500 112.000
50.90000 136.000
50.91500 127.000
50.93000 121.000
50.94500 116.000
50.96000 125.000
50.97500 119.000
50.99000 111.000
51.00500 118.000
51.02000 117.000
51.03500 118.000
51.05000 131.000
51.06500 115.000
51.08000 120.000
51.09500 123.000
51.11000 111.000
51.12500 124.000
51.14000 119.000
51.15500 124.000
51.17000 127.000
51.18500 117.000
51.20000 110.000
51.21500 129.000
51.23000 118.000
51.24500 107.000
51.26000 123.000
51.27500 120.000
51.29000 106.000
51.30500 103.000
51.32000 108.000
51.33500 98.000
51.35000 114.000
51.36500 125.000
51.38000 117.000
51.39500 116.000
51.41000 109.000
51.42500 111.000
51.44000 114.000
51.45500 121.000
51.47000 104.000
51.48500 122.000
51.50000 105.000
51.51500 102.000
51.53000 92.000
51.54500 107.000
51.56000 111.000
51.57500 109.000
51.59000 113.000
51.60500 127.000
51.62000 125.000
51.63500 134.000
51.65000 130.000
51.66500 119.000
51.68000 128.000
51.69500 108.000
51.71000 117.000
51.72500 110.000
51.74000 110.000
51.75500 105.000
51.77000 101.000
51.78500 111.000
51.80000 123.000
51.81500 113.000
51.83000 121.000
51.84500 129.000
51.86000 110.000
51.87500 100.000
51.89000 108.000
51.90500 126.000
51.92000 110.000
51.93500 116.000
51.95000 118.000
51.96500 108.000
51.98000 115.000
51.99500 123.000
52.01000 96.000
52.02500 110.000
52.04000 117.000
52.05500 106.000
52.07000 95.000
52.08500 102.000
52.10000 103.000
52.11500 102.000
52.13000 115.000
52.14500 112.000
52.16000 92.000
52.17500 95.000
52.19000 95.000
52.20500 97.000
52.22000 94.000
52.23500 115.000
52.25000 98.000
52.26500 106.000
52.28000 98.000
52.29500 101.000
52.31000 121.000
52.32500 104.000
52.34000 108.000
52.35500 116.000
52.37000 122.000
52.38500 118.000
52.40000 112.000
52.41500 104.000
52.43000 90.000
52.44500 94.000
52.46000 112.000
52.47500 132.000
52.49000 106.000
52.50500 113.000
52.52000 109.000
52.53500 120.000
52.55000 120.000
52.56500 102.000
52.58000 105.000
52.59500 105.000
52.61000 95.000
52.62500 117.000
52.64000 114.000
52.65500 126.000
52.67000 115.000
52.68500 109.000
52.70000 117.000
52.71500 113.000
52.73000 106.000
52.74500 118.000
52.76000 132.000
52.77500 123.000
52.79000 113.000
52.80500 123.000
52.82000 131.000
52.83500 125.000
52.85000 124.000
52.86500 114.000
52.88000 114.000
52.89500 112.000
52.91000 100.000
52.92500 122.000
52.94000 138.000
52.95500 127.000
52.97000 121.000
52.98500 130.000
53.00000 114.000
53.01500 117.000
53.03000 124.000
53.04500 106.000
53.06000 118.000
53.07500 125.000
53.09000 132.000
53.10500 121.000
53.12000 116.000
53.13500 113.000
53.15000 124.000
53.16500 115.000
53.18000 124.000
53.19500 124.000
53.21000 122.000
53.22500 99.000
53.24000 123.000
53.25500 129.000
53.27000 121.000
53.28500 129.000
53.30000 112.000
53.31500 120.000
53.33000 129.000
53.34500 118.000
53.36000 117.000
53.37500 116.000
53.39000 121.000
53.40500 131.000
53.42000 124.000
53.43500 104.000
53.45000 106.000
53.46500 112.000
53.48000 104.000
53.49500 96.000
53.51000 110.000
53.52500 122.000
53.54000 100.000
53.55500 103.000
53.57000 94.000
53.58500 111.000
53.60000 119.000
53.61500 103.000
53.63000 117.000
53.64500 105.000
53.66000 120.000
53.67500 115.000
53.69000 101.000
53.70500 113.000
53.72000 100.000
53.73500 96.000
53.75000 118.000
53.76500 114.000
53.78000 98.000
53.79500 111.000
53.81000 109.000
53.82500 114.000
53.84000 99.000
53.85500 108.000
53.87000 103.000
53.88500 99.000
53.90000 117.000
53.91500 115.000
53.93000 115.000
53.94500 101.000
53.96000 113.000
53.97500 112.000
53.99000 96.000
54.00500 106.000
54.02000 99.000
54.03500 122.000
54.05000 106.000
54.06500 93.000
54.08000 92.000
54.09500 118.000
54.11000 105.000
54.12500 98.000
54.14000 103.000
54.15500 107.000
54.17000 126.000
54.18500 107.000
54.20000 115.000
54.21500 116.000
54.23000 109.000
54.24500 115.000
54.26000 100.000
54.27500 118.000
54.29000 110.000
54.30500 119.000
54.32000 114.000
54.33500 103.000
54.35000 106.000
54.36500 117.000
54.38000 126.000
54.39500 112.000
54.41000 115.000
54.42500 118.000
54.44000 107.000
54.45500 94.000
54.47000 110.000
54.48500 112.000
54.50000 99.000
54.51500 102.000
54.53000 118.000
54.54500 112.000
54.56000 118.000
54.57500 101.000
54.59000 101.000
54.60500 122.000
54.62000 108.000
54.63500 103.000
54.65000 121.000
54.66500 120.000
54.68000 105.000
54.69500 115.000
54.71000 104.000
54.72500 110.000
54.74000 108.000
54.75500 89.000
54.77000 88.000
54.78500 97.000
54.80000 107.000
54.81500 93.000
54.83000 110.000
54.84500 103.000
54.86000 100.000
54.87500 106.000
54.89000 95.000
54.90500 104.000
54.92000 96.000
54.93500 89.000
54.95000 96.000
54.96500 104.000
54.98000 106.000
54.99500 100.000
55.01000 95.000
55.02500 93.000
55.04000 97.000
55.05500 103.000
55.07000 108.000
55.08500 102.000
55.10000 96.000
55.11500 91.000
55.13000 106.000
55.14500 108.000
55.16000 109.000
55.17500 91.000
55.19000 98.000
55.20500 107.000
55.22000 98.000
55.23500 95.000
55.25000 90.000
55.26500 94.000
55.28000 98.000
55.29500 103.000
55.31000 111.000
55.32500 96.000
55.34000 90.000
55.35500 98.000
55.37000 105.000
55.38500 95.000
55.40000 104.000
55.41500 99.000
55.43000 95.000
55.44500 110.000
55.46000 99.000
55.47500 115.000
55.49000 95.000
55.50500 96.000
55.52000 108.000
55.53500 100.000
55.55000 103.000
55.56500 107.000
55.58000 108.000
55.59500 94.000
55.61000 110.000
55.62500 102.000
55.64000 87.000
55.65500 95.000
55.67000 108.000
55.68500 96.000
55.70000 101.000
55.71500 86.000
55.73000 92.000
55.74500 92.000
55.76000 106.000
55.77500 97.000
55.79000 93.000
55.80500 89.000
55.82000 92.000
55.83500 98.000
55.85000 114.000
55.86500 111.000
55.88000 92.000
55.89500 102.000
55.91000 99.000
55.92500 104.000
55.94000 93.000
55.95500 101.000
55.97000 99.000
55.98500 105.000
56.00000 112.000
56.01500 112.000
56.03000 105.000
56.04500 95.000
56.06000 91.000
56.07500 108.000
56.09000 121.000
56.10500 103.000
56.12000 102.000
56.13500 98.000
56.15000 110.000
56.16500 107.000
56.18000 105.000
56.19500 89.000
56.21000 92.000
56.22500 119.000
56.24000 100.000
56.25500 94.000
56.27000 104.000
56.28500 107.000
56.30000 108.000
56.31500 100.000
56.33000 105.000
56.34500 96.000
56.36000 111.000
56.37500 114.000
56.39000 115.000
56.40500 92.000
56.42000 99.000
56.43500 96.000
56.45000 110.000
56.46500 105.000
56.48000 113.000
56.49500 97.000
56.51000 101.000
56.52500 96.000
56.54000 97.000
56.55500 107.000
56.57000 108.000
56.58500 106.000
56.60000 91.000
56.61500 102.000
56.63000 114.000
56.64500 100.000
56.66000 100.000
56.67500 89.000
56.69000 104.000
56.70500 113.000
56.72000 115.000
56.73500 101.000
56.75000 87.000
56.76500 98.000
56.78000 106.000
56.79500 110.000
56.81000 112.000
56.82500 108.000
56.84000 107.000
56.85500 98.000
56.87000 94.000
56.88500 97.000
56.90000 104.000
56.91500 108.000
56.93000 107.000
56.94500 100.000
56.96000 116.000
56.97500 109.000
56.99000 107.000
57.00500 106.000
57.02000 111.000
57.03500 102.000
57.05000 107.000
57.06500 106.000
57.08000 90.000
57.09500 106.000
57.11000 113.000
57.12500 114.000
57.14000 109.000
57.15500 106.000
57.17000 106.000
57.18500 111.000
57.20000 113.000
57.21500 108.000
57.23000 115.000
57.24500 117.000
57.26000 128.000
57.27500 99.000
57.29000 111.000
57.30500 116.000
57.32000 122.000
57.33500 101.000
57.35000 144.000
57.36500 131.000
57.38000 123.000
57.39500 116.000
57.41000 113.000
57.42500 99.000
57.44000 113.000
57.45500 123.000
57.47000 133.000
57.48500 123.000
57.50000 116.000
57.51500 131.000
57.53000 130.000
57.54500 127.000
57.56000 96.000
57.57500 126.000
57.59000 113.000
57.60500 124.000
57.62000 120.000
57.63500 100.000
57.65000 131.000
57.66500 117.000
57.68000 121.000
57.69500 136.000
57.71000 116.000
57.72500 105.000
57.74000 111.000
57.75500 122.000
57.77000 122.000
57.78500 112.000
57.80000 109.000
57.81500 114.000
57.83000 111.000
57.84500 115.000
57.86000 121.000
57.87500 121.000
57.89000 119.000
57.90500 104.000
57.92000 123.000
57.93500 115.000
57.95000 109.000
57.96500 101.000
57.98000 108.000
57.99500 111.000
58.01000 111.000
58.02500 115.000
58.04000 113.000
58.05500 111.000
58.07000 109.000
58.08500 101.000
58.10000 110.000
58.11500 127.000
58.13000 110.000
58.14500 105.000
58.16000 99.000
58.17500 104.000
58.19000 118.000
58.20500 113.000
58.22000 101.000
58.23500 113.000
58.25000 114.000
58.26500 117.000
58.28000 105.000
58.29500 96.000
58.31000 106.000
58.32500 105.000
58.34000 117.000
58.35500 115.000
58.37000 95.000
58.38500 110.000
58.40000 124.000
58.41500 108.000
58.43000 134.000
58.44500 114.000
58.46000 109.000
58.47500 110.000
58.49000 97.000
58.50500 115.000
58.52000 102.000
58.53500 102.000
58.55000 93.000
58.56500 103.000
58.58000 118.000
58.59500 108.000
58.61000 99.000
58.62500 103.000
58.64000 95.000
58.65500 97.000
58.67000 114.000
58.68500 101.000
58.70000 95.000
58.71500 109.000
58.73000 101.000
58.74500 100.000
58.76000 117.000
58.77500 90.000
58.79000 85.000
58.80500 113.000
58.82000 108.000
58.83500 96.000
58.85000 107.000
58.86500 115.000
58.88000 103.000
58.89500 104.000
58.91000 98.000
58.92500 106.000
58.94000 96.000
58.95500 97.000
58.97000 87.000
58.98500 86.000
59.00000 99.000
59.01500 100.000
59.03000 93.000
59.04500 88.000
59.06000 102.000
59.07500 97.000
59.09000 107.000
59.10500 125.000
59.12000 121.000
59.13500 97.000
59.15000 100.000
59.16500 90.000
59.18000 105.000
59.19500 108.000
59.21000 114.000
59.22500 118.000
59.24000 100.000
59.25500 106.000
59.27000 90.000
59.28500 112.000
59.30000 96.000
59.31500 93.000
59.33000 103.000
59.34500 98.000
59.36000 100.000
59.37500 117.000
59.39000 119.000
59.40500 117.000
59.42000 106.000
59.43500 95.000
59.45000 100.000
59.46500 110.000
59.48000 86.000
59.49500 102.000
59.51000 118.000
59.52500 103.000
59.54000 103.000
59.55500 97.000
59.57000 107.000
59.58500 95.000
59.60000 90.000
59.61500 98.000
59.63000 112.000
59.64500 119.000
59.66000 112.000
59.67500 106.000
59.69000 92.000
59.70500 111.000
59.72000 109.000
59.73500 107.000
59.75000 112.000
59.76500 104.000
59.78000 104.000
59.79500 88.000
59.81000 106.000
59.82500 85.000
59.84000 88.000
59.85500 98.000
59.87000 86.000
59.88500 97.000
59.90000 99.000
59.91500 88.000
59.93000 84.000
59.94500 100.000
59.96000 105.000
59.97500 89.000
59.99000 93.000
60.00500 85.000
60.02000 87.000
60.03500 84.000
60.05000 90.000
60.06500 93.000
60.08000 88.000
60.09500 86.000
60.11000 97.000
60.12500 103.000
60.14000 93.000
60.15500 94.000
60.17000 102.000
60.18500 96.000
60.20000 90.000
60.21500 90.000
60.23000 98.000
60.24500 97.000
60.26000 95.000
60.27500 93.000
60.29000 87.000
60.30500 108.000
60.32000 113.000
60.33500 88.000
60.35000 99.000
60.36500 91.000
60.38000 87.000
60.39500 106.000
60.41000 103.000
60.42500 116.000
60.44000 95.000
60.45500 106.000
60.47000 111.000
60.48500 112.000
60.50000 95.000
60.51500 113.000
60.53000 95.000
60.54500 108.000
60.56000 104.000
60.57500 93.000
60.59000 83.000
60.60500 92.000
60.62000 102.000
60.63500 97.000
60.65000 100.000
60.66500 101.000
60.68000 100.000
60.69500 108.000
60.71000 94.000
60.72500 106.000
60.74000 111.000
60.75500 95.000
60.77000 94.000
60.78500 104.000
60.80000 113.000
60.81500 107.000
60.83000 97.000
60.84500 85.000
60.86000 97.000
60.87500 98.000
60.89000 101.000
60.90500 102.000
60.92000 106.000
60.93500 96.000
60.95000 101.000
60.96500 78.000
60.98000 97.000
60.99500 94.000
61.01000 80.000
61.02500 97.000
61.04000 106.000
61.05500 115.000
61.07000 105.000
61.08500 94.000
61.10000 99.000
61.11500 83.000
61.13000 90.000
61.14500 85.000
61.16000 101.000
61.17500 113.000
61.19000 96.000
61.20500 95.000
61.22000 87.000
61.23500 115.000
61.25000 106.000
61.26500 102.000
61.28000 93.000
61.29500 106.000
61.31000 99.000
61.32500 98.000
61.34000 105.000
61.35500 99.000
61.37000 100.000
61.38500 95.000
61.40000 93.000
61.41500 100.000
61.43000 104.000
61.44500 93.000
61.46000 93.000
61.47500 109.000
61.49000 106.000
61.50500 107.000
61.52000 101.000
61.53500 101.000
61.55000 98.000
61.56500 103.000
61.58000 100.000
61.59500 91.000
61.61000 91.000
61.62500 93.000
61.64000 87.000
61.65500 98.000
61.67000 100.000
61.68500 102.000
61.70000 104.000
61.71500 87.000
61.73000 95.000
61.74500 95.000
61.76000 95.000
61.77500 86.000
61.79000 90.000
61.80500 95.000
61.82000 96.000
61.83500 104.000
61.85000 108.000
61.86500 93.000
61.88000 92.000
61.89500 101.000
61.91000 104.000
61.92500 88.000
61.94000 81.000
61.95500 78.000
61.97000 84.000
61.98500 75.000
