2.00000 2.000
2.01500 2.000
2.03000 2.000
2.04500 3.000
2.06000 2.000
2.07500 3.000
2.09000 4.000
2.10500 2.000
2.12000 2.000
2.13500 2.000
2.15000 3.000
2.16500 3.000
2.18000 4.000
2.19500 2.000
2.21000 4.000
2.22500 4.000
2.24000 1.000
2.25500 2.000
2.27000 3.000
2.28500 3.000
2.30000 3.000
2.31500 3.000
2.33000 3.000
2.34500 2.000
2.36000 2.000
2.37500 2.000
2.39000 3.000
2.40500 3.000
2.42000 2.000
2.43500 2.000
2.45000 2.000
2.46500 4.000
2.48000 4.000
2.49500 5.000
2.51000 4.000
2.52500 4.000
2.54000 4.000
2.55500 6.000
2.57000 4.000
2.58500 3.000
2.60000 2.000
2.61500 1.000
2.63000 0.000
2.64500 1.000
2.66000 3.000
2.67500 4.000
2.69000 4.000
2.70500 12.000
2.72000 15.000
2.73500 22.000
2.75000 21.000
2.76500 30.000
2.78000 44.000
2.79500 57.000
2.81000 88.000
2.82500 117.000
2.84000 132.000
2.85500 156.000
2.87000 194.000
2.88500 217.000
2.90000 218.000
2.91500 209.000
2.93000 240.000
2.94500 234.000
2.96000 252.000
2.97500 240.000
2.99000 250.000
3.00500 259.000
3.02000 265.000
3.03500 258.000
3.05000 239.000
3.06500 241.000
3.08000 242.000
3.09500 228.000
3.11000 223.000
3.12500 236.000
3.14000 246.000
3.15500 252.000
3.17000 254.000
3.18500 262.000
3.20000 252.000
3.21500 252.000
3.23000 254.000
3.24500 264.000
3.26000 262.000
3.27500 258.000
3.29000 265.000
3.30500 274.000
3.32000 249.000
3.33500 236.000
3.35000 259.000
3.36500 259.000
3.38000 287.000
3.39500 264.000
3.41000 256.000
3.42500 265.000
3.44000 255.000
3.45500 247.000
3.47000 268.000
3.48500 281.000
3.50000 273.000
3.51500 291.000
3.53000 264.000
3.54500 259.000
3.56000 285.000
3.57500 293.000
3.59000 260.000
3.60500 276.000
3.62000 268.000
3.63500 285.000
3.65000 279.000
3.66500 301.000
3.68000 298.000
3.69500 297.000
3.71000 291.000
3.72500 315.000
3.74000 278.000
3.75500 280.000
3.77000 285.000
3.78500 304.000
3.80000 291.000
3.81500 291.000
3.83000 276.000
3.84500 283.000
3.86000 288.000
3.87500 284.000
3.89000 274.000
3.90500 305.000
3.92000 315.000
3.93500 308.000
3.95000 280.000
3.96500 299.000
3.98000 291.000
3.99500 287.000
4.01000 289.000
4.02500 311.000
4.04000 307.000
4.05500 294.000
4.07000 307.000
4.08500 304.000
4.10000 293.000
4.11500 306.000
4.13000 329.000
4.14500 306.000
4.16000 311.000
4.17500 319.000
4.19000 311.000
4.20500 337.000
4.22000 325.000
4.23500 332.000
4.25000 309.000
4.26500 299.000
4.28000 291.000
4.29500 311.000
4.31000 323.000
4.32500 325.000
4.34000 301.000
4.35500 302.000
4.37000 312.000
4.38500 331.000
4.40000 341.000
4.41500 312.000
4.43000 332.000
4.44500 339.000
4.46000 325.000
4.47500 305.000
4.49000 301.000
4.50500 318.000
4.52000 318.000
4.53500 317.000
4.55000 341.000
4.56500 318.000
4.58000 312.000
4.59500 318.000
4.61000 346.000
4.62500 341.000
4.64000 355.000
4.65500 330.000
4.67000 323.000
4.68500 334.000
4.70000 341.000
4.71500 353.000
4.73000 315.000
4.74500 349.000
4.76000 344.000
4.77500 351.000
4.79000 342.000
4.80500 333.000
4.82000 327.000
4.83500 357.000
4.85000 352.000
4.86500 356.000
4.88000 357.000
4.89500 360.000
4.91000 349.000
4.92500 342.000
4.94000 340.000
4.95500 343.000
4.97000 339.000
4.98500 348.000
5.00000 357.000
5.01500 358.000
5.03000 376.000
5.04500 367.000
5.06000 356.000
5.07500 342.000
5.09000 345.000
5.10500 341.000
5.12000 373.000
5.13500 365.000
5.15000 369.000
5.16500 361.000
5.18000 360.000
5.19500 366.000
5.21000 371.000
5.22500 351.000
5.24000 355.000
5.25500 319.000
5.27000 328.000
5.28500 332.000
5.30000 370.000
5.31500 356.000
5.33000 356.000
5.34500 351.000
5.36000 364.000
5.37500 390.000
5.39000 385.000
5.40500 373.000
5.42000 368.000
5.43500 371.000
5.45000 326.000
5.46500 354.000
5.48000 367.000
5.49500 344.000
5.51000 373.000
5.52500 377.000
5.54000 350.000
5.55500 349.000
5.57000 363.000
5.58500 372.000
5.60000 396.000
5.61500 353.000
5.63000 364.000
5.64500 380.000
5.66000 376.000
5.67500 389.000
5.69000 381.000
5.70500 377.000
5.72000 383.000
5.73500 359.000
5.75000 335.000
5.76500 378.000
5.78000 379.000
5.79500 381.000
5.81000 369.000
5.82500 393.000
5.84000 374.000
5.85500 388.000
5.87000 393.000
5.88500 392.000
5.90000 388.000
5.91500 407.000
5.93000 376.000
5.94500 393.000
5.96000 378.000
5.97500 414.000
5.99000 418.000
6.00500 366.000
6.02000 371.000
6.03500 395.000
6.05000 414.000
6.06500 376.000
6.08000 392.000
6.09500 394.000
6.11000 419.000
6.12500 396.000
6.14000 381.000
6.15500 376.000
6.17000 385.000
6.18500 401.000
6.20000 401.000
6.21500 388.000
6.23000 393.000
6.24500 389.000
6.26000 387.000
6.27500 396.000
6.29000 385.000
6.30500 376.000
6.32000 376.000
6.33500 379.000
6.35000 415.000
6.36500 417.000
6.38000 407.000
6.39500 408.000
6.41000 433.000
6.42500 420.000
6.44000 397.000
6.45500 408.000
6.47000 415.000
6.48500 419.000
6.50000 381.000
6.51500 363.000
6.53000 428.000
6.54500 426.000
6.56000 405.000
6.57500 402.000
6.59000 375.000
6.60500 395.000
6.62000 402.000
6.63500 414.000
6.65000 404.000
6.66500 401.000
6.68000 412.000
6.69500 381.000
6.71000 402.000
6.72500 375.000
6.74000 397.000
6.75500 416.000
6.77000 401.000
6.78500 408.000
6.80000 410.000
6.81500 386.000
6.83000 382.000
6.84500 412.000
6.86000 410.000
6.87500 413.000
6.89000 437.000
6.90500 408.000
6.92000 403.000
6.93500 433.000
6.95000 407.000
6.96500 389.000
6.98000 414.000
6.99500 407.000
7.01000 451.000
7.02500 444.000
7.04000 464.000
7.05500 433.000
7.07000 423.000
7.08500 432.000
7.10000 421.000
7.11500 431.000
7.13000 424.000
7.14500 461.000
7.16000 429.000
7.17500 459.000
7.19000 432.000
7.20500 396.000
7.22000 432.000
7.23500 432.000
7.25000 442.000
7.26500 448.000
7.28000 413.000
7.29500 414.000
7.31000 439.000
7.32500 422.000
7.34000 413.000
7.35500 443.000
7.37000 418.000
7.38500 449.000
7.40000 452.000
7.41500 443.000
7.43000 438.000
7.44500 449.000
7.46000 474.000
7.47500 468.000
7.49000 441.000
7.50500 433.000
7.52000 444.000
7.53500 466.000
7.55000 463.000
7.56500 477.000
7.58000 498.000
7.59500 490.000
7.61000 482.000
7.62500 511.000
7.64000 532.000
7.65500 530.000
7.67000 562.000
7.68500 527.000
7.70000 551.000
7.71500 580.000
7.73000 607.000
7.74500 649.000
7.76000 661.000
7.77500 712.000
7.79000 757.000
7.80500 790.000
7.82000 844.000
7.83500 839.000
7.85000 963.000
7.86500 1050.000
7.88000 1110.000
7.89500 1178.000
7.91000 1341.000
7.92500 1530.000
7.94000 1628.000
7.95500 1787.000
7.97000 1801.000
7.98500 1685.000
8.00000 1412.000
8.01500 1194.000
8.03000 984.000
8.04500 847.000
8.06000 779.000
8.07500 755.000
8.09000 748.000
8.10500 679.000
8.12000 669.000
8.13500 639.000
8.15000 586.000
8.16500 589.000
8.18000 592.000
8.19500 565.000
8.21000 584.000
8.22500 566.000
8.24000 560.000
8.25500 543.000
8.27000 536.000
8.28500 522.000
8.30000 541.000
8.31500 498.000
8.33000 531.000
8.34500 508.000
8.36000 514.000
8.37500 510.000
8.39000 521.000
8.40500 518.000
8.42000 524.000
8.43500 538.000
8.45000 515.000
8.46500 548.000
8.48000 536.000
8.49500 497.000
8.51000 501.000
8.52500 501.000
8.54000 471.000
8.55500 482.000
8.57000 469.000
8.58500 485.000
8.60000 513.000
8.61500 542.000
8.63000 510.000
8.64500 478.000
8.66000 503.000
8.67500 509.000
8.69000 488.000
8.70500 457.000
8.72000 501.000
8.73500 507.000
8.75000 475.000
8.76500 495.000
8.78000 480.000
8.79500 505.000
8.81000 516.000
8.82500 536.000
8.84000 501.000
8.85500 488.000
8.87000 478.000
8.88500 501.000
8.90000 518.000
8.91500 535.000
8.93000 509.000
8.94500 491.000
8.96000 468.000
8.97500 500.000
8.99000 496.000
9.00500 486.000
9.02000 501.000
9.03500 502.000
9.05000 500.000
9.06500 488.000
9.08000 487.000
9.09500 506.000
9.11000 497.000
9.12500 498.000
9.14000 473.000
9.15500 472.000
9.17000 509.000
9.18500 506.000
9.20000 528.000
9.21500 514.000
9.23000 543.000
9.24500 532.000
9.26000 499.000
9.27500 515.000
9.29000 514.000
9.30500 508.000
9.32000 481.000
9.33500 499.000
9.35000 515.000
9.36500 489.000
9.38000 499.000
9.39500 518.000
9.41000 530.000
9.42500 508.000
9.44000 494.000
9.45500 495.000
9.47000 491.000
9.48500 508.000
9.50000 525.000
9.51500 543.000
9.53000 531.000
9.54500 526.000
9.56000 502.000
9.57500 543.000
9.59000 549.000
9.60500 531.000
9.62000 521.000
9.63500 547.000
9.65000 545.000
9.66500 541.000
9.68000 558.000
9.69500 551.000
9.71000 558.000
9.72500 554.000
9.74000 546.000
9.75500 558.000
9.77000 559.000
9.78500 556.000
9.80000 578.000
9.81500 613.000
9.83000 564.000
9.84500 622.000
9.86000 628.000
9.87500 613.000
9.89000 679.000
9.90500 685.000
9.92000 697.000
9.93500 719.000
9.95000 752.000
9.96500 791.000
9.98000 801.000
9.99500 786.000
10.01000 862.000
10.02500 855.000
10.04000 876.000
10.05500 913.000
10.07000 911.000
10.08500 921.000
10.10000 898.000
10.11500 934.000
10.13000 880.000
10.14500 879.000
10.16000 839.000
10.17500 784.000
10.19000 766.000
10.20500 737.000
10.22000 713.000
10.23500 689.000
10.25000 626.000
10.26500 631.000
10.28000 607.000
10.29500 563.000
10.31000 559.000
10.32500 541.000
10.34000 535.000
10.35500 533.000
10.37000 517.000
10.38500 521.000
10.40000 534.000
10.41500 511.000
10.43000 532.000
10.44500 506.000
10.46000 518.000
10.47500 537.000
10.49000 511.000
10.50500 483.000
10.52000 511.000
10.53500 523.000
10.55000 506.000
10.56500 498.000
10.58000 526.000
10.59500 536.000
10.61000 515.000
10.62500 505.000
10.64000 520.000
10.65500 496.000
10.67000 503.000
10.68500 505.000
10.70000 497.000
10.71500 486.000
10.73000 507.000
10.74500 469.000
10.76000 478.000
10.77500 497.000
10.79000 508.000
10.80500 470.000
10.82000 466.000
10.83500 482.000
10.85000 454.000
10.86500 473.000
10.88000 495.000
10.89500 495.000
10.91000 490.000
10.92500 473.000
10.94000 506.000
10.95500 458.000
10.97000 473.000
10.98500 452.000
11.00000 471.000
11.01500 490.000
11.03000 479.000
11.04500 461.000
11.06000 474.000
11.07500 483.000
11.09000 501.000
11.10500 500.000
11.12000 490.000
11.13500 460.000
11.15000 456.000
11.16500 485.000
11.18000 483.000
11.19500 505.000
11.21000 506.000
11.22500 462.000
11.24000 470.000
11.25500 475.000
11.27000 437.000
11.28500 464.000
11.30000 487.000
11.31500 509.000
11.33000 502.000
11.34500 449.000
11.36000 458.000
11.37500 461.000
11.39000 469.000
11.40500 476.000
11.42000 482.000
11.43500 506.000
11.45000 504.000
11.46500 489.000
11.48000 502.000
11.49500 491.000
11.51000 473.000
11.52500 497.000
11.54000 531.000
11.55500 483.000
11.57000 472.000
11.58500 496.000
11.60000 484.000
11.61500 490.000
11.63000 502.000
11.64500 447.000
11.66000 514.000
11.67500 479.000
11.69000 449.000
11.70500 455.000
11.72000 494.000
11.73500 452.000
11.75000 459.000
11.76500 482.000
11.78000 502.000
11.79500 482.000
11.81000 461.000
11.82500 491.000
11.84000 508.000
11.85500 497.000
11.87000 449.000
11.88500 478.000
11.90000 477.000
11.91500 428.000
11.93000 485.000
11.94500 470.000
11.96000 480.000
11.97500 482.000
11.99000 489.000
12.00500 464.000
12.02000 460.000
12.03500 475.000
12.05000 439.000
12.06500 484.000
12.08000 488.000
12.09500 479.000
12.11000 469.000
12.12500 449.000
12.14000 463.000
12.15500 454.000
12.17000 479.000
12.18500 464.000
12.20000 457.000
12.21500 428.000
12.23000 431.000
12.24500 462.000
12.26000 445.000
12.27500 470.000
12.29000 475.000
12.30500 486.000
12.32000 470.000
12.33500 504.000
12.35000 487.000
12.36500 437.000
12.38000 433.000
12.39500 480.000
12.41000 463.000
12.42500 443.000
12.44000 461.000
12.45500 479.000
12.47000 493.000
12.48500 440.000
12.50000 449.000
12.51500 465.000
12.53000 431.000
12.54500 493.000
12.56000 477.000
12.57500 446.000
12.59000 481.000
12.60500 481.000
12.62000 489.000
12.63500 496.000
12.65000 486.000
12.66500 496.000
12.68000 490.000
12.69500 494.000
12.71000 454.000
12.72500 469.000
12.74000 450.000
12.75500 461.000
12.77000 470.000
12.78500 448.000
12.80000 478.000
12.81500 472.000
12.83000 503.000
12.84500 493.000
12.86000 461.000
12.87500 459.000
12.89000 458.000
12.90500 476.000
12.92000 459.000
12.93500 466.000
12.95000 483.000
12.96500 453.000
12.98000 443.000
12.99500 457.000
13.01000 466.000
13.02500 470.000
13.04000 467.000
13.05500 477.000
13.07000 467.000
13.08500 468.000
13.10000 469.000
13.11500 457.000
13.13000 458.000
13.14500 492.000
13.16000 463.000
13.17500 492.000
13.19000 482.000
13.20500 490.000
13.22000 471.000
13.23500 470.000
13.25000 445.000
13.26500 441.000
13.28000 460.000
13.29500 480.000
13.31000 468.000
13.32500 487.000
13.34000 488.000
13.35500 467.000
13.37000 475.000
13.38500 446.000
13.40000 464.000
13.41500 496.000
13.43000 461.000
13.44500 450.000
13.46000 454.000
13.47500 461.000
13.49000 466.000
13.50500 437.000
13.52000 447.000
13.53500 468.000
13.55000 480.000
13.56500 487.000
13.58000 475.000
13.59500 490.000
13.61000 478.000
13.62500 480.000
13.64000 445.000
13.65500 482.000
13.67000 454.000
13.68500 453.000
13.70000 453.000
13.71500 445.000
13.73000 425.000
13.74500 433.000
13.76000 428.000
13.77500 468.000
13.79000 475.000
13.80500 488.000
13.82000 485.000
13.83500 454.000
13.85000 463.000
13.86500 432.000
13.88000 462.000
13.89500 471.000
13.91000 456.000
13.92500 456.000
13.94000 457.000
13.95500 437.000
13.97000 464.000
13.98500 475.000
14.00000 454.000
14.01500 447.000
14.03000 477.000
14.04500 477.000
14.06000 432.000
14.07500 437.000
14.09000 449.000
14.10500 469.000
14.12000 441.000
14.13500 441.000
14.15000 448.000
14.16500 491.000
14.18000 455.000
14.19500 483.000
14.21000 447.000
14.22500 479.000
14.24000 476.000
14.25500 470.000
14.27000 469.000
14.28500 433.000
14.30000 434.000
14.31500 476.000
14.33000 465.000
14.34500 441.000
14.36000 433.000
14.37500 450.000
14.39000 470.000
14.40500 468.000
14.42000 467.000
14.43500 494.000
14.45000 455.000
14.46500 475.000
14.48000 455.000
14.49500 481.000
14.51000 451.000
14.52500 465.000
14.54000 439.000
14.55500 484.000
14.57000 455.000
14.58500 439.000
14.60000 455.000
14.61500 464.000
14.63000 450.000
14.64500 495.000
14.66000 485.000
14.67500 430.000
14.69000 448.000
14.70500 483.000
14.72000 483.000
14.73500 451.000
14.75000 459.000
14.76500 451.000
14.78000 434.000
14.79500 455.000
14.81000 448.000
14.82500 468.000
14.84000 455.000
14.85500 503.000
14.87000 510.000
14.88500 482.000
14.90000 481.000
14.91500 468.000
14.93000 481.000
14.94500 487.000
14.96000 498.000
14.97500 507.000
14.99000 538.000
15.00500 500.000
15.02000 517.000
15.03500 505.000
15.05000 517.000
15.06500 543.000
15.08000 541.000
15.09500 563.000
15.11000 548.000
15.12500 552.000
15.14000 579.000
15.15500 557.000
15.17000 562.000
15.18500 546.000
15.20000 575.000
15.21500 564.000
15.23000 566.000
15.24500 557.000
15.26000 559.000
15.27500 530.000
15.29000 519.000
15.30500 499.000
15.32000 549.000
15.33500 525.000
15.35000 490.000
15.36500 503.000
15.38000 507.000
15.39500 513.000
15.41000 477.000
15.42500 502.000
15.44000 526.000
15.45500 479.000
15.47000 503.000
15.48500 493.000
15.50000 449.000
15.51500 462.000
15.53000 476.000
15.54500 479.000
15.56000 478.000
15.57500 428.000
15.59000 459.000
15.60500 461.000
15.62000 451.000
15.63500 457.000
15.65000 465.000
15.66500 472.000
15.68000 448.000
15.69500 476.000
15.71000 477.000
15.72500 451.000
15.74000 457.000
15.75500 441.000
15.77000 446.000
15.78500 461.000
15.80000 473.000
15.81500 449.000
15.83000 455.000
15.84500 473.000
15.86000 470.000
15.87500 450.000
15.89000 457.000
15.90500 461.000
15.92000 467.000
15.93500 472.000
15.95000 452.000
15.96500 478.000
15.98000 487.000
15.99500 470.000
16.01000 487.000
16.02500 494.000
16.04000 482.000
16.05500 447.000
16.07000 491.000
16.08500 452.000
16.10000 465.000
16.11500 437.000
16.13000 449.000
16.14500 448.000
16.16000 458.000
16.17500 462.000
16.19000 451.000
16.20500 459.000
16.22000 462.000
16.23500 445.000
16.25000 456.000
16.26500 441.000
16.28000 453.000
16.29500 462.000
16.31000 457.000
16.32500 446.000
16.34000 446.000
16.35500 462.000
16.37000 450.000
16.38500 448.000
16.40000 454.000
16.41500 431.000
16.43000 459.000
16.44500 464.000
16.46000 470.000
16.47500 489.000
16.49000 502.000
16.50500 456.000
16.52000 503.000
16.53500 461.000
16.55000 439.000
16.56500 472.000
16.58000 506.000
16.59500 468.000
16.61000 441.000
16.62500 452.000
16.64000 429.000
16.65500 447.000
16.67000 442.000
16.68500 471.000
16.70000 472.000
16.71500 459.000
16.73000 485.000
16.74500 471.000
16.76000 492.000
16.77500 472.000
16.79000 429.000
16.80500 422.000
16.82000 434.000
16.83500 470.000
16.85000 480.000
16.86500 475.000
16.88000 442.000
16.89500 447.000
16.91000 460.000
16.92500 440.000
16.94000 441.000
16.95500 456.000
16.97000 444.000
16.98500 476.000
17.00000 455.000
17.01500 457.000
17.03000 452.000
17.04500 465.000
17.06000 449.000
17.07500 473.000
17.09000 446.000
17.10500 452.000
17.12000 456.000
17.13500 450.000
17.15000 437.000
17.16500 463.000
17.18000 473.000
17.19500 444.000
17.21000 454.000
17.22500 488.000
17.24000 461.000
17.25500 492.000
17.27000 441.000
17.28500 442.000
17.30000 448.000
17.31500 468.000
17.33000 483.000
17.34500 453.000
17.36000 475.000
17.37500 450.000
17.39000 453.000
17.40500 425.000
17.42000 453.000
17.43500 494.000
17.45000 467.000
17.46500 448.000
17.48000 496.000
17.49500 458.000
17.51000 468.000
17.52500 482.000
17.54000 444.000
17.55500 454.000
17.57000 490.000
17.58500 482.000
17.60000 467.000
17.61500 463.000
17.63000 444.000
17.64500 468.000
17.66000 469.000
17.67500 458.000
17.69000 447.000
17.70500 485.000
17.72000 477.000
17.73500 487.000
17.75000 470.000
17.76500 476.000
17.78000 470.000
17.79500 445.000
17.81000 452.000
17.82500 453.000
17.84000 473.000
17.85500 470.000
17.87000 443.000
17.88500 465.000
17.90000 476.000
17.91500 471.000
17.93000 491.000
17.94500 479.000
17.96000 503.000
17.97500 490.000
17.99000 460.000
18.00500 500.000
18.02000 455.000
18.03500 457.000
18.05000 480.000
18.06500 491.000
18.08000 482.000
18.09500 463.000
18.11000 470.000
18.12500 486.000
18.14000 479.000
18.15500 486.000
18.17000 478.000
18.18500 507.000
18.20000 468.000
18.21500 489.000
18.23000 504.000
18.24500 483.000
18.26000 478.000
18.27500 469.000
18.29000 492.000
18.30500 489.000
18.32000 519.000
18.33500 510.000
18.35000 531.000
18.36500 526.000
18.38000 563.000
18.39500 520.000
18.41000 495.000
18.42500 514.000
18.44000 522.000
18.45500 534.000
18.47000 546.000
18.48500 589.000
18.50000 582.000
18.51500 576.000
18.53000 554.000
18.54500 611.000
18.56000 635.000
18.57500 604.000
18.59000 667.000
18.60500 669.000
18.62000 647.000
18.63500 653.000
18.65000 655.000
18.66500 612.000
18.68000 685.000
18.69500 668.000
18.71000 637.000
18.72500 619.000
18.74000 608.000
18.75500 582.000
18.77000 613.000
18.78500 572.000
18.80000 582.000
18.81500 535.000
18.83000 531.000
18.84500 534.000
18.86000 544.000
18.87500 531.000
18.89000 499.000
18.90500 535.000
18.92000 514.000
18.93500 529.000
18.95000 496.000
18.96500 496.000
18.98000 488.000
18.99500 497.000
19.01000 518.000
19.02500 481.000
19.04000 479.000
19.05500 462.000
19.07000 484.000
19.08500 493.000
19.10000 477.000
19.11500 478.000
19.13000 476.000
19.14500 481.000
19.16000 475.000
19.17500 506.000
19.19000 507.000
19.20500 506.000
19.22000 511.000
19.23500 481.000
19.25000 507.000
19.26500 472.000
19.28000 469.000
19.29500 464.000
19.31000 475.000
19.32500 498.000
19.34000 473.000
19.35500 497.000
19.37000 491.000
19.38500 494.000
19.40000 506.000
19.41500 486.000
19.43000 503.000
19.44500 473.000
19.46000 470.000
19.47500 506.000
19.49000 511.000
19.50500 521.000
19.52000 514.000
19.53500 492.000
19.55000 514.000
19.56500 522.000
19.58000 492.000
19.59500 465.000
19.61000 508.000
19.62500 469.000
19.64000 482.000
19.65500 519.000
19.67000 514.000
19.68500 443.000
19.70000 471.000
19.71500 490.000
19.73000 476.000
19.74500 491.000
19.76000 508.000
19.77500 503.000
19.79000 498.000
19.80500 492.000
19.82000 478.000
19.83500 526.000
19.85000 505.000
19.86500 494.000
19.88000 494.000
19.89500 492.000
19.91000 500.000
19.92500 475.000
19.94000 493.000
19.95500 531.000
19.97000 493.000
19.98500 484.000
20.00000 511.000
20.01500 509.000
20.03000 479.000
20.04500 520.000
20.06000 495.000
20.07500 493.000
20.09000 462.000
20.10500 515.000
20.12000 500.000
20.13500 512.000
20.15000 494.000
20.16500 490.000
20.18000 524.000
20.19500 525.000
20.21000 498.000
20.22500 502.000
20.24000 479.000
20.25500 504.000
20.27000 512.000
20.28500 489.000
20.30000 538.000
20.31500 493.000
20.33000 480.000
20.34500 488.000
20.36000 490.000
20.37500 499.000
20.39000 542.000
20.40500 531.000
20.42000 490.000
20.43500 508.000
20.45000 496.000
20.46500 495.000
20.48000 544.000
20.49500 495.000
20.51000 513.000
20.52500 531.000
20.54000 535.000
20.55500 521.000
20.57000 527.000
20.58500 553.000
20.60000 553.000
20.61500 516.000
20.63000 526.000
20.64500 509.000
20.66000 511.000
20.67500 554.000
20.69000 530.000
20.70500 501.000
20.72000 509.000
20.73500 510.000
20.75000 516.000
20.76500 478.000
20.78000 506.000
20.79500 518.000
20.81000 491.000
20.82500 503.000
20.84000 522.000
20.85500 519.000
20.87000 504.000
20.88500 452.000
20.90000 490.000
20.91500 522.000
20.93000 534.000
20.94500 516.000
20.96000 493.000
20.97500 516.000
20.99000 528.000
21.00500 534.000
21.02000 493.000
21.03500 503.000
21.05000 535.000
21.06500 513.000
21.08000 476.000
21.09500 549.000
21.11000 526.000
21.12500 518.000
21.14000 527.000
21.15500 531.000
21.17000 532.000
21.18500 516.000
21.20000 528.000
21.21500 513.000
21.23000 583.000
21.24500 542.000
21.26000 534.000
21.27500 518.000
21.29000 511.000
21.30500 522.000
21.32000 545.000
21.33500 531.000
21.35000 543.000
21.36500 523.000
21.38000 558.000
21.39500 537.000
21.41000 546.000
21.42500 497.000
21.44000 511.000
21.45500 520.000
21.47000 538.000
21.48500 563.000
21.50000 523.000
21.51500 557.000
21.53000 585.000
21.54500 541.000
21.56000 515.000
21.57500 561.000
21.59000 562.000
21.60500 561.000
21.62000 563.000
21.63500 554.000
21.65000 595.000
21.66500 574.000
21.68000 581.000
21.69500 542.000
21.71000 561.000
21.72500 616.000
21.74000 598.000
21.75500 600.000
21.77000 595.000
21.78500 568.000
21.80000 591.000
21.81500 632.000
21.83000 596.000
21.84500 612.000
21.86000 627.000
21.87500 632.000
21.89000 670.000
21.90500 705.000
21.92000 698.000
21.93500 673.000
21.95000 651.000
21.96500 657.000
21.98000 653.000
21.99500 671.000
22.01000 689.000
22.02500 712.000
22.04000 673.000
22.05500 675.000
22.07000 718.000
22.08500 704.000
22.10000 704.000
22.11500 687.000
22.13000 656.000
22.14500 668.000
22.16000 648.000
22.17500 673.000
22.19000 651.000
22.20500 667.000
22.22000 614.000
22.23500 663.000
22.25000 696.000
22.26500 680.000
22.28000 636.000
22.29500 602.000
22.31000 585.000
22.32500 640.000
22.34000 605.000
22.35500 617.000
22.37000 617.000
22.38500 597.000
22.40000 585.000
22.41500 614.000
22.43000 582.000
22.44500 616.000
22.46000 585.000
22.47500 602.000
22.49000 628.000
22.50500 634.000
22.52000 620.000
22.53500 625.000
22.55000 613.000
22.56500 637.000
22.58000 631.000
22.59500 647.000
22.61000 632.000
22.62500 645.000
22.64000 643.000
22.65500 681.000
22.67000 668.000
22.68500 681.000
22.70000 668.000
22.71500 728.000
22.73000 740.000
22.74500 703.000
22.76000 723.000
22.77500 752.000
22.79000 755.000
22.80500 778.000
22.82000 787.000
22.83500 756.000
22.85000 778.000
22.86500 796.000
22.88000 781.000
22.89500 811.000
22.91000 846.000
22.92500 833.000
22.94000 807.000
22.95500 804.000
22.97000 819.000
22.98500 867.000
23.00000 823.000
23.01500 834.000
23.03000 813.000
23.04500 885.000
23.06000 862.000
23.07500 792.000
23.09000 793.000
23.10500 747.000
23.12000 763.000
23.13500 780.000
23.15000 761.000
23.16500 744.000
23.18000 764.000
23.19500 743.000
23.21000 736.000
23.22500 718.000
23.24000 672.000
23.25500 673.000
23.27000 687.000
23.28500 666.000
23.30000 704.000
23.31500 675.000
23.33000 673.000
23.34500 660.000
23.36000 658.000
23.37500 645.000
23.39000 656.000
23.40500 667.000
23.42000 661.000
23.43500 643.000
23.45000 631.000
23.46500 627.000
23.48000 621.000
23.49500 643.000
23.51000 654.000
23.52500 637.000
23.54000 611.000
23.55500 614.000
23.57000 646.000
23.58500 658.000
23.60000 641.000
23.61500 609.000
23.63000 615.000
23.64500 606.000
23.66000 619.000
23.67500 646.000
23.69000 621.000
23.70500 592.000
23.72000 620.000
23.73500 641.000
23.75000 628.000
23.76500 592.000
23.78000 628.000
23.79500 588.000
23.81000 589.000
23.82500 649.000
23.84000 646.000
23.85500 653.000
23.87000 606.000
23.88500 632.000
23.90000 639.000
23.91500 631.000
23.93000 634.000
23.94500 663.000
23.96000 635.000
23.97500 655.000
23.99000 643.000
24.00500 644.000
24.02000 671.000
24.03500 688.000
24.05000 661.000
24.06500 713.000
24.08000 717.000
24.09500 693.000
24.11000 678.000
24.12500 658.000
24.14000 638.000
24.15500 655.000
24.17000 671.000
24.18500 626.000
24.20000 660.000
24.21500 674.000
24.23000 682.000
24.24500 659.000
24.26000 686.000
24.27500 618.000
24.29000 707.000
24.30500 674.000
24.32000 707.000
24.33500 705.000
24.35000 727.000
24.36500 696.000
24.38000 723.000
24.39500 735.000
24.41000 730.000
24.42500 797.000
24.44000 748.000
24.45500 713.000
24.47000 743.000
24.48500 727.000
24.50000 733.000
24.51500 719.000
24.53000 736.000
24.54500 728.000
24.56000 753.000
24.57500 745.000
24.59000 785.000
24.60500 763.000
24.62000 792.000
24.63500 771.000
24.65000 794.000
24.66500 757.000
24.68000 762.000
24.69500 768.000
24.71000 720.000
24.72500 760.000
24.74000 727.000
24.75500 717.000
24.77000 744.000
24.78500 769.000
24.80000 769.000
24.81500 805.000
24.83000 742.000
24.84500 705.000
24.86000 693.000
24.87500 719.000
24.89000 732.000
24.90500 718.000
24.92000 746.000
24.93500 760.000
24.95000 690.000
24.96500 744.000
24.98000 760.000
24.99500 701.000
25.01000 748.000
25.02500 747.000
25.04000 710.000
25.05500 723.000
25.07000 709.000
25.08500 710.000
25.10000 753.000
25.11500 759.000
25.13000 722.000
25.14500 755.000
25.16000 738.000
25.17500 740.000
25.19000 765.000
25.20500 748.000
25.22000 739.000
25.23500 743.000
25.25000 709.000
25.26500 697.000
25.28000 718.000
25.29500 744.000
25.31000 709.000
25.32500 718.000
25.34000 750.000
25.35500 753.000
25.37000 775.000
25.38500 809.000
25.40000 781.000
25.41500 783.000
25.43000 760.000
25.44500 811.000
25.46000 817.000
25.47500 818.000
25.49000 802.000
25.50500 790.000
25.52000 830.000
25.53500 840.000
25.55000 800.000
25.56500 835.000
25.58000 858.000
25.59500 878.000
25.61000 827.000
25.62500 822.000
25.64000 818.000
25.65500 835.000
25.67000 886.000
25.68500 860.000
25.70000 852.000
25.71500 822.000
25.73000 881.000
25.74500 875.000
25.76000 825.000
25.77500 825.000
25.79000 865.000
25.80500 863.000
25.82000 850.000
25.83500 834.000
25.85000 833.000
25.86500 814.000
25.88000 845.000
25.89500 862.000
25.91000 799.000
25.92500 836.000
25.94000 845.000
25.95500 802.000
25.97000 806.000
25.98500 824.000
26.00000 820.000
26.01500 803.000
26.03000 810.000
26.04500 782.000
26.06000 778.000
26.07500 786.000
26.09000 803.000
26.10500 784.000
26.12000 778.000
26.13500 802.000
26.15000 789.000
26.16500 794.000
26.18000 773.000
26.19500 795.000
26.21000 751.000
26.22500 801.000
26.24000 777.000
26.25500 821.000
26.27000 784.000
26.28500 782.000
26.30000 780.000
26.31500 779.000
26.33000 796.000
26.34500 826.000
26.36000 800.000
26.37500 776.000
26.39000 832.000
26.40500 783.000
26.42000 799.000
26.43500 847.000
26.45000 859.000
26.46500 831.000
26.48000 830.000
26.49500 903.000
26.51000 868.000
26.52500 839.000
26.54000 823.000
26.55500 854.000
26.57000 854.000
26.58500 853.000
26.60000 863.000
26.61500 856.000
26.63000 817.000
26.64500 834.000
26.66000 892.000
26.67500 853.000
26.69000 867.000
26.70500 820.000
26.72000 860.000
26.73500 874.000
26.75000 850.000
26.76500 869.000
26.78000 831.000
26.79500 884.000
26.81000 859.000
26.82500 871.000
26.84000 878.000
26.85500 881.000
26.87000 832.000
26.88500 901.000
26.90000 876.000
26.91500 880.000
26.93000 932.000
26.94500 862.000
26.96000 926.000
26.97500 932.000
26.99000 957.000
27.00500 936.000
27.02000 902.000
27.03500 921.000
27.05000 971.000
27.06500 958.000
27.08000 991.000
27.09500 990.000
27.11000 942.000
27.12500 1018.000
27.14000 1007.000
27.15500 945.000
27.17000 986.000
27.18500 1021.000
27.20000 1077.000
27.21500 1107.000
27.23000 1065.000
27.24500 1054.000
27.26000 1006.000
27.27500 1068.000
27.29000 1053.000
27.30500 1042.000
27.32000 1108.000
27.33500 1161.000
27.35000 1259.000
27.36500 1207.000
27.38000 1275.000
27.39500 1259.000
27.41000 1242.000
27.42500 1303.000
27.44000 1404.000
27.45500 1392.000
27.47000 1374.000
27.48500 1474.000
27.50000 1579.000
27.51500 1644.000
27.53000 1721.000
27.54500 1816.000
27.56000 1911.000
27.57500 2050.000
27.59000 2238.000
27.60500 2263.000
27.62000 2459.000
27.63500 2721.000
27.65000 2885.000
27.66500 3065.000
27.68000 3161.000
27.69500 3352.000
27.71000 3532.000
27.72500 3737.000
27.74000 3710.000
27.75500 3682.000
27.77000 3578.000
27.78500 3650.000
27.80000 3488.000
27.81500 3403.000
27.83000 3191.000
27.84500 3025.000
27.86000 2977.000
27.87500 2801.000
27.89000 2940.000
27.90500 2799.000
27.92000 2750.000
27.93500 2688.000
27.95000 2601.000
27.96500 2632.000
27.98000 2606.000
27.99500 2642.000
28.01000 2531.000
28.02500 2370.000
28.04000 2414.000
28.05500 2315.000
28.07000 2179.000
28.08500 2172.000
28.10000 2070.000
28.11500 2009.000
28.13000 1961.000
28.14500 1882.000
28.16000 1887.000
28.17500 1908.000
28.19000 1839.000
28.20500 1783.000
28.22000 1805.000
28.23500 1777.000
28.25000 1655.000
28.26500 1599.000
28.28000 1538.000
28.29500 1608.000
28.31000 1508.000
28.32500 1475.000
28.34000 1386.000
28.35500 1448.000
28.37000 1443.000
28.38500 1364.000
28.40000 1358.000
28.41500 1315.000
28.43000 1318.000
28.44500 1233.000
28.46000 1262.000
28.47500 1209.000
28.49000 1225.000
28.50500 1174.000
28.52000 1189.000
28.53500 1159.000
28.55000 1138.000
28.56500 1079.000
28.58000 1073.000
28.59500 1051.000
28.61000 1067.000
28.62500 1077.000
28.64000 1052.000
28.65500 999.000
28.67000 1016.000
28.68500 1007.000
28.70000 1032.000
28.71500 1046.000
28.73000 990.000
28.74500 963.000
28.76000 988.000
28.77500 947.000
28.79000 916.000
28.80500 896.000
28.82000 958.000
28.83500 938.000
28.85000 953.000
28.86500 942.000
28.88000 895.000
28.89500 915.000
28.91000 922.000
28.92500 924.000
28.94000 895.000
28.95500 858.000
28.97000 867.000
28.98500 880.000
29.00000 914.000
29.01500 909.000
29.03000 909.000
29.04500 934.000
29.06000 928.000
29.07500 911.000
29.09000 916.000
29.10500 939.000
29.12000 990.000
29.13500 970.000
29.15000 962.000
29.16500 996.000
29.18000 990.000
29.19500 993.000
29.21000 933.000
29.22500 923.000
29.24000 870.000
29.25500 865.000
29.27000 824.000
29.28500 807.000
29.30000 793.000
29.31500 759.000
29.33000 798.000
29.34500 792.000
29.36000 778.000
29.37500 755.000
29.39000 791.000
29.40500 783.000
29.42000 735.000
29.43500 703.000
29.45000 759.000
29.46500 729.000
29.48000 737.000
29.49500 731.000
29.51000 764.000
29.52500 739.000
29.54000 749.000
29.55500 752.000
29.57000 734.000
29.58500 745.000
29.60000 749.000
29.61500 721.000
29.63000 773.000
29.64500 729.000
29.66000 730.000
29.67500 720.000
29.69000 722.000
29.70500 746.000
29.72000 781.000
29.73500 750.000
29.75000 737.000
29.76500 740.000
29.78000 752.000
29.79500 771.000
29.81000 742.000
29.82500 749.000
29.84000 714.000
29.85500 725.000
29.87000 727.000
29.88500 713.000
29.90000 679.000
29.91500 721.000
29.93000 727.000
29.94500 729.000
29.96000 687.000
29.97500 695.000
29.99000 719.000
30.00500 705.000
30.02000 711.000
30.03500 720.000
30.05000 711.000
30.06500 703.000
30.08000 709.000
30.09500 680.000
30.11000 697.000
30.12500 715.000
30.14000 731.000
30.15500 761.000
30.17000 731.000
30.18500 709.000
30.20000 726.000
30.21500 730.000
30.23000 769.000
30.24500 743.000
30.26000 712.000
30.27500 773.000
30.29000 748.000
30.30500 809.000
30.32000 779.000
30.33500 741.000
30.35000 788.000
30.36500 771.000
30.38000 795.000
30.39500 791.000
30.41000 757.000
30.42500 778.000
30.44000 786.000
30.45500 815.000
30.47000 804.000
30.48500 770.000
30.50000 782.000
30.51500 792.000
30.53000 808.000
30.54500 812.000
30.56000 771.000
30.57500 764.000
30.59000 776.000
30.60500 767.000
30.62000 755.000
30.63500 773.000
30.65000 745.000
30.66500 784.000
30.68000 736.000
30.69500 750.000
30.71000 761.000
30.72500 754.000
30.74000 778.000
30.75500 744.000
30.77000 700.000
30.78500 716.000
30.80000 699.000
30.81500 701.000
30.83000 693.000
30.84500 720.000
30.86000 687.000
30.87500 698.000
30.89000 691.000
30.90500 666.000
30.92000 687.000
30.93500 682.000
30.95000 646.000
30.96500 634.000
30.98000 611.000
30.99500 660.000
31.01000 635.000
31.02500 669.000
31.04000 645.000
31.05500 637.000
31.07000 660.000
31.08500 667.000
31.10000 649.000
31.11500 641.000
31.13000 617.000
31.14500 611.000
31.16000 615.000
31.17500 609.000
31.19000 614.000
31.20500 617.000
31.22000 633.000
31.23500 625.000
31.25000 589.000
31.26500 598.000
31.28000 603.000
31.29500 640.000
31.31000 590.000
31.32500 599.000
31.34000 618.000
31.35500 609.000
31.37000 622.000
31.38500 626.000
31.40000 660.000
31.41500 631.000
31.43000 631.000
31.44500 612.000
31.46000 632.000
31.47500 680.000
31.49000 634.000
31.50500 640.000
31.52000 623.000
31.53500 616.000
31.55000 623.000
31.56500 629.000
31.58000 604.000
31.59500 618.000
31.61000 637.000
31.62500 663.000
31.64000 592.000
31.65500 569.000
31.67000 581.000
31.68500 622.000
31.70000 629.000
31.71500 670.000
31.73000 651.000
31.74500 664.000
31.76000 597.000
31.77500 597.000
31.79000 615.000
31.80500 613.000
31.82000 631.000
31.83500 608.000
31.85000 613.000
31.86500 639.000
31.88000 628.000
31.89500 653.000
31.91000 621.000
31.92500 645.000
31.94000 647.000
31.95500 622.000
31.97000 599.000
31.98500 615.000
32.00000 649.000
32.01500 639.000
32.03000 604.000
32.04500 607.000
32.06000 643.000
32.07500 583.000
32.09000 631.000
32.10500 641.000
32.12000 614.000
32.13500 603.000
32.15000 646.000
32.16500 638.000
32.18000 602.000
32.19500 588.000
32.21000 655.000
32.22500 718.000
32.24000 731.000
32.25500 724.000
32.27000 749.000
32.28500 758.000
32.30000 751.000
32.31500 797.000
32.33000 771.000
32.34500 812.000
32.36000 787.000
32.37500 775.000
32.39000 759.000
32.40500 796.000
32.42000 741.000
32.43500 755.000
32.45000 735.000
32.46500 701.000
32.48000 680.000
32.49500 644.000
32.51000 649.000
32.52500 616.000
32.54000 592.000
32.55500 593.000
32.57000 571.000
32.58500 580.000
32.60000 548.000
32.61500 536.000
32.63000 564.000
32.64500 569.000
32.66000 563.000
32.67500 526.000
32.69000 540.000
32.70500 531.000
32.72000 532.000
32.73500 472.000
32.75000 507.000
32.76500 494.000
32.78000 513.000
32.79500 511.000
32.81000 492.000
32.82500 536.000
32.84000 516.000
32.85500 498.000
32.87000 480.000
32.88500 504.000
32.90000 496.000
32.91500 502.000
32.93000 497.000
32.94500 468.000
32.96000 480.000
32.97500 459.000
32.99000 464.000
33.00500 461.000
33.02000 484.000
33.03500 499.000
33.05000 452.000
33.06500 471.000
33.08000 457.000
33.09500 446.000
33.11000 457.000
33.12500 479.000
33.14000 456.000
33.15500 458.000
33.17000 461.000
33.18500 428.000
33.20000 446.000
33.21500 440.000
33.23000 446.000
33.24500 405.000
33.26000 437.000
33.27500 439.000
33.29000 452.000
33.30500 475.000
33.32000 465.000
33.33500 466.000
33.35000 460.000
33.36500 422.000
33.38000 442.000
33.39500 429.000
33.41000 433.000
33.42500 462.000
33.44000 444.000
33.45500 414.000
33.47000 465.000
33.48500 461.000
33.50000 421.000
33.51500 443.000
33.53000 452.000
33.54500 437.000
33.56000 425.000
33.57500 435.000
33.59000 458.000
33.60500 449.000
33.62000 482.000
33.63500 451.000
33.65000 481.000
33.66500 435.000
33.68000 460.000
33.69500 476.000
33.71000 476.000
33.72500 451.000
33.74000 438.000
33.75500 427.000
33.77000 432.000
33.78500 446.000
33.80000 436.000
33.81500 429.000
33.83000 438.000
33.84500 472.000
33.86000 456.000
33.87500 459.000
33.89000 454.000
33.90500 433.000
33.92000 437.000
33.93500 435.000
33.95000 412.000
33.96500 411.000
33.98000 425.000
33.99500 463.000
34.01000 470.000
34.02500 413.000
34.04000 411.000
34.05500 452.000
34.07000 446.000
34.08500 448.000
34.10000 452.000
34.11500 447.000
34.13000 439.000
34.14500 404.000
34.16000 455.000
34.17500 459.000
34.19000 432.000
34.20500 421.000
34.22000 459.000
34.23500 444.000
34.25000 429.000
34.26500 444.000
34.28000 437.000
34.29500 413.000
34.31000 420.000
34.32500 433.000
34.34000 431.000
34.35500 465.000
34.37000 431.000
34.38500 446.000
34.40000 435.000
34.41500 463.000
34.43000 448.000
34.44500 424.000
34.46000 446.000
34.47500 435.000
34.49000 440.000
34.50500 423.000
34.52000 402.000
34.53500 374.000
34.55000 455.000
34.56500 457.000
34.58000 465.000
34.59500 424.000
34.61000 428.000
34.62500 426.000
34.64000 405.000
34.65500 427.000
34.67000 442.000
34.68500 424.000
34.70000 450.000
34.71500 434.000
34.73000 455.000
34.74500 450.000
34.76000 463.000
34.77500 463.000
34.79000 432.000
34.80500 448.000
34.82000 450.000
34.83500 460.000
34.85000 450.000
34.86500 452.000
34.88000 442.000
34.89500 478.000
34.91000 471.000
34.92500 444.000
34.94000 494.000
34.95500 443.000
34.97000 452.000
34.98500 446.000
35.00000 440.000
35.01500 461.000
35.03000 485.000
35.04500 495.000
35.06000 464.000
35.07500 481.000
35.09000 503.000
35.10500 498.000
35.12000 512.000
35.13500 510.000
35.15000 518.000
35.16500 536.000
35.18000 498.000
35.19500 515.000
35.21000 519.000
35.22500 532.000
35.24000 557.000
35.25500 554.000
35.27000 493.000
35.28500 529.000
35.30000 586.000
35.31500 586.000
35.33000 618.000
35.34500 637.000
35.36000 657.000
35.37500 679.000
35.39000 699.000
35.40500 758.000
35.42000 819.000
35.43500 917.000
35.45000 929.000
35.46500 985.000
35.48000 969.000
35.49500 939.000
35.51000 913.000
35.52500 859.000
35.54000 877.000
35.55500 788.000
35.57000 717.000
35.58500 647.000
35.60000 634.000
35.61500 599.000
35.63000 541.000
35.64500 587.000
35.66000 565.000
35.67500 551.000
35.69000 528.000
35.70500 481.000
35.72000 516.000
35.73500 542.000
35.75000 520.000
35.76500 523.000
35.78000 468.000
35.79500 471.000
35.81000 486.000
35.82500 489.000
35.84000 480.000
35.85500 460.000
35.87000 455.000
35.88500 459.000
35.90000 475.000
35.91500 503.000
35.93000 451.000
35.94500 471.000
35.96000 505.000
35.97500 492.000
35.99000 477.000
36.00500 463.000
36.02000 475.000
36.03500 493.000
36.05000 491.000
36.06500 486.000
36.08000 463.000
36.09500 495.000
36.11000 529.000
36.12500 509.000
36.14000 489.000
36.15500 530.000
36.17000 536.000
36.18500 512.000
36.20000 528.000
36.21500 512.000
36.23000 515.000
36.24500 531.000
36.26000 511.000
36.27500 486.000
36.29000 539.000
36.30500 550.000
36.32000 543.000
36.33500 553.000
36.35000 520.000
36.36500 559.000
36.38000 527.000
36.39500 522.000
36.41000 531.000
36.42500 540.000
36.44000 550.000
36.45500 543.000
36.47000 529.000
36.48500 532.000
36.50000 532.000
36.51500 560.000
36.53000 553.000
36.54500 546.000
36.56000 553.000
36.57500 545.000
36.59000 544.000
36.60500 565.000
36.62000 571.000
36.63500 510.000
36.65000 551.000
36.66500 559.000
36.68000 528.000
36.69500 538.000
36.71000 519.000
36.72500 512.000
36.74000 482.000
36.75500 476.000
36.77000 451.000
36.78500 462.000
36.80000 502.000
36.81500 466.000
36.83000 458.000
36.84500 421.000
36.86000 421.000
36.87500 396.000
36.89000 467.000
36.90500 467.000
36.92000 471.000
36.93500 496.000
36.95000 463.000
36.96500 414.000
36.98000 458.000
36.99500 481.000
37.01000 440.000
37.02500 427.000
37.04000 450.000
37.05500 453.000
37.07000 459.000
37.08500 467.000
37.10000 482.000
37.11500 472.000
37.13000 480.000
37.14500 473.000
37.16000 486.000
37.17500 491.000
37.19000 470.000
37.20500 487.000
37.22000 483.000
37.23500 530.000
37.25000 494.000
37.26500 518.000
37.28000 490.000
37.29500 498.000
37.31000 497.000
37.32500 524.000
37.34000 525.000
37.35500 578.000
37.37000 535.000
37.38500 526.000
37.40000 521.000
37.41500 519.000
37.43000 530.000
37.44500 524.000
37.46000 513.000
37.47500 536.000
37.49000 521.000
37.50500 512.000
37.52000 540.000
37.53500 515.000
37.55000 486.000
37.56500 510.000
37.58000 497.000
37.59500 521.000
37.61000 522.000
37.62500 489.000
37.64000 519.000
37.65500 509.000
37.67000 517.000
37.68500 465.000
37.70000 472.000
37.71500 481.000
37.73000 506.000
37.74500 498.000
37.76000 513.000
37.77500 511.000
37.79000 500.000
37.80500 526.000
37.82000 492.000
37.83500 490.000
37.85000 485.000
37.86500 450.000
37.88000 490.000
37.89500 475.000
37.91000 435.000
37.92500 472.000
37.94000 488.000
37.95500 494.000
37.97000 455.000
37.98500 459.000
38.00000 456.000
38.01500 471.000
38.03000 480.000
38.04500 483.000
38.06000 469.000
38.07500 491.000
38.09000 476.000
38.10500 442.000
38.12000 441.000
38.13500 426.000
38.15000 466.000
38.16500 469.000
38.18000 453.000
38.19500 441.000
38.21000 440.000
38.22500 471.000
38.24000 443.000
38.25500 465.000
38.27000 478.000
38.28500 457.000
38.30000 492.000
38.31500 492.000
38.33000 451.000
38.34500 452.000
38.36000 489.000
38.37500 460.000
38.39000 445.000
38.40500 452.000
38.42000 452.000
38.43500 450.000
38.45000 463.000
38.46500 475.000
38.48000 470.000
38.49500 470.000
38.51000 459.000
38.52500 487.000
38.54000 498.000
38.55500 489.000
38.57000 457.000
38.58500 480.000
38.60000 483.000
38.61500 461.000
38.63000 431.000
38.64500 455.000
38.66000 488.000
38.67500 477.000
38.69000 481.000
38.70500 484.000
38.72000 497.000
38.73500 482.000
38.75000 481.000
38.76500 479.000
38.78000 449.000
38.79500 473.000
38.81000 466.000
38.82500 466.000
38.84000 465.000
38.85500 452.000
38.87000 436.000
38.88500 466.000
38.90000 482.000
38.91500 446.000
38.93000 426.000
38.94500 430.000
38.96000 447.000
38.97500 433.000
38.99000 418.000
39.00500 414.000
39.02000 441.000
39.03500 436.000
39.05000 439.000
39.06500 417.000
39.08000 393.000
39.09500 409.000
39.11000 437.000
39.12500 400.000
39.14000 387.000
39.15500 416.000
39.17000 361.000
39.18500 382.000
39.20000 381.000
39.21500 382.000
39.23000 366.000
39.24500 360.000
39.26000 355.000
39.27500 381.000
39.29000 366.000
39.30500 368.000
39.32000 383.000
39.33500 404.000
39.35000 375.000
39.36500 413.000
39.38000 395.000
39.39500 399.000
39.41000 366.000
39.42500 367.000
39.44000 382.000
39.45500 366.000
39.47000 382.000
39.48500 357.000
39.50000 359.000
39.51500 389.000
39.53000 408.000
39.54500 399.000
39.56000 388.000
39.57500 377.000
39.59000 373.000
39.60500 401.000
39.62000 417.000
39.63500 390.000
39.65000 419.000
39.66500 414.000
39.68000 417.000
39.69500 451.000
39.71000 431.000
39.72500 444.000
39.74000 401.000
39.75500 402.000
39.77000 371.000
39.78500 417.000
39.80000 403.000
39.81500 433.000
39.83000 393.000
39.84500 409.000
39.86000 427.000
39.87500 412.000
39.89000 399.000
39.90500 436.000
39.92000 431.000
39.93500 443.000
39.95000 409.000
39.96500 420.000
39.98000 453.000
39.99500 465.000
40.01000 427.000
40.02500 428.000
40.04000 430.000
40.05500 410.000
40.07000 419.000
40.08500 424.000
40.10000 437.000
40.11500 440.000
40.13000 456.000
40.14500 443.000
40.16000 441.000
40.17500 438.000
40.19000 431.000
40.20500 429.000
40.22000 439.000
40.23500 453.000
40.25000 442.000
40.26500 455.000
40.28000 410.000
40.29500 432.000
40.31000 431.000
40.32500 442.000
40.34000 428.000
40.35500 431.000
40.37000 424.000
40.38500 444.000
40.40000 433.000
40.41500 445.000
40.43000 424.000
40.44500 420.000
40.46000 433.000
40.47500 447.000
40.49000 430.000
40.50500 428.000
40.52000 397.000
40.53500 406.000
40.55000 408.000
40.56500 410.000
40.58000 421.000
40.59500 423.000
40.61000 418.000
40.62500 414.000
40.64000 402.000
40.65500 406.000
40.67000 442.000
40.68500 388.000
40.70000 390.000
40.71500 406.000
40.73000 394.000
40.74500 395.000
40.76000 395.000
40.77500 400.000
40.79000 383.000
40.80500 420.000
40.82000 417.000
40.83500 392.000
40.85000 408.000
40.86500 377.000
40.88000 378.000
40.89500 355.000
40.91000 353.000
40.92500 333.000
40.94000 359.000
40.95500 361.000
40.97000 360.000
40.98500 362.000
41.00000 390.000
41.01500 367.000
41.03000 340.000
41.04500 371.000
41.06000 352.000
41.07500 364.000
41.09000 383.000
41.10500 374.000
41.12000 361.000
41.13500 397.000
41.15000 379.000
41.16500 418.000
41.18000 379.000
41.19500 391.000
41.21000 344.000
41.22500 340.000
41.24000 385.000
41.25500 363.000
41.27000 352.000
41.28500 357.000
41.30000 368.000
41.31500 368.000
41.33000 363.000
41.34500 360.000
41.36000 369.000
41.37500 367.000
41.39000 358.000
41.40500 368.000
41.42000 359.000
41.43500 377.000
41.45000 363.000
41.46500 352.000
41.48000 355.000
41.49500 361.000
41.51000 379.000
41.52500 389.000
41.54000 347.000
41.55500 392.000
41.57000 362.000
41.58500 354.000
41.60000 371.000
41.61500 359.000
41.63000 343.000
41.64500 351.000
41.66000 375.000
41.67500 352.000
41.69000 351.000
41.70500 357.000
41.72000 342.000
41.73500 368.000
41.75000 372.000
41.76500 374.000
41.78000 371.000
41.79500 384.000
41.81000 357.000
41.82500 347.000
41.84000 334.000
41.85500 346.000
41.87000 341.000
41.88500 341.000
41.90000 345.000
41.91500 316.000
41.93000 350.000
41.94500 389.000
41.96000 357.000
41.97500 352.000
41.99000 345.000
42.00500 366.000
42.02000 337.000
42.03500 348.000
42.05000 348.000
42.06500 332.000
42.08000 321.000
42.09500 361.000
42.11000 358.000
42.12500 346.000
42.14000 358.000
42.15500 386.000
42.17000 351.000
42.18500 343.000
42.20000 342.000
42.21500 330.000
42.23000 351.000
42.24500 332.000
42.26000 334.000
42.27500 353.000
42.29000 356.000
42.30500 347.000
42.32000 340.000
42.33500 344.000
42.35000 346.000
42.36500 359.000
42.38000 340.000
42.39500 358.000
42.41000 374.000
42.42500 368.000
42.44000 331.000
42.45500 326.000
42.47000 337.000
42.48500 347.000
42.50000 366.000
42.51500 368.000
42.53000 360.000
42.54500 367.000
42.56000 355.000
42.57500 378.000
42.59000 395.000
42.60500 372.000
42.62000 376.000
42.63500 387.000
42.65000 386.000
42.66500 404.000
42.68000 371.000
42.69500 383.000
42.71000 374.000
42.72500 401.000
42.74000 348.000
42.75500 362.000
42.77000 348.000
42.78500 372.000
42.80000 359.000
42.81500 395.000
42.83000 376.000
42.84500 398.000
42.86000 365.000
42.87500 385.000
42.89000 386.000
42.90500 396.000
42.92000 401.000
42.93500 409.000
42.95000 419.000
42.96500 372.000
42.98000 407.000
42.99500 442.000
43.01000 422.000
43.02500 416.000
43.04000 457.000
43.05500 480.000
43.07000 485.000
43.08500 476.000
43.10000 471.000
43.11500 500.000
43.13000 482.000
43.14500 536.000
43.16000 545.000
43.17500 552.000
43.19000 555.000
43.20500 609.000
43.22000 599.000
43.23500 596.000
43.25000 636.000
43.26500 595.000
43.28000 616.000
43.29500 670.000
43.31000 663.000
43.32500 650.000
43.34000 628.000
43.35500 586.000
43.37000 540.000
43.38500 545.000
43.40000 519.000
43.41500 494.000
43.43000 538.000
43.44500 498.000
43.46000 496.000
43.47500 491.000
43.49000 485.000
43.50500 476.000
43.52000 489.000
43.53500 472.000
43.55000 480.000
43.56500 443.000
43.58000 451.000
43.59500 447.000
43.61000 450.000
43.62500 415.000
43.64000 415.000
43.65500 419.000
43.67000 408.000
43.68500 410.000
43.70000 397.000
43.71500 400.000
43.73000 401.000
43.74500 417.000
43.76000 425.000
43.77500 409.000
43.79000 400.000
43.80500 408.000
43.82000 409.000
43.83500 394.000
43.85000 391.000
43.86500 394.000
43.88000 376.000
43.89500 375.000
43.91000 369.000
43.92500 392.000
43.94000 362.000
43.95500 328.000
43.97000 344.000
43.98500 361.000
44.00000 362.000
44.01500 386.000
44.03000 377.000
44.04500 393.000
44.06000 389.000
44.07500 379.000
44.09000 401.000
44.10500 394.000
44.12000 393.000
44.13500 363.000
44.15000 374.000
44.16500 405.000
44.18000 416.000
44.19500 395.000
44.21000 379.000
44.22500 405.000
44.24000 422.000
44.25500 396.000
44.27000 410.000
44.28500 439.000
44.30000 446.000
44.31500 440.000
44.33000 464.000
44.34500 483.000
44.36000 463.000
44.37500 444.000
44.39000 412.000
44.40500 434.000
44.42000 466.000
44.43500 456.000
44.45000 443.000
44.46500 429.000
44.48000 461.000
44.49500 445.000
44.51000 460.000
44.52500 448.000
44.54000 423.000
44.55500 431.000
44.57000 451.000
44.58500 422.000
44.60000 424.000
44.61500 424.000
44.63000 418.000
44.64500 399.000
44.66000 423.000
44.67500 443.000
44.69000 437.000
44.70500 447.000
44.72000 398.000
44.73500 402.000
44.75000 404.000
44.76500 408.000
44.78000 354.000
44.79500 385.000
44.81000 406.000
44.82500 427.000
44.84000 434.000
44.85500 396.000
44.87000 414.000
44.88500 444.000
44.90000 422.000
44.91500 394.000
44.93000 401.000
44.94500 383.000
44.96000 412.000
44.97500 389.000
44.99000 421.000
45.00500 418.000
45.02000 381.000
45.03500 415.000
45.05000 417.000
45.06500 388.000
45.08000 379.000
45.09500 406.000
45.11000 384.000
45.12500 398.000
45.14000 409.000
45.15500 431.000
45.17000 394.000
45.18500 398.000
45.20000 414.000
45.21500 384.000
45.23000 383.000
45.24500 393.000
45.26000 413.000
45.27500 388.000
45.29000 373.000
45.30500 392.000
45.32000 421.000
45.33500 392.000
45.35000 393.000
45.36500 359.000
45.38000 376.000
45.39500 367.000
45.41000 367.000
45.42500 380.000
45.44000 380.000
45.45500 391.000
45.47000 370.000
45.48500 387.000
45.50000 362.000
45.51500 395.000
45.53000 389.000
45.54500 387.000
45.56000 398.000
45.57500 403.000
45.59000 399.000
45.60500 378.000
45.62000 381.000
45.63500 384.000
45.65000 371.000
45.66500 361.000
45.68000 385.000
45.69500 381.000
45.71000 398.000
45.72500 417.000
45.74000 407.000
45.75500 400.000
45.77000 378.000
45.78500 388.000
45.80000 371.000
45.81500 382.000
45.83000 370.000
45.84500 367.000
45.86000 373.000
45.87500 350.000
45.89000 389.000
45.90500 371.000
45.92000 374.000
45.93500 368.000
45.95000 361.000
45.96500 369.000
45.98000 366.000
45.99500 349.000
46.01000 365.000
46.02500 388.000
46.04000 413.000
46.05500 381.000
46.07000 371.000
46.08500 384.000
46.10000 380.000
46.11500 375.000
46.13000 385.000
46.14500 404.000
46.16000 405.000
46.17500 381.000
46.19000 383.000
46.20500 363.000
46.22000 359.000
46.23500 384.000
46.25000 378.000
46.26500 387.000
46.28000 390.000
46.29500 424.000
46.31000 370.000
46.32500 400.000
46.34000 404.000
46.35500 360.000
46.37000 367.000
46.38500 405.000
46.40000 379.000
46.41500 355.000
46.43000 366.000
46.44500 350.000
46.46000 368.000
46.47500 369.000
46.49000 366.000
46.50500 377.000
46.52000 375.000
46.53500 359.000
46.55000 366.000
46.56500 349.000
46.58000 352.000
46.59500 344.000
46.61000 329.000
46.62500 343.000
46.64000 336.000
46.65500 359.000
46.67000 341.000
46.68500 351.000
46.70000 345.000
46.71500 331.000
46.73000 335.000
46.74500 358.000
46.76000 347.000
46.77500 397.000
46.79000 351.000
46.80500 338.000
46.82000 363.000
46.83500 348.000
46.85000 344.000
46.86500 342.000
46.88000 337.000
46.89500 361.000
46.91000 361.000
46.92500 365.000
46.94000 350.000
46.95500 322.000
46.97000 331.000
46.98500 353.000
47.00000 333.000
47.01500 336.000
47.03000 324.000
47.04500 331.000
47.06000 339.000
47.07500 341.000
47.09000 348.000
47.10500 352.000
47.12000 369.000
47.13500 343.000
47.15000 339.000
47.16500 352.000
47.18000 356.000
47.19500 357.000
47.21000 354.000
47.22500 323.000
47.24000 313.000
47.25500 304.000
47.27000 302.000
47.28500 329.000
47.30000 339.000
47.31500 308.000
47.33000 292.000
47.34500 306.000
47.36000 308.000
47.37500 328.000
47.39000 317.000
47.40500 321.000
47.42000 306.000
47.43500 287.000
47.45000 293.000
47.46500 313.000
47.48000 316.000
47.49500 307.000
47.51000 286.000
47.52500 287.000
47.54000 292.000
47.55500 269.000
47.57000 291.000
47.58500 260.000
47.60000 290.000
47.61500 299.000
47.63000 312.000
47.64500 297.000
47.66000 286.000
47.67500 285.000
47.69000 287.000
47.70500 297.000
47.72000 300.000
47.73500 312.000
47.75000 299.000
47.76500 310.000
47.78000 301.000
47.79500 305.000
47.81000 308.000
47.82500 293.000
47.84000 289.000
47.85500 320.000
47.87000 276.000
47.88500 298.000
47.90000 302.000
47.91500 263.000
47.93000 308.000
47.94500 294.000
47.96000 292.000
47.97500 306.000
47.99000 297.000
48.00500 308.000
48.02000 287.000
48.03500 307.000
48.05000 288.000
48.06500 290.000
48.08000 292.000
48.09500 286.000
48.11000 289.000
48.12500 302.000
48.14000 294.000
48.15500 291.000
48.17000 285.000
48.18500 315.000
48.20000 301.000
48.21500 291.000
48.23000 297.000
48.24500 282.000
48.26000 299.000
48.27500 282.000
48.29000 269.000
48.30500 271.000
48.32000 288.000
48.33500 269.000
48.35000 290.000
48.36500 269.000
48.38000 257.000
48.39500 296.000
48.41000 281.000
48.42500 296.000
48.44000 276.000
48.45500 282.000
48.47000 293.000
48.48500 279.000
48.50000 267.000
48.51500 285.000
48.53000 266.000
48.54500 293.000
48.56000 289.000
48.57500 286.000
48.59000 308.000
48.60500 289.000
48.62000 313.000
48.63500 289.000
48.65000 265.000
48.66500 295.000
48.68000 293.000
48.69500 303.000
48.71000 271.000
48.72500 273.000
48.74000 284.000
48.75500 267.000
48.77000 273.000
48.78500 269.000
48.80000 281.000
48.81500 272.000
48.83000 273.000
48.84500 290.000
48.86000 275.000
48.87500 276.000
48.89000 271.000
48.90500 282.000
48.92000 272.000
48.93500 282.000
48.95000 287.000
48.96500 280.000
48.98000 274.000
48.99500 284.000
49.01000 286.000
49.02500 296.000
49.04000 282.000
49.05500 276.000
49.07000 265.000
49.08500 279.000
49.10000 287.000
49.11500 275.000
49.13000 280.000
49.14500 265.000
49.16000 269.000
49.17500 274.000
49.19000 279.000
49.20500 273.000
49.22000 262.000
49.23500 264.000
49.25000 278.000
49.26500 261.000
49.28000 270.000
49.29500 284.000
49.31000 282.000
49.32500 273.000
49.34000 292.000
49.35500 326.000
49.37000 279.000
49.38500 258.000
49.40000 298.000
49.41500 267.000
49.43000 280.000
49.44500 257.000
49.46000 267.000
49.47500 266.000
49.49000 275.000
49.50500 279.000
49.52000 258.000
49.53500 282.000
49.55000 280.000
49.56500 281.000
49.58000 297.000
49.59500 288.000
49.61000 281.000
49.62500 279.000
49.64000 268.000
49.65500 272.000
49.67000 264.000
49.68500 263.000
49.70000 268.000
49.71500 284.000
49.73000 267.000
49.74500 299.000
49.76000 288.000
49.77500 261.000
49.79000 292.000
49.80500 278.000
49.82000 297.000
49.83500 284.000
49.85000 271.000
49.86500 267.000
49.88000 273.000
49.89500 281.000
49.91000 290.000
49.92500 279.000
49.94000 272.000
49.95500 290.000
49.97000 314.000
49.98500 308.000
50.00000 303.000
50.01500 323.000
50.03000 296.000
50.04500 334.000
50.06000 305.000
50.07500 303.000
50.09000 311.000
50.10500 335.000
50.12000 293.000
50.13500 335.000
50.15000 323.000
50.16500 314.000
50.18000 309.000
50.19500 317.000
50.21000 306.000
50.22500 283.000
50.24000 283.000
50.25500 313.000
50.27000 275.000
50.28500 313.000
50.30000 285.000
50.31500 274.000
50.33000 291.000
50.34500 298.000
50.36000 300.000
50.37500 310.000
50.39000 277.000
50.40500 297.000
50.42000 292.000
50.43500 302.000
50.45000 265.000
50.46500 290.000
50.48000 281.000
50.49500 284.000
50.51000 278.000
50.52500 316.000
50.54000 296.000
50.55500 278.000
50.57000 276.000
50.58500 258.000
50.60000 284.000
50.61500 293.000
50.63000 286.000
50.64500 296.000
50.66000 291.000
50.67500 286.000
50.69000 290.000
50.70500 261.000
50.72000 283.000
50.73500 293.000
50.75000 311.000
50.76500 325.000
50.78000 287.000
50.79500 316.000
50.81000 304.000
50.82500 269.000
50.84000 283.000
50.85500 283.000
50.87000 282.000
50.88500 317.000
50.90000 297.000
50.91500 288.000
50.93000 307.000
50.94500 303.000
50.96000 288.000
50.97500 299.000
50.99000 265.000
51.00500 305.000
51.02000 290.000
51.03500 294.000
51.05000 312.000
51.06500 303.000
51.08000 287.000
51.09500 282.000
51.11000 306.000
51.12500 292.000
51.14000 293.000
51.15500 277.000
51.17000 313.000
51.18500 288.000
51.20000 284.000
51.21500 273.000
51.23000 297.000
51.24500 293.000
51.26000 290.000
51.27500 313.000
51.29000 300.000
51.30500 278.000
51.32000 298.000
51.33500 278.000
51.35000 264.000
51.36500 287.000
51.38000 288.000
51.39500 261.000
51.41000 278.000
51.42500 288.000
51.44000 289.000
51.45500 283.000
51.47000 285.000
51.48500 289.000
51.50000 270.000
51.51500 277.000
51.53000 295.000
51.54500 312.000
51.56000 282.000
51.57500 279.000
51.59000 271.000
51.60500 283.000
51.62000 280.000
51.63500 273.000
51.65000 282.000
51.66500 310.000
51.68000 321.000
51.69500 289.000
51.71000 286.000
51.72500 265.000
51.74000 279.000
51.75500 289.000
51.77000 264.000
51.78500 265.000
51.80000 290.000
51.81500 284.000
51.83000 277.000
51.84500 272.000
51.86000 269.000
51.87500 277.000
51.89000 260.000
51.90500 278.000
51.92000 255.000
51.93500 274.000
51.95000 272.000
51.96500 255.000
51.98000 243.000
51.99500 277.000
52.01000 290.000
52.02500 279.000
52.04000 251.000
52.05500 246.000
52.07000 269.000
52.08500 271.000
52.10000 289.000
52.11500 276.000
52.13000 260.000
52.14500 273.000
52.16000 285.000
52.17500 256.000
52.19000 266.000
52.20500 245.000
52.22000 251.000
52.23500 283.000
52.25000 299.000
52.26500 292.000
52.28000 251.000
52.29500 255.000
52.31000 278.000
52.32500 289.000
52.34000 319.000
52.35500 292.000
52.37000 243.000
52.38500 254.000
52.40000 267.000
52.41500 271.000
52.43000 290.000
52.44500 267.000
52.46000 262.000
52.47500 277.000
52.49000 253.000
52.50500 255.000
52.52000 262.000
52.53500 274.000
52.55000 277.000
52.56500 287.000
52.58000 292.000
52.59500 283.000
52.61000 289.000
52.62500 302.000
52.64000 302.000
52.65500 289.000
52.67000 280.000
52.68500 273.000
52.70000 292.000
52.71500 296.000
52.73000 303.000
52.74500 281.000
52.76000 280.000
52.77500 309.000
52.79000 308.000
52.80500 301.000
52.82000 294.000
52.83500 283.000
52.85000 274.000
52.86500 273.000
52.88000 296.000
52.89500 284.000
52.91000 280.000
52.92500 314.000
52.94000 302.000
52.95500 269.000
52.97000 286.000
52.98500 285.000
53.00000 314.000
53.01500 301.000
53.03000 270.000
53.04500 308.000
53.06000 282.000
53.07500 293.000
53.09000 279.000
53.10500 277.000
53.12000 295.000
53.13500 311.000
53.15000 298.000
53.16500 277.000
53.18000 267.000
53.19500 270.000
53.21000 268.000
53.22500 259.000
53.24000 288.000
53.25500 287.000
53.27000 290.000
53.28500 293.000
53.30000 290.000
53.31500 279.000
53.33000 289.000
53.34500 268.000
53.36000 256.000
53.37500 276.000
53.39000 279.000
53.40500 269.000
53.42000 276.000
53.43500 264.000
53.45000 273.000
53.46500 261.000
53.48000 283.000
53.49500 238.000
53.51000 277.000
53.52500 284.000
53.54000 284.000
53.55500 276.000
53.57000 275.000
53.58500 281.000
53.60000 274.000
53.61500 276.000
53.63000 259.000
53.64500 275.000
53.66000 263.000
53.67500 262.000
53.69000 290.000
53.70500 296.000
53.72000 280.000
53.73500 286.000
53.75000 267.000
53.76500 260.000
53.78000 277.000
53.79500 262.000
53.81000 271.000
53.82500 253.000
53.84000 257.000
53.85500 245.000
53.87000 260.000
53.88500 277.000
53.90000 268.000
53.91500 277.000
53.93000 284.000
53.94500 280.000
53.96000 286.000
53.97500 275.000
53.99000 255.000
54.00500 279.000
54.02000 262.000
54.03500 264.000
54.05000 292.000
54.06500 267.000
54.08000 284.000
54.09500 271.000
54.11000 279.000
54.12500 301.000
54.14000 261.000
54.15500 281.000
54.17000 292.000
54.18500 284.000
54.20000 280.000
54.21500 259.000
54.23000 272.000
54.24500 285.000
54.26000 269.000
54.27500 279.000
54.29000 282.000
54.30500 272.000
54.32000 273.000
54.33500 295.000
54.35000 299.000
54.36500 272.000
54.38000 263.000
54.39500 306.000
54.41000 252.000
54.42500 275.000
54.44000 288.000
54.45500 285.000
54.47000 263.000
54.48500 258.000
54.50000 266.000
54.51500 258.000
54.53000 278.000
54.54500 260.000
54.56000 254.000
54.57500 252.000
54.59000 250.000
54.60500 257.000
54.62000 259.000
54.63500 261.000
54.65000 262.000
54.66500 247.000
54.68000 251.000
54.69500 285.000
54.71000 254.000
54.72500 265.000
54.74000 252.000
54.75500 252.000
54.77000 269.000
54.78500 243.000
54.80000 238.000
54.81500 243.000
54.83000 245.000
54.84500 239.000
54.86000 256.000
54.87500 248.000
54.89000 250.000
54.90500 240.000
54.92000 257.000
54.93500 254.000
54.95000 250.000
54.96500 247.000
54.98000 229.000
54.99500 256.000
55.01000 256.000
55.02500 242.000
55.04000 255.000
55.05500 261.000
55.07000 271.000
55.08500 248.000
55.10000 262.000
55.11500 262.000
55.13000 248.000
55.14500 239.000
55.16000 236.000
55.17500 255.000
55.19000 259.000
55.20500 264.000
55.22000 235.000
55.23500 230.000
55.25000 252.000
55.26500 235.000
55.28000 240.000
55.29500 261.000
55.31000 254.000
55.32500 261.000
55.34000 259.000
55.35500 258.000
55.37000 276.000
55.38500 267.000
55.40000 256.000
55.41500 233.000
55.43000 245.000
55.44500 254.000
55.46000 275.000
55.47500 246.000
55.49000 252.000
55.50500 250.000
55.52000 275.000
55.53500 257.000
55.55000 242.000
55.56500 236.000
55.58000 268.000
55.59500 242.000
55.61000 228.000
55.62500 246.000
55.64000 270.000
55.65500 226.000
55.67000 281.000
55.68500 275.000
55.70000 249.000
55.71500 234.000
55.73000 269.000
55.74500 263.000
55.76000 251.000
55.77500 236.000
55.79000 254.000
55.80500 273.000
55.82000 247.000
55.83500 244.000
55.85000 258.000
55.86500 260.000
55.88000 274.000
55.89500 241.000
55.91000 255.000
55.92500 268.000
55.94000 259.000
55.95500 218.000
55.97000 251.000
55.98500 276.000
56.00000 249.000
56.01500 281.000
56.03000 278.000
56.04500 234.000
56.06000 261.000
56.07500 252.000
56.09000 284.000
56.10500 262.000
56.12000 252.000
56.13500 255.000
56.15000 254.000
56.16500 252.000
56.18000 254.000
56.19500 247.000
56.21000 261.000
56.22500 260.000
56.24000 247.000
56.25500 246.000
56.27000 274.000
56.28500 226.000
56.30000 266.000
56.31500 255.000
56.33000 229.000
56.34500 251.000
56.36000 245.000
56.37500 270.000
56.39000 262.000
56.40500 267.000
56.42000 300.000
56.43500 264.000
56.45000 232.000
56.46500 262.000
56.48000 239.000
56.49500 242.000
56.51000 249.000
56.52500 253.000
56.54000 235.000
56.55500 253.000
56.57000 247.000
56.58500 256.000
56.60000 247.000
56.61500 242.000
56.63000 244.000
56.64500 245.000
56.66000 232.000
56.67500 268.000
56.69000 258.000
56.70500 275.000
56.72000 256.000
56.73500 241.000
56.75000 256.000
56.76500 287.000
56.78000 265.000
56.79500 245.000
56.81000 250.000
56.82500 252.000
56.84000 256.000
56.85500 265.000
56.87000 252.000
56.88500 251.000
56.90000 270.000
56.91500 261.000
56.93000 276.000
56.94500 279.000
56.96000 270.000
56.97500 305.000
56.99000 274.000
57.00500 247.000
57.02000 282.000
57.03500 288.000
57.05000 259.000
57.06500 262.000
57.08000 276.000
57.09500 277.000
57.11000 264.000
57.12500 290.000
57.14000 296.000
57.15500 292.000
57.17000 283.000
57.18500 273.000
57.20000 307.000
57.21500 305.000
57.23000 265.000
57.24500 301.000
57.26000 287.000
57.27500 311.000
57.29000 309.000
57.30500 304.000
57.32000 291.000
57.33500 303.000
57.35000 306.000
57.36500 271.000
57.38000 297.000
57.39500 297.000
57.41000 288.000
57.42500 290.000
57.44000 292.000
57.45500 287.000
57.47000 277.000
57.48500 301.000
57.50000 280.000
57.51500 293.000
57.53000 286.000
57.54500 284.000
57.56000 312.000
57.57500 322.000
57.59000 303.000
57.60500 303.000
57.62000 315.000
57.63500 289.000
57.65000 308.000
57.66500 313.000
57.68000 304.000
57.69500 300.000
57.71000 299.000
57.72500 301.000
57.74000 281.000
57.75500 275.000
57.77000 294.000
57.78500 284.000
57.80000 272.000
57.81500 283.000
57.83000 293.000
57.84500 297.000
57.86000 251.000
57.87500 288.000
57.89000 273.000
57.90500 298.000
57.92000 285.000
57.93500 274.000
57.95000 277.000
57.96500 271.000
57.98000 290.000
57.99500 275.000
58.01000 300.000
58.02500 264.000
58.04000 260.000
58.05500 284.000
58.07000 289.000
58.08500 300.000
58.10000 284.000
58.11500 248.000
58.13000 290.000
58.14500 299.000
58.16000 313.000
58.17500 281.000
58.19000 277.000
58.20500 246.000
58.22000 279.000
58.23500 275.000
58.25000 281.000
58.26500 292.000
58.28000 292.000
58.29500 275.000
58.31000 302.000
58.32500 301.000
58.34000 253.000
58.35500 257.000
58.37000 279.000
58.38500 281.000
58.40000 289.000
58.41500 260.000
58.43000 279.000
58.44500 246.000
58.46000 247.000
58.47500 269.000
58.49000 293.000
58.50500 298.000
58.52000 287.000
58.53500 273.000
58.55000 262.000
58.56500 271.000
58.58000 265.000
58.59500 264.000
58.61000 250.000
58.62500 265.000
58.64000 258.000
58.65500 271.000
58.67000 266.000
58.68500 270.000
58.70000 275.000
58.71500 287.000
58.73000 248.000
58.74500 231.000
58.76000 253.000
58.77500 262.000
58.79000 232.000
58.80500 239.000
58.82000 258.000
58.83500 270.000
58.85000 243.000
58.86500 239.000
58.88000 235.000
58.89500 255.000
58.91000 247.000
58.92500 233.000
58.94000 261.000
58.95500 233.000
58.97000 252.000
58.98500 263.000
59.00000 271.000
59.01500 275.000
59.03000 272.000
59.04500 257.000
59.06000 264.000
59.07500 241.000
59.09000 247.000
59.10500 253.000
59.12000 266.000
59.13500 251.000
59.15000 255.000
59.16500 268.000
59.18000 240.000
59.19500 237.000
59.21000 248.000
59.22500 249.000
59.24000 228.000
59.25500 235.000
59.27000 245.000
59.28500 248.000
59.30000 258.000
59.31500 241.000
59.33000 239.000
59.34500 268.000
59.36000 258.000
59.37500 268.000
59.39000 249.000
59.40500 250.000
59.42000 246.000
59.43500 219.000
59.45000 230.000
59.46500 245.000
59.48000 266.000
59.49500 273.000
59.51000 248.000
59.52500 255.000
59.54000 253.000
59.55500 234.000
59.57000 237.000
59.58500 253.000
59.60000 232.000
59.61500 234.000
59.63000 228.000
59.64500 224.000
59.66000 252.000
59.67500 240.000
59.69000 241.000
59.70500 254.000
59.72000 243.000
59.73500 229.000
59.75000 250.000
59.76500 230.000
59.78000 238.000
59.79500 239.000
59.81000 247.000
59.82500 259.000
59.84000 244.000
59.85500 242.000
59.87000 262.000
59.88500 260.000
59.90000 242.000
59.91500 236.000
59.93000 243.000
59.94500 240.000
59.96000 251.000
59.97500 228.000
59.99000 245.000
60.00500 246.000
60.02000 251.000
60.03500 263.000
60.05000 219.000
60.06500 243.000
60.08000 235.000
60.09500 240.000
60.11000 216.000
60.12500 235.000
60.14000 226.000
60.15500 241.000
60.17000 245.000
60.18500 226.000
60.20000 243.000
60.21500 239.000
60.23000 241.000
60.24500 238.000
60.26000 247.000
60.27500 253.000
60.29000 226.000
60.30500 226.000
60.32000 254.000
60.33500 234.000
60.35000 259.000
60.36500 236.000
60.38000 211.000
60.39500 242.000
60.41000 259.000
60.42500 278.000
60.44000 244.000
60.45500 256.000
60.47000 254.000
60.48500 268.000
60.50000 260.000
60.51500 261.000
60.53000 242.000
60.54500 250.000
60.56000 258.000
60.57500 265.000
60.59000 274.000
60.60500 236.000
60.62000 235.000
60.63500 229.000
60.65000 227.000
60.66500 241.000
60.68000 243.000
60.69500 248.000
60.71000 234.000
60.72500 220.000
60.74000 253.000
60.75500 263.000
60.77000 226.000
60.78500 237.000
60.80000 269.000
60.81500 253.000
60.83000 243.000
60.84500 241.000
60.86000 264.000
60.87500 246.000
60.89000 223.000
60.90500 234.000
60.92000 239.000
60.93500 257.000
60.95000 256.000
60.96500 264.000
60.98000 246.000
60.99500 246.000
61.01000 240.000
61.02500 240.000
61.04000 264.000
61.05500 256.000
61.07000 235.000
61.08500 243.000
61.10000 253.000
61.11500 225.000
61.13000 239.000
61.14500 218.000
61.16000 244.000
61.17500 234.000
61.19000 256.000
61.20500 246.000
61.22000 267.000
61.23500 246.000
61.25000 214.000
61.26500 235.000
61.28000 240.000
61.29500 227.000
61.31000 236.000
61.32500 245.000
61.34000 243.000
61.35500 230.000
61.37000 233.000
61.38500 216.000
61.40000 243.000
61.41500 237.000
61.43000 240.000
61.44500 233.000
61.46000 250.000
61.47500 252.000
61.49000 246.000
61.50500 234.000
61.52000 226.000
61.53500 216.000
61.55000 219.000
61.56500 217.000
61.58000 252.000
61.59500 221.000
61.61000 232.000
61.62500 250.000
61.64000 224.000
61.65500 223.000
61.67000 216.000
61.68500 230.000
61.70000 220.000
61.71500 211.000
61.73000 226.000
61.74500 200.000
61.76000 212.000
61.77500 229.000
61.79000 249.000
61.80500 216.000
61.82000 217.000
61.83500 217.000
61.85000 217.000
61.86500 198.000
61.88000 195.000
61.89500 212.000
61.91000 215.000
61.92500 222.000
61.94000 229.000
61.95500 221.000
61.97000 221.000
61.98500 211.000
