2.00000 4.000
2.01500 2.000
2.03000 4.000
2.04500 5.000
2.06000 2.000
2.07500 6.000
2.09000 6.000
2.10500 6.000
2.12000 3.000
2.13500 3.000
2.15000 3.000
2.16500 2.000
2.18000 3.000
2.19500 3.000
2.21000 3.000
2.22500 3.000
2.24000 5.000
2.25500 4.000
2.27000 2.000
2.28500 3.000
2.30000 5.000
2.31500 3.000
2.33000 4.000
2.34500 3.000
2.36000 1.000
2.37500 3.000
2.39000 4.000
2.40500 5.000
2.42000 2.000
2.43500 4.000
2.45000 2.000
2.46500 3.000
2.48000 5.000
2.49500 7.000
2.51000 3.000
2.52500 4.000
2.54000 5.000
2.55500 5.000
2.57000 4.000
2.58500 7.000
2.60000 9.000
2.61500 4.000
2.63000 4.000
2.64500 2.000
2.66000 5.000
2.67500 4.000
2.69000 4.000
2.70500 9.000
2.72000 12.000
2.73500 20.000
2.75000 21.000
2.76500 38.000
2.78000 46.000
2.79500 57.000
2.81000 78.000
2.82500 102.000
2.84000 119.000
2.85500 147.000
2.87000 178.000
2.88500 204.000
2.90000 213.000
2.91500 253.000
2.93000 250.000
2.94500 223.000
2.96000 242.000
2.97500 252.000
2.99000 253.000
3.00500 241.000
3.02000 269.000
3.03500 246.000
3.05000 260.000
3.06500 253.000
3.08000 258.000
3.09500 285.000
3.11000 296.000
3.12500 286.000
3.14000 264.000
3.15500 263.000
3.17000 267.000
3.18500 281.000
3.20000 291.000
3.21500 292.000
3.23000 261.000
3.24500 271.000
3.26000 274.000
3.27500 284.000
3.29000 263.000
3.30500 250.000
3.32000 296.000
3.33500 275.000
3.35000 292.000
3.36500 301.000
3.38000 280.000
3.39500 262.000
3.41000 270.000
3.42500 272.000
3.44000 287.000
3.45500 293.000
3.47000 303.000
3.48500 299.000
3.50000 309.000
3.51500 310.000
3.53000 280.000
3.54500 271.000
3.56000 292.000
3.57500 289.000
3.59000 303.000
3.60500 311.000
3.62000 301.000
3.63500 306.000
3.65000 325.000
3.66500 295.000
3.68000 312.000
3.69500 311.000
3.71000 319.000
3.72500 331.000
3.74000 279.000
3.75500 288.000
3.77000 311.000
3.78500 293.000
3.80000 312.000
3.81500 351.000
3.83000 315.000
3.84500 319.000
3.86000 300.000
3.87500 284.000
3.89000 282.000
3.90500 324.000
3.92000 309.000
3.93500 317.000
3.95000 314.000
3.96500 315.000
3.98000 320.000
3.99500 313.000
4.01000 313.000
4.02500 322.000
4.04000 320.000
4.05500 330.000
4.07000 332.000
4.08500 340.000
4.10000 335.000
4.11500 321.000
4.13000 338.000
4.14500 320.000
4.16000 323.000
4.17500 346.000
4.19000 309.000
4.20500 325.000
4.22000 331.000
4.23500 324.000
4.25000 352.000
4.26500 347.000
4.28000 347.000
4.29500 317.000
4.31000 344.000
4.32500 362.000
4.34000 359.000
4.35500 351.000
4.37000 350.000
4.38500 346.000
4.40000 363.000
4.41500 350.000
4.43000 355.000
4.44500 339.000
4.46000 342.000
4.47500 321.000
4.49000 349.000
4.50500 357.000
4.52000 351.000
4.53500 340.000
4.55000 354.000
4.56500 344.000
4.58000 360.000
4.59500 374.000
4.61000 345.000
4.62500 348.000
4.64000 340.000
4.65500 330.000
4.67000 345.000
4.68500 368.000
4.70000 377.000
4.71500 386.000
4.73000 351.000
4.74500 360.000
4.76000 353.000
4.77500 363.000
4.79000 394.000
4.80500 383.000
4.82000 357.000
4.83500 369.000
4.85000 413.000
4.86500 349.000
4.88000 398.000
4.89500 370.000
4.91000 384.000
4.92500 366.000
4.94000 368.000
4.95500 367.000
4.97000 376.000
4.98500 359.000
5.00000 342.000
5.01500 384.000
5.03000 376.000
5.04500 371.000
5.06000 376.000
5.07500 379.000
5.09000 388.000
5.10500 375.000
5.12000 384.000
5.13500 395.000
5.15000 379.000
5.16500 405.000
5.18000 397.000
5.19500 372.000
5.21000 370.000
5.22500 393.000
5.24000 395.000
5.25500 394.000
5.27000 358.000
5.28500 373.000
5.30000 364.000
5.31500 392.000
5.33000 375.000
5.34500 357.000
5.36000 416.000
5.37500 408.000
5.39000 399.000
5.40500 394.000
5.42000 389.000
5.43500 392.000
5.45000 379.000
5.46500 397.000
5.48000 398.000
5.49500 387.000
5.51000 379.000
5.52500 385.000
5.54000 387.000
5.55500 404.000
5.57000 407.000
5.58500 422.000
5.60000 406.000
5.61500 395.000
5.63000 392.000
5.64500 401.000
5.66000 417.000
5.67500 372.000
5.69000 400.000
5.70500 374.000
5.72000 368.000
5.73500 403.000
5.75000 401.000
5.76500 388.000
5.78000 413.000
5.79500 381.000
5.81000 402.000
5.82500 420.000
5.84000 410.000
5.85500 410.000
5.87000 410.000
5.88500 415.000
5.90000 435.000
5.91500 436.000
5.93000 432.000
5.94500 417.000
5.96000 403.000
5.97500 383.000
5.99000 419.000
6.00500 405.000
6.02000 427.000
6.03500 419.000
6.05000 361.000
6.06500 405.000
6.08000 436.000
6.09500 410.000
6.11000 451.000
6.12500 403.000
6.14000 410.000
6.15500 430.000
6.17000 447.000
6.18500 415.000
6.20000 386.000
6.21500 433.000
6.23000 387.000
6.24500 394.000
6.26000 422.000
6.27500 429.000
6.29000 408.000
6.30500 416.000
6.32000 450.000
6.33500 435.000
6.35000 433.000
6.36500 408.000
6.38000 421.000
6.39500 430.000
6.41000 415.000
6.42500 419.000
6.44000 423.000
6.45500 427.000
6.47000 413.000
6.48500 426.000
6.50000 394.000
6.51500 432.000
6.53000 397.000
6.54500 439.000
6.56000 417.000
6.57500 412.000
6.59000 431.000
6.60500 434.000
6.62000 418.000
6.63500 432.000
6.65000 421.000
6.66500 400.000
6.68000 442.000
6.69500 437.000
6.71000 440.000
6.72500 414.000
6.74000 426.000
6.75500 443.000
6.77000 425.000
6.78500 440.000
6.80000 435.000
6.81500 444.000
6.83000 421.000
6.84500 419.000
6.86000 399.000
6.87500 451.000
6.89000 394.000
6.90500 419.000
6.92000 447.000
6.93500 463.000
6.95000 460.000
6.96500 440.000
6.98000 462.000
6.99500 464.000
7.01000 462.000
7.02500 486.000
7.04000 474.000
7.05500 478.000
7.07000 461.000
7.08500 467.000
7.10000 417.000
7.11500 450.000
7.13000 465.000
7.14500 441.000
7.16000 461.000
7.17500 448.000
7.19000 434.000
7.20500 428.000
7.22000 453.000
7.23500 439.000
7.25000 461.000
7.26500 458.000
7.28000 424.000
7.29500 464.000
7.31000 480.000
7.32500 481.000
7.34000 504.000
7.35500 487.000
7.37000 474.000
7.38500 479.000
7.40000 480.000
7.41500 465.000
7.43000 468.000
7.44500 464.000
7.46000 463.000
7.47500 501.000
7.49000 481.000
7.50500 491.000
7.52000 490.000
7.53500 492.000
7.55000 508.000
7.56500 531.000
7.58000 504.000
7.59500 488.000
7.61000 528.000
7.62500 532.000
7.64000 521.000
7.65500 576.000
7.67000 570.000
7.68500 612.000
7.70000 629.000
7.71500 642.000
7.73000 667.000
7.74500 661.000
7.76000 706.000
7.77500 758.000
7.79000 793.000
7.80500 825.000
7.82000 861.000
7.83500 921.000
7.85000 978.000
7.86500 1065.000
7.88000 1151.000
7.89500 1318.000
7.91000 1412.000
7.92500 1609.000
7.94000 1755.000
7.95500 1876.000
7.97000 1896.000
7.98500 1694.000
8.00000 1430.000
8.01500 1236.000
8.03000 1004.000
8.04500 949.000
8.06000 840.000
8.07500 794.000
8.09000 756.000
8.10500 738.000
8.12000 706.000
8.13500 720.000
8.15000 664.000
8.16500 662.000
8.18000 590.000
8.19500 608.000
8.21000 605.000
8.22500 591.000
8.24000 604.000
8.25500 567.000
8.27000 570.000
8.28500 587.000
8.30000 580.000
8.31500 545.000
8.33000 548.000
8.34500 565.000
8.36000 541.000
8.37500 520.000
8.39000 573.000
8.40500 559.000
8.42000 553.000
8.43500 548.000
8.45000 525.000
8.46500 513.000
8.48000 531.000
8.49500 557.000
8.51000 525.000
8.52500 535.000
8.54000 503.000
8.55500 515.000
8.57000 540.000
8.58500 534.000
8.60000 546.000
8.61500 542.000
8.63000 513.000
8.64500 513.000
8.66000 528.000
8.67500 528.000
8.69000 494.000
8.70500 519.000
8.72000 490.000
8.73500 513.000
8.75000 528.000
8.76500 493.000
8.78000 515.000
8.79500 522.000
8.81000 521.000
8.82500 523.000
8.84000 530.000
8.85500 497.000
8.87000 509.000
8.88500 533.000
8.90000 508.000
8.91500 503.000
8.93000 533.000
8.94500 541.000
8.96000 565.000
8.97500 584.000
8.99000 551.000
9.00500 534.000
9.02000 516.000
9.03500 490.000
9.05000 508.000
9.06500 518.000
9.08000 526.000
9.09500 517.000
9.11000 529.000
9.12500 522.000
9.14000 519.000
9.15500 526.000
9.17000 550.000
9.18500 511.000
9.20000 541.000
9.21500 511.000
9.23000 512.000
9.24500 530.000
9.26000 533.000
9.27500 551.000
9.29000 530.000
9.30500 546.000
9.32000 557.000
9.33500 529.000
9.35000 520.000
9.36500 528.000
9.38000 542.000
9.39500 540.000
9.41000 535.000
9.42500 512.000
9.44000 570.000
9.45500 538.000
9.47000 543.000
9.48500 539.000
9.50000 526.000
9.51500 507.000
9.53000 560.000
9.54500 557.000
9.56000 543.000
9.57500 525.000
9.59000 560.000
9.60500 559.000
9.62000 596.000
9.63500 545.000
9.65000 565.000
9.66500 541.000
9.68000 544.000
9.69500 568.000
9.71000 591.000
9.72500 581.000
9.74000 581.000
9.75500 581.000
9.77000 589.000
9.78500 646.000
9.80000 652.000
9.81500 627.000
9.83000 662.000
9.84500 666.000
9.86000 666.000
9.87500 688.000
9.89000 703.000
9.90500 688.000
9.92000 717.000
9.93500 785.000
9.95000 734.000
9.96500 744.000
9.98000 835.000
9.99500 874.000
10.01000 863.000
10.02500 902.000
10.04000 940.000
10.05500 963.000
10.07000 953.000
10.08500 1021.000
10.10000 976.000
10.11500 946.000
10.13000 948.000
10.14500 954.000
10.16000 892.000
10.17500 845.000
10.19000 803.000
10.20500 762.000
10.22000 740.000
10.23500 740.000
10.25000 690.000
10.26500 654.000
10.28000 639.000
10.29500 614.000
10.31000 594.000
10.32500 615.000
10.34000 574.000
10.35500 555.000
10.37000 558.000
10.38500 583.000
10.40000 577.000
10.41500 557.000
10.43000 527.000
10.44500 542.000
10.46000 554.000
10.47500 534.000
10.49000 523.000
10.50500 493.000
10.52000 544.000
10.53500 518.000
10.55000 533.000
10.56500 515.000
10.58000 527.000
10.59500 534.000
10.61000 526.000
10.62500 514.000
10.64000 517.000
10.65500 548.000
10.67000 537.000
10.68500 522.000
10.70000 476.000
10.71500 498.000
10.73000 525.000
10.74500 539.000
10.76000 544.000
10.77500 502.000
10.79000 524.000
10.80500 553.000
10.82000 531.000
10.83500 511.000
10.85000 525.000
10.86500 496.000
10.88000 492.000
10.89500 523.000
10.91000 498.000
10.92500 498.000
10.94000 506.000
10.95500 496.000
10.97000 516.000
10.98500 541.000
11.00000 508.000
11.01500 527.000
11.03000 539.000
11.04500 522.000
11.06000 497.000
11.07500 496.000
11.09000 495.000
11.10500 510.000
11.12000 534.000
11.13500 502.000
11.15000 542.000
11.16500 489.000
11.18000 512.000
11.19500 516.000
11.21000 508.000
11.22500 516.000
11.24000 517.000
11.25500 524.000
11.27000 484.000
11.28500 504.000
11.30000 567.000
11.31500 512.000
11.33000 480.000
11.34500 503.000
11.36000 475.000
11.37500 484.000
11.39000 509.000
11.40500 498.000
11.42000 483.000
11.43500 475.000
11.45000 494.000
11.46500 503.000
11.48000 509.000
11.49500 505.000
11.51000 512.000
11.52500 504.000
11.54000 470.000
11.55500 496.000
11.57000 505.000
11.58500 503.000
11.60000 497.000
11.61500 485.000
11.63000 471.000
11.64500 487.000
11.66000 525.000
11.67500 484.000
11.69000 503.000
11.70500 491.000
11.72000 495.000
11.73500 523.000
11.75000 515.000
11.76500 505.000
11.78000 479.000
11.79500 510.000
11.81000 504.000
11.82500 482.000
11.84000 486.000
11.85500 485.000
11.87000 476.000
11.88500 485.000
11.90000 494.000
11.91500 507.000
11.93000 500.000
11.94500 500.000
11.96000 517.000
11.97500 493.000
11.99000 529.000
12.00500 489.000
12.02000 501.000
12.03500 492.000
12.05000 482.000
12.06500 480.000
12.08000 546.000
12.09500 509.000
12.11000 495.000
12.12500 492.000
12.14000 493.000
12.15500 507.000
12.17000 474.000
12.18500 474.000
12.20000 461.000
12.21500 500.000
12.23000 488.000
12.24500 470.000
12.26000 502.000
12.27500 511.000
12.29000 478.000
12.30500 501.000
12.32000 495.000
12.33500 481.000
12.35000 490.000
12.36500 492.000
12.38000 509.000
12.39500 504.000
12.41000 493.000
12.42500 486.000
12.44000 452.000
12.45500 471.000
12.47000 472.000
12.48500 475.000
12.50000 483.000
12.51500 484.000
12.53000 481.000
12.54500 508.000
12.56000 462.000
12.57500 504.000
12.59000 503.000
12.60500 488.000
12.62000 503.000
12.63500 519.000
12.65000 455.000
12.66500 447.000
12.68000 474.000
12.69500 504.000
12.71000 488.000
12.72500 493.000
12.74000 497.000
12.75500 480.000
12.77000 471.000
12.78500 484.000
12.80000 485.000
12.81500 493.000
12.83000 475.000
12.84500 475.000
12.86000 471.000
12.87500 510.000
12.89000 490.000
12.90500 447.000
12.92000 454.000
12.93500 502.000
12.95000 484.000
12.96500 501.000
12.98000 498.000
12.99500 486.000
13.01000 500.000
13.02500 505.000
13.04000 499.000
13.05500 506.000
13.07000 502.000
13.08500 481.000
13.10000 462.000
13.11500 483.000
13.13000 500.000
13.14500 480.000
13.16000 474.000
13.17500 489.000
13.19000 484.000
13.20500 474.000
13.22000 487.000
13.23500 483.000
13.25000 457.000
13.26500 482.000
13.28000 473.000
13.29500 503.000
13.31000 455.000
13.32500 469.000
13.34000 491.000
13.35500 471.000
13.37000 508.000
13.38500 457.000
13.40000 496.000
13.41500 485.000
13.43000 483.000
13.44500 479.000
13.46000 494.000
13.47500 493.000
13.49000 519.000
13.50500 476.000
13.52000 464.000
13.53500 496.000
13.55000 442.000
13.56500 473.000
13.58000 500.000
13.59500 439.000
13.61000 471.000
13.62500 489.000
13.64000 474.000
13.65500 498.000
13.67000 486.000
13.68500 463.000
13.70000 488.000
13.71500 514.000
13.73000 509.000
13.74500 471.000
13.76000 510.000
13.77500 514.000
13.79000 483.000
13.80500 503.000
13.82000 482.000
13.83500 495.000
13.85000 496.000
13.86500 483.000
13.88000 472.000
13.89500 495.000
13.91000 500.000
13.92500 477.000
13.94000 474.000
13.95500 480.000
13.97000 463.000
13.98500 483.000
14.00000 464.000
14.01500 475.000
14.03000 479.000
14.04500 498.000
14.06000 446.000
14.07500 450.000
14.09000 499.000
14.10500 485.000
14.12000 485.000
14.13500 506.000
14.15000 478.000
14.16500 469.000
14.18000 467.000
14.19500 489.000
14.21000 507.000
14.22500 492.000
14.24000 479.000
14.25500 462.000
14.27000 442.000
14.28500 465.000
14.30000 493.000
14.31500 489.000
14.33000 469.000
14.34500 487.000
14.36000 492.000
14.37500 495.000
14.39000 504.000
14.40500 464.000
14.42000 446.000
14.43500 478.000
14.45000 455.000
14.46500 442.000
14.48000 485.000
14.49500 482.000
14.51000 459.000
14.52500 476.000
14.54000 482.000
14.55500 463.000
14.57000 467.000
14.58500 533.000
14.60000 502.000
14.61500 502.000
14.63000 498.000
14.64500 457.000
14.66000 496.000
14.67500 486.000
14.69000 485.000
14.70500 500.000
14.72000 497.000
14.73500 508.000
14.75000 495.000
14.76500 488.000
14.78000 481.000
14.79500 486.000
14.81000 466.000
14.82500 498.000
14.84000 525.000
14.85500 501.000
14.87000 494.000
14.88500 519.000
14.90000 523.000
14.91500 518.000
14.93000 530.000
14.94500 542.000
14.96000 502.000
14.97500 495.000
14.99000 553.000
15.00500 572.000
15.02000 536.000
15.03500 547.000
15.05000 552.000
15.06500 558.000
15.08000 555.000
15.09500 588.000
15.11000 618.000
15.12500 597.000
15.14000 574.000
15.15500 605.000
15.17000 593.000
15.18500 610.000
15.20000 577.000
15.21500 611.000
15.23000 598.000
15.24500 571.000
15.26000 551.000
15.27500 556.000
15.29000 556.000
15.30500 533.000
15.32000 541.000
15.33500 550.000
15.35000 507.000
15.36500 498.000
15.38000 516.000
15.39500 505.000
15.41000 486.000
15.42500 506.000
15.44000 473.000
15.45500 497.000
15.47000 491.000
15.48500 502.000
15.50000 475.000
15.51500 483.000
15.53000 479.000
15.54500 460.000
15.56000 514.000
15.57500 498.000
15.59000 488.000
15.60500 467.000
15.62000 472.000
15.63500 507.000
15.65000 512.000
15.66500 495.000
15.68000 480.000
15.69500 493.000
15.71000 497.000
15.72500 511.000
15.74000 493.000
15.75500 481.000
15.77000 485.000
15.78500 475.000
15.80000 494.000
15.81500 484.000
15.83000 480.000
15.84500 477.000
15.86000 497.000
15.87500 474.000
15.89000 477.000
15.90500 479.000
15.92000 486.000
15.93500 505.000
15.95000 474.000
15.96500 471.000
15.98000 498.000
15.99500 507.000
16.01000 521.000
16.02500 483.000
16.04000 453.000
16.05500 468.000
16.07000 468.000
16.08500 473.000
16.10000 500.000
16.11500 485.000
16.13000 447.000
16.14500 478.000
16.16000 479.000
16.17500 469.000
16.19000 462.000
16.20500 460.000
16.22000 441.000
16.23500 483.000
16.25000 476.000
16.26500 470.000
16.28000 451.000
16.29500 474.000
16.31000 475.000
16.32500 477.000
16.34000 493.000
16.35500 525.000
16.37000 496.000
16.38500 501.000
16.40000 500.000
16.41500 501.000
16.43000 468.000
16.44500 467.000
16.46000 479.000
16.47500 484.000
16.49000 521.000
16.50500 502.000
16.52000 495.000
16.53500 462.000
16.55000 442.000
16.56500 481.000
16.58000 491.000
16.59500 485.000
16.61000 469.000
16.62500 490.000
16.64000 446.000
16.65500 500.000
16.67000 482.000
16.68500 458.000
16.70000 456.000
16.71500 436.000
16.73000 430.000
16.74500 486.000
16.76000 492.000
16.77500 489.000
16.79000 469.000
16.80500 468.000
16.82000 477.000
16.83500 472.000
16.85000 469.000
16.86500 467.000
16.88000 458.000
16.89500 465.000
16.91000 445.000
16.92500 478.000
16.94000 491.000
16.95500 459.000
16.97000 483.000
16.98500 484.000
17.00000 446.000
17.01500 465.000
17.03000 467.000
17.04500 489.000
17.06000 485.000
17.07500 482.000
17.09000 480.000
17.10500 451.000
17.12000 462.000
17.13500 488.000
17.15000 470.000
17.16500 465.000
17.18000 508.000
17.19500 493.000
17.21000 462.000
17.22500 450.000
17.24000 454.000
17.25500 495.000
17.27000 506.000
17.28500 488.000
17.30000 490.000
17.31500 480.000
17.33000 484.000
17.34500 467.000
17.36000 485.000
17.37500 462.000
17.39000 497.000
17.40500 478.000
17.42000 470.000
17.43500 488.000
17.45000 460.000
17.46500 453.000
17.48000 478.000
17.49500 471.000
17.51000 517.000
17.52500 494.000
17.54000 487.000
17.55500 498.000
17.57000 465.000
17.58500 482.000
17.60000 481.000
17.61500 494.000
17.63000 498.000
17.64500 490.000
17.66000 521.000
17.67500 500.000
17.69000 477.000
17.70500 498.000
17.72000 487.000
17.73500 460.000
17.75000 486.000
17.76500 507.000
17.78000 467.000
17.79500 493.000
17.81000 513.000
17.82500 504.000
17.84000 486.000
17.85500 478.000
17.87000 482.000
17.88500 524.000
17.90000 474.000
17.91500 471.000
17.93000 468.000
17.94500 485.000
17.96000 470.000
17.97500 479.000
17.99000 465.000
18.00500 487.000
18.02000 503.000
18.03500 491.000
18.05000 490.000
18.06500 474.000
18.08000 512.000
18.09500 468.000
18.11000 458.000
18.12500 486.000
18.14000 508.000
18.15500 512.000
18.17000 506.000
18.18500 513.000
18.20000 498.000
18.21500 511.000
18.23000 489.000
18.24500 517.000
18.26000 496.000
18.27500 496.000
18.29000 501.000
18.30500 492.000
18.32000 511.000
18.33500 519.000
18.35000 514.000
18.36500 554.000
18.38000 542.000
18.39500 514.000
18.41000 553.000
18.42500 507.000
18.44000 564.000
18.45500 573.000
18.47000 567.000
18.48500 590.000
18.50000 599.000
18.51500 599.000
18.53000 616.000
18.54500 630.000
18.56000 647.000
18.57500 630.000
18.59000 654.000
18.60500 681.000
18.62000 659.000
18.63500 673.000
18.65000 669.000
18.66500 668.000
18.68000 645.000
18.69500 653.000
18.71000 668.000
18.72500 662.000
18.74000 661.000
18.75500 635.000
18.77000 627.000
18.78500 611.000
18.80000 593.000
18.81500 603.000
18.83000 565.000
18.84500 590.000
18.86000 535.000
18.87500 519.000
18.89000 546.000
18.90500 541.000
18.92000 541.000
18.93500 546.000
18.95000 504.000
18.96500 520.000
18.98000 523.000
18.99500 540.000
19.01000 543.000
19.02500 530.000
19.04000 523.000
19.05500 488.000
19.07000 523.000
19.08500 536.000
19.10000 518.000
19.11500 519.000
19.13000 514.000
19.14500 511.000
19.16000 489.000
19.17500 529.000
19.19000 509.000
19.20500 473.000
19.22000 495.000
19.23500 498.000
19.25000 495.000
19.26500 509.000
19.28000 513.000
19.29500 524.000
19.31000 512.000
19.32500 495.000
19.34000 508.000
19.35500 528.000
19.37000 513.000
19.38500 505.000
19.40000 503.000
19.41500 495.000
19.43000 492.000
19.44500 501.000
19.46000 498.000
19.47500 535.000
19.49000 510.000
19.50500 501.000
19.52000 522.000
19.53500 515.000
19.55000 507.000
19.56500 498.000
19.58000 530.000
19.59500 531.000
19.61000 512.000
19.62500 516.000
19.64000 515.000
19.65500 517.000
19.67000 522.000
19.68500 528.000
19.70000 534.000
19.71500 552.000
19.73000 525.000
19.74500 488.000
19.76000 529.000
19.77500 511.000
19.79000 499.000
19.80500 477.000
19.82000 538.000
19.83500 534.000
19.85000 493.000
19.86500 498.000
19.88000 495.000
19.89500 528.000
19.91000 511.000
19.92500 490.000
19.94000 501.000
19.95500 500.000
19.97000 489.000
19.98500 516.000
20.00000 516.000
20.01500 510.000
20.03000 518.000
20.04500 519.000
20.06000 510.000
20.07500 532.000
20.09000 538.000
20.10500 533.000
20.12000 544.000
20.13500 518.000
20.15000 499.000
20.16500 506.000
20.18000 513.000
20.19500 518.000
20.21000 519.000
20.22500 543.000
20.24000 530.000
20.25500 516.000
20.27000 481.000
20.28500 490.000
20.30000 498.000
20.31500 532.000
20.33000 527.000
20.34500 492.000
20.36000 497.000
20.37500 556.000
20.39000 544.000
20.40500 542.000
20.42000 505.000
20.43500 537.000
20.45000 507.000
20.46500 535.000
20.48000 543.000
20.49500 556.000
20.51000 572.000
20.52500 545.000
20.54000 549.000
20.55500 522.000
20.57000 516.000
20.58500 526.000
20.60000 544.000
20.61500 510.000
20.63000 548.000
20.64500 556.000
20.66000 520.000
20.67500 547.000
20.69000 551.000
20.70500 517.000
20.72000 547.000
20.73500 552.000
20.75000 546.000
20.76500 511.000
20.78000 550.000
20.79500 525.000
20.81000 532.000
20.82500 562.000
20.84000 567.000
20.85500 550.000
20.87000 531.000
20.88500 510.000
20.90000 526.000
20.91500 545.000
20.93000 535.000
20.94500 537.000
20.96000 509.000
20.97500 533.000
20.99000 516.000
21.00500 537.000
21.02000 522.000
21.03500 537.000
21.05000 552.000
21.06500 554.000
21.08000 577.000
21.09500 595.000
21.11000 566.000
21.12500 548.000
21.14000 541.000
21.15500 569.000
21.17000 526.000
21.18500 529.000
21.20000 565.000
21.21500 549.000
21.23000 542.000
21.24500 542.000
21.26000 578.000
21.27500 553.000
21.29000 533.000
21.30500 511.000
21.32000 517.000
21.33500 564.000
21.35000 571.000
21.36500 543.000
21.38000 565.000
21.39500 595.000
21.41000 565.000
21.42500 570.000
21.44000 536.000
21.45500 539.000
21.47000 548.000
21.48500 579.000
21.50000 613.000
21.51500 572.000
21.53000 564.000
21.54500 575.000
21.56000 540.000
21.57500 579.000
21.59000 600.000
21.60500 567.000
21.62000 576.000
21.63500 573.000
21.65000 606.000
21.66500 610.000
21.68000 640.000
21.69500 585.000
21.71000 582.000
21.72500 604.000
21.74000 597.000
21.75500 577.000
21.77000 612.000
21.78500 612.000
21.80000 576.000
21.81500 607.000
21.83000 633.000
21.84500 650.000
21.86000 596.000
21.87500 622.000
21.89000 631.000
21.90500 663.000
21.92000 673.000
21.93500 663.000
21.95000 656.000
21.96500 692.000
21.98000 673.000
21.99500 700.000
22.01000 701.000
22.02500 718.000
22.04000 701.000
22.05500 711.000
22.07000 736.000
22.08500 734.000
22.10000 751.000
22.11500 719.000
22.13000 711.000
22.14500 693.000
22.16000 667.000
22.17500 695.000
22.19000 662.000
22.20500 670.000
22.22000 675.000
22.23500 674.000
22.25000 666.000
22.26500 653.000
22.28000 640.000
22.29500 637.000
22.31000 622.000
22.32500 657.000
22.34000 673.000
22.35500 649.000
22.37000 618.000
22.38500 660.000
22.40000 658.000
22.41500 664.000
22.43000 644.000
22.44500 634.000
22.46000 629.000
22.47500 641.000
22.49000 644.000
22.50500 676.000
22.52000 662.000
22.53500 653.000
22.55000 663.000
22.56500 658.000
22.58000 660.000
22.59500 681.000
22.61000 673.000
22.62500 684.000
22.64000 652.000
22.65500 681.000
22.67000 694.000
22.68500 696.000
22.70000 700.000
22.71500 753.000
22.73000 754.000
22.74500 737.000
22.76000 767.000
22.77500 760.000
22.79000 741.000
22.80500 772.000
22.82000 801.000
22.83500 822.000
22.85000 836.000
22.86500 803.000
22.88000 814.000
22.89500 838.000
22.91000 844.000
22.92500 866.000
22.94000 851.000
22.95500 859.000
22.97000 841.000
22.98500 848.000
23.00000 834.000
23.01500 894.000
23.03000 841.000
23.04500 843.000
23.06000 816.000
23.07500 812.000
23.09000 851.000
23.10500 788.000
23.12000 782.000
23.13500 757.000
23.15000 759.000
23.16500 833.000
23.18000 746.000
23.19500 715.000
23.21000 740.000
23.22500 763.000
23.24000 700.000
23.25500 711.000
23.27000 696.000
23.28500 675.000
23.30000 701.000
23.31500 714.000
23.33000 674.000
23.34500 662.000
23.36000 708.000
23.37500 689.000
23.39000 703.000
23.40500 649.000
23.42000 666.000
23.43500 671.000
23.45000 688.000
23.46500 668.000
23.48000 662.000
23.49500 670.000
23.51000 655.000
23.52500 632.000
23.54000 624.000
23.55500 656.000
23.57000 659.000
23.58500 676.000
23.60000 663.000
23.61500 653.000
23.63000 668.000
23.64500 680.000
23.66000 662.000
23.67500 632.000
23.69000 636.000
23.70500 663.000
23.72000 658.000
23.73500 672.000
23.75000 630.000
23.76500 625.000
23.78000 666.000
23.79500 632.000
23.81000 650.000
23.82500 654.000
23.84000 615.000
23.85500 617.000
23.87000 616.000
23.88500 619.000
23.90000 663.000
23.91500 649.000
23.93000 652.000
23.94500 649.000
23.96000 665.000
23.97500 638.000
23.99000 639.000
24.00500 661.000
24.02000 662.000
24.03500 693.000
24.05000 705.000
24.06500 713.000
24.08000 738.000
24.09500 660.000
24.11000 674.000
24.12500 721.000
24.14000 689.000
24.15500 672.000
24.17000 667.000
24.18500 675.000
24.20000 675.000
24.21500 707.000
24.23000 696.000
24.24500 670.000
24.26000 651.000
24.27500 729.000
24.29000 713.000
24.30500 717.000
24.32000 709.000
24.33500 695.000
24.35000 716.000
24.36500 705.000
24.38000 711.000
24.39500 759.000
24.41000 740.000
24.42500 748.000
24.44000 759.000
24.45500 711.000
24.47000 730.000
24.48500 765.000
24.50000 733.000
24.51500 734.000
24.53000 793.000
24.54500 771.000
24.56000 762.000
24.57500 787.000
24.59000 733.000
24.60500 777.000
24.62000 748.000
24.63500 777.000
24.65000 773.000
24.66500 731.000
24.68000 728.000
24.69500 786.000
24.71000 800.000
24.72500 799.000
24.74000 772.000
24.75500 716.000
24.77000 742.000
24.78500 784.000
24.80000 728.000
24.81500 738.000
24.83000 762.000
24.84500 720.000
24.86000 730.000
24.87500 760.000
24.89000 758.000
24.90500 758.000
24.92000 766.000
24.93500 762.000
24.95000 723.000
24.96500 726.000
24.98000 744.000
24.99500 749.000
25.01000 787.000
25.02500 747.000
25.04000 758.000
25.05500 767.000
25.07000 773.000
25.08500 768.000
25.10000 757.000
25.11500 696.000
25.13000 736.000
25.14500 763.000
25.16000 738.000
25.17500 712.000
25.19000 726.000
25.20500 782.000
25.22000 753.000
25.23500 756.000
25.25000 763.000
25.26500 768.000
25.28000 742.000
25.29500 717.000
25.31000 748.000
25.32500 767.000
25.34000 772.000
25.35500 764.000
25.37000 783.000
25.38500 844.000
25.40000 792.000
25.41500 788.000
25.43000 808.000
25.44500 803.000
25.46000 823.000
25.47500 820.000
25.49000 810.000
25.50500 814.000
25.52000 851.000
25.53500 853.000
25.55000 859.000
25.56500 870.000
25.58000 857.000
25.59500 863.000
25.61000 830.000
25.62500 896.000
25.64000 865.000
25.65500 863.000
25.67000 880.000
25.68500 907.000
25.70000 877.000
25.71500 861.000
25.73000 866.000
25.74500 900.000
25.76000 904.000
25.77500 865.000
25.79000 891.000
25.80500 883.000
25.82000 892.000
25.83500 867.000
25.85000 859.000
25.86500 854.000
25.88000 863.000
25.89500 847.000
25.91000 901.000
25.92500 891.000
25.94000 834.000
25.95500 836.000
25.97000 846.000
25.98500 810.000
26.00000 777.000
26.01500 773.000
26.03000 774.000
26.04500 738.000
26.06000 830.000
26.07500 849.000
26.09000 825.000
26.10500 826.000
26.12000 807.000
26.13500 786.000
26.15000 826.000
26.16500 828.000
26.18000 822.000
26.19500 834.000
26.21000 812.000
26.22500 820.000
26.24000 820.000
26.25500 830.000
26.27000 792.000
26.28500 769.000
26.30000 850.000
26.31500 849.000
26.33000 845.000
26.34500 830.000
26.36000 837.000
26.37500 810.000
26.39000 852.000
26.40500 888.000
26.42000 862.000
26.43500 862.000
26.45000 836.000
26.46500 875.000
26.48000 867.000
26.49500 864.000
26.51000 850.000
26.52500 830.000
26.54000 832.000
26.55500 837.000
26.57000 837.000
26.58500 884.000
26.60000 843.000
26.61500 831.000
26.63000 826.000
26.64500 878.000
26.66000 877.000
26.67500 883.000
26.69000 898.000
26.70500 870.000
26.72000 888.000
26.73500 900.000
26.75000 879.000
26.76500 889.000
26.78000 920.000
26.79500 891.000
26.81000 920.000
26.82500 945.000
26.84000 912.000
26.85500 917.000
26.87000 923.000
26.88500 877.000
26.90000 930.000
26.91500 883.000
26.93000 886.000
26.94500 911.000
26.96000 924.000
26.97500 890.000
26.99000 944.000
27.00500 962.000
27.02000 989.000
27.03500 956.000
27.05000 974.000
27.06500 941.000
27.08000 943.000
27.09500 1000.000
27.11000 1032.000
27.12500 1015.000
27.14000 1009.000
27.15500 1020.000
27.17000 1068.000
27.18500 1067.000
27.20000 1053.000
27.21500 1079.000
27.23000 1103.000
27.24500 1085.000
27.26000 1074.000
27.27500 1094.000
27.29000 1080.000
27.30500 1151.000
27.32000 1132.000
27.33500 1172.000
27.35000 1214.000
27.36500 1204.000
27.38000 1233.000
27.39500 1208.000
27.41000 1273.000
27.42500 1318.000
27.44000 1361.000
27.45500 1396.000
27.47000 1419.000
27.48500 1496.000
27.50000 1524.000
27.51500 1725.000
27.53000 1743.000
27.54500 1840.000
27.56000 1956.000
27.57500 2122.000
27.59000 2314.000
27.60500 2350.000
27.62000 2508.000
27.63500 2747.000
27.65000 2924.000
27.66500 3117.000
27.68000 3329.000
27.69500 3477.000
27.71000 3612.000
27.72500 3599.000
27.74000 3634.000
27.75500 3760.000
27.77000 3672.000
27.78500 3590.000
27.80000 3598.000
27.81500 3490.000
27.83000 3206.000
27.84500 3061.000
27.86000 3023.000
27.87500 3003.000
27.89000 2997.000
27.90500 2884.000
27.92000 2815.000
27.93500 2847.000
27.95000 2786.000
27.96500 2630.000
27.98000 2667.000
27.99500 2681.000
28.01000 2588.000
28.02500 2549.000
28.04000 2506.000
28.05500 2324.000
28.07000 2217.000
28.08500 2249.000
28.10000 2188.000
28.11500 2123.000
28.13000 2014.000
28.14500 2029.000
28.16000 1994.000
28.17500 1909.000
28.19000 1867.000
28.20500 1782.000
28.22000 1765.000
28.23500 1675.000
28.25000 1710.000
28.26500 1676.000
28.28000 1619.000
28.29500 1616.000
28.31000 1584.000
28.32500 1539.000
28.34000 1505.000
28.35500 1417.000
28.37000 1429.000
28.38500 1429.000
28.40000 1392.000
28.41500 1396.000
28.43000 1309.000
28.44500 1298.000
28.46000 1287.000
28.47500 1235.000
28.49000 1219.000
28.50500 1152.000
28.52000 1127.000
28.53500 1150.000
28.55000 1126.000
28.56500 1107.000
28.58000 1111.000
28.59500 1150.000
28.61000 1127.000
28.62500 1084.000
28.64000 1017.000
28.65500 1038.000
28.67000 1045.000
28.68500 997.000
28.70000 983.000
28.71500 999.000
28.73000 983.000
28.74500 964.000
28.76000 993.000
28.77500 985.000
28.79000 892.000
28.80500 949.000
28.82000 964.000
28.83500 943.000
28.85000 928.000
28.86500 894.000
28.88000 892.000
28.89500 943.000
28.91000 912.000
28.92500 936.000
28.94000 940.000
28.95500 893.000
28.97000 901.000
28.98500 912.000
29.00000 898.000
29.01500 917.000
29.03000 948.000
29.04500 950.000
29.06000 976.000
29.07500 923.000
29.09000 941.000
29.10500 940.000
29.12000 947.000
29.13500 979.000
29.15000 968.000
29.16500 956.000
29.18000 978.000
29.19500 950.000
29.21000 941.000
29.22500 928.000
29.24000 905.000
29.25500 866.000
29.27000 839.000
29.28500 833.000
29.30000 865.000
29.31500 801.000
29.33000 809.000
29.34500 778.000
29.36000 783.000
29.37500 748.000
29.39000 772.000
29.40500 814.000
29.42000 763.000
29.43500 779.000
29.45000 750.000
29.46500 741.000
29.48000 760.000
29.49500 770.000
29.51000 764.000
29.52500 776.000
29.54000 750.000
29.55500 758.000
29.57000 786.000
29.58500 786.000
29.60000 704.000
29.61500 751.000
29.63000 761.000
29.64500 775.000
29.66000 748.000
29.67500 758.000
29.69000 761.000
29.70500 765.000
29.72000 747.000
29.73500 755.000
29.75000 782.000
29.76500 787.000
29.78000 757.000
29.79500 747.000
29.81000 714.000
29.82500 775.000
29.84000 778.000
29.85500 754.000
29.87000 741.000
29.88500 747.000
29.90000 748.000
29.91500 758.000
29.93000 726.000
29.94500 725.000
29.96000 726.000
29.97500 709.000
29.99000 764.000
30.00500 705.000
30.02000 706.000
30.03500 693.000
30.05000 692.000
30.06500 732.000
30.08000 717.000
30.09500 731.000
30.11000 724.000
30.12500 763.000
30.14000 765.000
30.15500 754.000
30.17000 795.000
30.18500 765.000
30.20000 745.000
30.21500 761.000
30.23000 748.000
30.24500 774.000
30.26000 792.000
30.27500 823.000
30.29000 764.000
30.30500 776.000
30.32000 791.000
30.33500 777.000
30.35000 763.000
30.36500 793.000
30.38000 813.000
30.39500 802.000
30.41000 831.000
30.42500 833.000
30.44000 781.000
30.45500 782.000
30.47000 795.000
30.48500 785.000
30.50000 800.000
30.51500 829.000
30.53000 840.000
30.54500 809.000
30.56000 801.000
30.57500 774.000
30.59000 794.000
30.60500 817.000
30.62000 740.000
30.63500 754.000
30.65000 768.000
30.66500 791.000
30.68000 757.000
30.69500 782.000
30.71000 773.000
30.72500 772.000
30.74000 740.000
30.75500 708.000
30.77000 769.000
30.78500 724.000
30.80000 735.000
30.81500 708.000
30.83000 733.000
30.84500 681.000
30.86000 707.000
30.87500 691.000
30.89000 688.000
30.90500 681.000
30.92000 717.000
30.93500 673.000
30.95000 654.000
30.96500 657.000
30.98000 633.000
30.99500 643.000
31.01000 690.000
31.02500 676.000
31.04000 664.000
31.05500 646.000
31.07000 651.000
31.08500 658.000
31.10000 664.000
31.11500 665.000
31.13000 628.000
31.14500 640.000
31.16000 621.000
31.17500 595.000
31.19000 611.000
31.20500 615.000
31.22000 610.000
31.23500 600.000
31.25000 643.000
31.26500 634.000
31.28000 620.000
31.29500 617.000
31.31000 646.000
31.32500 626.000
31.34000 651.000
31.35500 660.000
31.37000 646.000
31.38500 651.000
31.40000 694.000
31.41500 651.000
31.43000 636.000
31.44500 617.000
31.46000 633.000
31.47500 637.000
31.49000 654.000
31.50500 636.000
31.52000 638.000
31.53500 617.000
31.55000 611.000
31.56500 640.000
31.58000 662.000
31.59500 669.000
31.61000 612.000
31.62500 626.000
31.64000 631.000
31.65500 626.000
31.67000 646.000
31.68500 649.000
31.70000 604.000
31.71500 620.000
31.73000 612.000
31.74500 594.000
31.76000 640.000
31.77500 639.000
31.79000 646.000
31.80500 649.000
31.82000 615.000
31.83500 635.000
31.85000 624.000
31.86500 646.000
31.88000 625.000
31.89500 627.000
31.91000 655.000
31.92500 629.000
31.94000 630.000
31.95500 611.000
31.97000 610.000
31.98500 649.000
32.00000 574.000
32.01500 610.000
32.03000 607.000
32.04500 601.000
32.06000 615.000
32.07500 607.000
32.09000 613.000
32.10500 639.000
32.12000 641.000
32.13500 617.000
32.15000 596.000
32.16500 628.000
32.18000 632.000
32.19500 636.000
32.21000 663.000
32.22500 706.000
32.24000 708.000
32.25500 711.000
32.27000 731.000
32.28500 705.000
32.30000 761.000
32.31500 811.000
32.33000 790.000
32.34500 781.000
32.36000 762.000
32.37500 758.000
32.39000 772.000
32.40500 809.000
32.42000 806.000
32.43500 765.000
32.45000 726.000
32.46500 673.000
32.48000 616.000
32.49500 630.000
32.51000 634.000
32.52500 618.000
32.54000 621.000
32.55500 604.000
32.57000 569.000
32.58500 562.000
32.60000 522.000
32.61500 543.000
32.63000 531.000
32.64500 543.000
32.66000 517.000
32.67500 505.000
32.69000 550.000
32.70500 546.000
32.72000 539.000
32.73500 499.000
32.75000 504.000
32.76500 511.000
32.78000 538.000
32.79500 511.000
32.81000 501.000
32.82500 507.000
32.84000 514.000
32.85500 502.000
32.87000 485.000
32.88500 490.000
32.90000 495.000
32.91500 503.000
32.93000 490.000
32.94500 489.000
32.96000 484.000
32.97500 493.000
32.99000 454.000
33.00500 487.000
33.02000 519.000
33.03500 457.000
33.05000 449.000
33.06500 482.000
33.08000 472.000
33.09500 436.000
33.11000 457.000
33.12500 461.000
33.14000 479.000
33.15500 498.000
33.17000 443.000
33.18500 454.000
33.20000 478.000
33.21500 485.000
33.23000 461.000
33.24500 448.000
33.26000 456.000
33.27500 451.000
33.29000 466.000
33.30500 457.000
33.32000 465.000
33.33500 462.000
33.35000 423.000
33.36500 458.000
33.38000 457.000
33.39500 462.000
33.41000 436.000
33.42500 432.000
33.44000 457.000
33.45500 445.000
33.47000 431.000
33.48500 420.000
33.50000 420.000
33.51500 441.000
33.53000 458.000
33.54500 432.000
33.56000 408.000
33.57500 438.000
33.59000 454.000
33.60500 457.000
33.62000 482.000
33.63500 450.000
33.65000 428.000
33.66500 454.000
33.68000 424.000
33.69500 455.000
33.71000 466.000
33.72500 441.000
33.74000 449.000
33.75500 459.000
33.77000 445.000
33.78500 428.000
33.80000 421.000
33.81500 447.000
33.83000 447.000
33.84500 427.000
33.86000 489.000
33.87500 446.000
33.89000 463.000
33.90500 469.000
33.92000 413.000
33.93500 462.000
33.95000 434.000
33.96500 419.000
33.98000 440.000
33.99500 446.000
34.01000 451.000
34.02500 480.000
34.04000 461.000
34.05500 436.000
34.07000 457.000
34.08500 469.000
34.10000 420.000
34.11500 460.000
34.13000 439.000
34.14500 433.000
34.16000 442.000
34.17500 461.000
34.19000 435.000
34.20500 448.000
34.22000 445.000
34.23500 421.000
34.25000 431.000
34.26500 424.000
34.28000 460.000
34.29500 457.000
34.31000 449.000
34.32500 445.000
34.34000 422.000
34.35500 420.000
34.37000 418.000
34.38500 433.000
34.40000 447.000
34.41500 429.000
34.43000 426.000
34.44500 430.000
34.46000 409.000
34.47500 411.000
34.49000 426.000
34.50500 439.000
34.52000 429.000
34.53500 446.000
34.55000 399.000
34.56500 413.000
34.58000 459.000
34.59500 455.000
34.61000 433.000
34.62500 456.000
34.64000 447.000
34.65500 465.000
34.67000 422.000
34.68500 413.000
34.70000 426.000
34.71500 450.000
34.73000 455.000
34.74500 445.000
34.76000 437.000
34.77500 431.000
34.79000 450.000
34.80500 446.000
34.82000 483.000
34.83500 455.000
34.85000 448.000
34.86500 455.000
34.88000 456.000
34.89500 482.000
34.91000 477.000
34.92500 419.000
34.94000 417.000
34.95500 442.000
34.97000 481.000
34.98500 473.000
35.00000 482.000
35.01500 473.000
35.03000 449.000
35.04500 448.000
35.06000 485.000
35.07500 492.000
35.09000 508.000
35.10500 497.000
35.12000 480.000
35.13500 505.000
35.15000 490.000
35.16500 505.000
35.18000 504.000
35.19500 495.000
35.21000 504.000
35.22500 513.000
35.24000 490.000
35.25500 516.000
35.27000 533.000
35.28500 541.000
35.30000 565.000
35.31500 588.000
35.33000 601.000
35.34500 646.000
35.36000 605.000
35.37500 653.000
35.39000 710.000
35.40500 773.000
35.42000 828.000
35.43500 889.000
35.45000 900.000
35.46500 951.000
35.48000 971.000
35.49500 946.000
35.51000 910.000
35.52500 854.000
35.54000 830.000
35.55500 756.000
35.57000 689.000
35.58500 662.000
35.60000 622.000
35.61500 622.000
35.63000 592.000
35.64500 564.000
35.66000 570.000
35.67500 541.000
35.69000 526.000
35.70500 510.000
35.72000 514.000
35.73500 537.000
35.75000 494.000
35.76500 513.000
35.78000 495.000
35.79500 475.000
35.81000 507.000
35.82500 497.000
35.84000 472.000
35.85500 517.000
35.87000 480.000
35.88500 467.000
35.90000 471.000
35.91500 488.000
35.93000 484.000
35.94500 451.000
35.96000 457.000
35.97500 471.000
35.99000 503.000
36.00500 458.000
36.02000 453.000
36.03500 496.000
36.05000 474.000
36.06500 482.000
36.08000 486.000
36.09500 520.000
36.11000 509.000
36.12500 544.000
36.14000 517.000
36.15500 533.000
36.17000 536.000
36.18500 512.000
36.20000 528.000
36.21500 541.000
36.23000 513.000
36.24500 511.000
36.26000 540.000
36.27500 559.000
36.29000 559.000
36.30500 530.000
36.32000 533.000
36.33500 537.000
36.35000 517.000
36.36500 550.000
36.38000 562.000
36.39500 545.000
36.41000 555.000
36.42500 576.000
36.44000 572.000
36.45500 544.000
36.47000 547.000
36.48500 564.000
36.50000 540.000
36.51500 541.000
36.53000 549.000
36.54500 532.000
36.56000 541.000
36.57500 531.000
36.59000 542.000
36.60500 532.000
36.62000 575.000
36.63500 544.000
36.65000 543.000
36.66500 512.000
36.68000 496.000
36.69500 492.000
36.71000 475.000
36.72500 495.000
36.74000 495.000
36.75500 450.000
36.77000 452.000
36.78500 454.000
36.80000 485.000
36.81500 455.000
36.83000 474.000
36.84500 488.000
36.86000 439.000
36.87500 433.000
36.89000 423.000
36.90500 477.000
36.92000 460.000
36.93500 470.000
36.95000 468.000
36.96500 454.000
36.98000 457.000
36.99500 479.000
37.01000 478.000
37.02500 502.000
37.04000 475.000
37.05500 451.000
37.07000 465.000
37.08500 472.000
37.10000 478.000
37.11500 463.000
37.13000 469.000
37.14500 492.000
37.16000 507.000
37.17500 463.000
37.19000 453.000
37.20500 457.000
37.22000 496.000
37.23500 481.000
37.25000 536.000
37.26500 534.000
37.28000 513.000
37.29500 522.000
37.31000 502.000
37.32500 509.000
37.34000 536.000
37.35500 540.000
37.37000 496.000
37.38500 518.000
37.40000 517.000
37.41500 488.000
37.43000 500.000
37.44500 505.000
37.46000 536.000
37.47500 522.000
37.49000 504.000
37.50500 485.000
37.52000 496.000
37.53500 507.000
37.55000 493.000
37.56500 512.000
37.58000 463.000
37.59500 508.000
37.61000 503.000
37.62500 449.000
37.64000 471.000
37.65500 509.000
37.67000 488.000
37.68500 498.000
37.70000 483.000
37.71500 504.000
37.73000 503.000
37.74500 492.000
37.76000 480.000
37.77500 486.000
37.79000 446.000
37.80500 480.000
37.82000 504.000
37.83500 503.000
37.85000 464.000
37.86500 483.000
37.88000 498.000
37.89500 476.000
37.91000 487.000
37.92500 469.000
37.94000 458.000
37.95500 475.000
37.97000 454.000
37.98500 452.000
38.00000 472.000
38.01500 510.000
38.03000 464.000
38.04500 463.000
38.06000 475.000
38.07500 466.000
38.09000 469.000
38.10500 449.000
38.12000 464.000
38.13500 461.000
38.15000 446.000
38.16500 424.000
38.18000 460.000
38.19500 465.000
38.21000 479.000
38.22500 424.000
38.24000 416.000
38.25500 451.000
38.27000 451.000
38.28500 445.000
38.30000 435.000
38.31500 425.000
38.33000 450.000
38.34500 447.000
38.36000 472.000
38.37500 463.000
38.39000 435.000
38.40500 446.000
38.42000 436.000
38.43500 428.000
38.45000 425.000
38.46500 466.000
38.48000 474.000
38.49500 488.000
38.51000 517.000
38.52500 467.000
38.54000 483.000
38.55500 477.000
38.57000 478.000
38.58500 506.000
38.60000 473.000
38.61500 462.000
38.63000 468.000
38.64500 477.000
38.66000 471.000
38.67500 479.000
38.69000 481.000
38.70500 460.000
38.72000 448.000
38.73500 478.000
38.75000 523.000
38.76500 473.000
38.78000 484.000
38.79500 477.000
38.81000 439.000
38.82500 473.000
38.84000 450.000
38.85500 471.000
38.87000 424.000
38.88500 458.000
38.90000 465.000
38.91500 453.000
38.93000 446.000
38.94500 455.000
38.96000 446.000
38.97500 440.000
38.99000 385.000
39.00500 402.000
39.02000 438.000
39.03500 424.000
39.05000 424.000
39.06500 409.000
39.08000 410.000
39.09500 420.000
39.11000 413.000
39.12500 397.000
39.14000 377.000
39.15500 369.000
39.17000 374.000
39.18500 381.000
39.20000 408.000
39.21500 374.000
39.23000 371.000
39.24500 403.000
39.26000 369.000
39.27500 367.000
39.29000 396.000
39.30500 403.000
39.32000 402.000
39.33500 375.000
39.35000 413.000
39.36500 388.000
39.38000 392.000
39.39500 375.000
39.41000 367.000
39.42500 345.000
39.44000 357.000
39.45500 348.000
39.47000 350.000
39.48500 388.000
39.50000 386.000
39.51500 385.000
39.53000 383.000
39.54500 389.000
39.56000 411.000
39.57500 415.000
39.59000 388.000
39.60500 386.000
39.62000 404.000
39.63500 396.000
39.65000 454.000
39.66500 381.000
39.68000 396.000
39.69500 405.000
39.71000 378.000
39.72500 394.000
39.74000 407.000
39.75500 405.000
39.77000 414.000
39.78500 381.000
39.80000 408.000
39.81500 402.000
39.83000 409.000
39.84500 439.000
39.86000 431.000
39.87500 415.000
39.89000 403.000
39.90500 420.000
39.92000 424.000
39.93500 436.000
39.95000 416.000
39.96500 409.000
39.98000 422.000
39.99500 415.000
40.01000 439.000
40.02500 436.000
40.04000 428.000
40.05500 429.000
40.07000 435.000
40.08500 436.000
40.10000 449.000
40.11500 477.000
40.13000 467.000
40.14500 407.000
40.16000 384.000
40.17500 424.000
40.19000 402.000
40.20500 448.000
40.22000 424.000
40.23500 427.000
40.25000 412.000
40.26500 415.000
40.28000 401.000
40.29500 420.000
40.31000 431.000
40.32500 443.000
40.34000 427.000
40.35500 397.000
40.37000 438.000
40.38500 466.000
40.40000 439.000
40.41500 398.000
40.43000 434.000
40.44500 412.000
40.46000 451.000
40.47500 452.000
40.49000 439.000
40.50500 427.000
40.52000 437.000
40.53500 418.000
40.55000 434.000
40.56500 439.000
40.58000 399.000
40.59500 398.000
40.61000 415.000
40.62500 421.000
40.64000 391.000
40.65500 400.000
40.67000 398.000
40.68500 415.000
40.70000 416.000
40.71500 397.000
40.73000 385.000
40.74500 408.000
40.76000 412.000
40.77500 447.000
40.79000 378.000
40.80500 376.000
40.82000 379.000
40.83500 369.000
40.85000 400.000
40.86500 383.000
40.88000 389.000
40.89500 393.000
40.91000 341.000
40.92500 349.000
40.94000 395.000
40.95500 362.000
40.97000 383.000
40.98500 376.000
41.00000 377.000
41.01500 374.000
41.03000 391.000
41.04500 396.000
41.06000 381.000
41.07500 373.000
41.09000 352.000
41.10500 356.000
41.12000 375.000
41.13500 371.000
41.15000 371.000
41.16500 365.000
41.18000 314.000
41.19500 371.000
41.21000 370.000
41.22500 348.000
41.24000 333.000
41.25500 344.000
41.27000 366.000
41.28500 381.000
41.30000 349.000
41.31500 382.000
41.33000 396.000
41.34500 367.000
41.36000 361.000
41.37500 381.000
41.39000 382.000
41.40500 388.000
41.42000 364.000
41.43500 372.000
41.45000 349.000
41.46500 367.000
41.48000 359.000
41.49500 343.000
41.51000 359.000
41.52500 387.000
41.54000 350.000
41.55500 354.000
41.57000 362.000
41.58500 373.000
41.60000 373.000
41.61500 371.000
41.63000 350.000
41.64500 335.000
41.66000 359.000
41.67500 373.000
41.69000 348.000
41.70500 349.000
41.72000 337.000
41.73500 358.000
41.75000 344.000
41.76500 322.000
41.78000 355.000
41.79500 381.000
41.81000 344.000
41.82500 356.000
41.84000 382.000
41.85500 372.000
41.87000 344.000
41.88500 347.000
41.90000 356.000
41.91500 333.000
41.93000 372.000
41.94500 357.000
41.96000 378.000
41.97500 350.000
41.99000 355.000
42.00500 321.000
42.02000 356.000
42.03500 350.000
42.05000 373.000
42.06500 363.000
42.08000 358.000
42.09500 362.000
42.11000 358.000
42.12500 349.000
42.14000 357.000
42.15500 325.000
42.17000 361.000
42.18500 368.000
42.20000 330.000
42.21500 331.000
42.23000 336.000
42.24500 363.000
42.26000 380.000
42.27500 344.000
42.29000 329.000
42.30500 342.000
42.32000 342.000
42.33500 370.000
42.35000 369.000
42.36500 351.000
42.38000 346.000
42.39500 362.000
42.41000 345.000
42.42500 337.000
42.44000 356.000
42.45500 364.000
42.47000 361.000
42.48500 375.000
42.50000 379.000
42.51500 354.000
42.53000 347.000
42.54500 371.000
42.56000 365.000
42.57500 371.000
42.59000 362.000
42.60500 352.000
42.62000 362.000
42.63500 370.000
42.65000 382.000
42.66500 378.000
42.68000 365.000
42.69500 376.000
42.71000 386.000
42.72500 373.000
42.74000 366.000
42.75500 374.000
42.77000 360.000
42.78500 365.000
42.80000 402.000
42.81500 407.000
42.83000 387.000
42.84500 385.000
42.86000 374.000
42.87500 380.000
42.89000 394.000
42.90500 396.000
42.92000 412.000
42.93500 423.000
42.95000 389.000
42.96500 397.000
42.98000 412.000
42.99500 421.000
43.01000 463.000
43.02500 468.000
43.04000 460.000
43.05500 456.000
43.07000 478.000
43.08500 475.000
43.10000 462.000
43.11500 478.000
43.13000 493.000
43.14500 475.000
43.16000 516.000
43.17500 519.000
43.19000 569.000
43.20500 526.000
43.22000 550.000
43.23500 583.000
43.25000 643.000
43.26500 604.000
43.28000 640.000
43.29500 648.000
43.31000 614.000
43.32500 607.000
43.34000 623.000
43.35500 582.000
43.37000 560.000
43.38500 554.000
43.40000 552.000
43.41500 526.000
43.43000 487.000
43.44500 518.000
43.46000 490.000
43.47500 527.000
43.49000 507.000
43.50500 482.000
43.52000 457.000
43.53500 481.000
43.55000 479.000
43.56500 446.000
43.58000 456.000
43.59500 448.000
43.61000 453.000
43.62500 465.000
43.64000 418.000
43.65500 413.000
43.67000 405.000
43.68500 427.000
43.70000 394.000
43.71500 388.000
43.73000 384.000
43.74500 362.000
43.76000 361.000
43.77500 385.000
43.79000 406.000
43.80500 387.000
43.82000 378.000
43.83500 391.000
43.85000 388.000
43.86500 349.000
43.88000 364.000
43.89500 376.000
43.91000 363.000
43.92500 367.000
43.94000 388.000
43.95500 361.000
43.97000 353.000
43.98500 377.000
44.00000 352.000
44.01500 367.000
44.03000 374.000
44.04500 396.000
44.06000 365.000
44.07500 381.000
44.09000 379.000
44.10500 380.000
44.12000 383.000
44.13500 400.000
44.15000 379.000
44.16500 354.000
44.18000 406.000
44.19500 385.000
44.21000 410.000
44.22500 399.000
44.24000 410.000
44.25500 403.000
44.27000 423.000
44.28500 456.000
44.30000 424.000
44.31500 437.000
44.33000 439.000
44.34500 451.000
44.36000 447.000
44.37500 468.000
44.39000 437.000
44.40500 448.000
44.42000 443.000
44.43500 462.000
44.45000 441.000
44.46500 446.000
44.48000 427.000
44.49500 426.000
44.51000 424.000
44.52500 446.000
44.54000 407.000
44.55500 428.000
44.57000 436.000
44.58500 458.000
44.60000 414.000
44.61500 418.000
44.63000 433.000
44.64500 418.000
44.66000 403.000
44.67500 420.000
44.69000 455.000
44.70500 420.000
44.72000 412.000
44.73500 404.000
44.75000 392.000
44.76500 419.000
44.78000 414.000
44.79500 403.000
44.81000 394.000
44.82500 380.000
44.84000 407.000
44.85500 404.000
44.87000 390.000
44.88500 404.000
44.90000 418.000
44.91500 418.000
44.93000 416.000
44.94500 439.000
44.96000 428.000
44.97500 391.000
44.99000 402.000
45.00500 407.000
45.02000 388.000
45.03500 405.000
45.05000 402.000
45.06500 405.000
45.08000 417.000
45.09500 398.000
45.11000 384.000
45.12500 394.000
45.14000 401.000
45.15500 388.000
45.17000 392.000
45.18500 422.000
45.20000 369.000
45.21500 384.000
45.23000 436.000
45.24500 426.000
45.26000 404.000
45.27500 387.000
45.29000 373.000
45.30500 409.000
45.32000 384.000
45.33500 391.000
45.35000 398.000
45.36500 394.000
45.38000 372.000
45.39500 374.000
45.41000 378.000
45.42500 406.000
45.44000 393.000
45.45500 397.000
45.47000 388.000
45.48500 380.000
45.50000 370.000
45.51500 392.000
45.53000 348.000
45.54500 352.000
45.56000 383.000
45.57500 376.000
45.59000 361.000
45.60500 373.000
45.62000 403.000
45.63500 415.000
45.65000 391.000
45.66500 398.000
45.68000 382.000
45.69500 370.000
45.71000 356.000
45.72500 365.000
45.74000 367.000
45.75500 341.000
45.77000 378.000
45.78500 380.000
45.80000 389.000
45.81500 354.000
45.83000 372.000
45.84500 384.000
45.86000 350.000
45.87500 353.000
45.89000 357.000
45.90500 355.000
45.92000 355.000
45.93500 331.000
45.95000 361.000
45.96500 368.000
45.98000 373.000
45.99500 371.000
46.01000 389.000
46.02500 361.000
46.04000 361.000
46.05500 389.000
46.07000 371.000
46.08500 378.000
46.10000 368.000
46.11500 378.000
46.13000 367.000
46.14500 394.000
46.16000 373.000
46.17500 381.000
46.19000 391.000
46.20500 367.000
46.22000 347.000
46.23500 379.000
46.25000 373.000
46.26500 362.000
46.28000 342.000
46.29500 372.000
46.31000 367.000
46.32500 388.000
46.34000 371.000
46.35500 381.000
46.37000 396.000
46.38500 390.000
46.40000 347.000
46.41500 344.000
46.43000 358.000
46.44500 358.000
46.46000 362.000
46.47500 384.000
46.49000 350.000
46.50500 353.000
46.52000 345.000
46.53500 355.000
46.55000 334.000
46.56500 306.000
46.58000 318.000
46.59500 336.000
46.61000 347.000
46.62500 353.000
46.64000 335.000
46.65500 322.000
46.67000 334.000
46.68500 359.000
46.70000 337.000
46.71500 336.000
46.73000 347.000
46.74500 344.000
46.76000 340.000
46.77500 333.000
46.79000 344.000
46.80500 339.000
46.82000 365.000
46.83500 357.000
46.85000 358.000
46.86500 349.000
46.88000 345.000
46.89500 341.000
46.91000 373.000
46.92500 355.000
46.94000 337.000
46.95500 336.000
46.97000 333.000
46.98500 341.000
47.00000 329.000
47.01500 321.000
47.03000 354.000
47.04500 324.000
47.06000 338.000
47.07500 352.000
47.09000 345.000
47.10500 308.000
47.12000 352.000
47.13500 343.000
47.15000 307.000
47.16500 321.000
47.18000 331.000
47.19500 318.000
47.21000 296.000
47.22500 337.000
47.24000 314.000
47.25500 309.000
47.27000 313.000
47.28500 304.000
47.30000 310.000
47.31500 320.000
47.33000 291.000
47.34500 312.000
47.36000 323.000
47.37500 327.000
47.39000 303.000
47.40500 320.000
47.42000 282.000
47.43500 309.000
47.45000 313.000
47.46500 299.000
47.48000 274.000
47.49500 296.000
47.51000 299.000
47.52500 264.000
47.54000 269.000
47.55500 294.000
47.57000 307.000
47.58500 306.000
47.60000 304.000
47.61500 280.000
47.63000 302.000
47.64500 296.000
47.66000 282.000
47.67500 306.000
47.69000 298.000
47.70500 275.000
47.72000 279.000
47.73500 299.000
47.75000 288.000
47.76500 267.000
47.78000 294.000
47.79500 282.000
47.81000 285.000
47.82500 273.000
47.84000 264.000
47.85500 286.000
47.87000 288.000
47.88500 277.000
47.90000 282.000
47.91500 289.000
47.93000 284.000
47.94500 292.000
47.96000 260.000
47.97500 272.000
47.99000 332.000
48.00500 313.000
48.02000 294.000
48.03500 303.000
48.05000 278.000
48.06500 246.000
48.08000 271.000
48.09500 284.000
48.11000 280.000
48.12500 261.000
48.14000 277.000
48.15500 292.000
48.17000 287.000
48.18500 288.000
48.20000 276.000
48.21500 287.000
48.23000 301.000
48.24500 308.000
48.26000 269.000
48.27500 281.000
48.29000 297.000
48.30500 281.000
48.32000 278.000
48.33500 276.000
48.35000 282.000
48.36500 290.000
48.38000 266.000
48.39500 290.000
48.41000 273.000
48.42500 288.000
48.44000 285.000
48.45500 266.000
48.47000 260.000
48.48500 262.000
48.50000 275.000
48.51500 276.000
48.53000 264.000
48.54500 266.000
48.56000 281.000
48.57500 259.000
48.59000 271.000
48.60500 249.000
48.62000 262.000
48.63500 283.000
48.65000 264.000
48.66500 288.000
48.68000 298.000
48.69500 253.000
48.71000 265.000
48.72500 273.000
48.74000 264.000
48.75500 280.000
48.77000 268.000
48.78500 277.000
48.80000 283.000
48.81500 272.000
48.83000 247.000
48.84500 279.000
48.86000 292.000
48.87500 274.000
48.89000 259.000
48.90500 274.000
48.92000 258.000
48.93500 247.000
48.95000 270.000
48.96500 272.000
48.98000 272.000
48.99500 275.000
49.01000 255.000
49.02500 282.000
49.04000 282.000
49.05500 283.000
49.07000 284.000
49.08500 284.000
49.10000 282.000
49.11500 274.000
49.13000 305.000
49.14500 259.000
49.16000 248.000
49.17500 262.000
49.19000 290.000
49.20500 288.000
49.22000 276.000
49.23500 270.000
49.25000 248.000
49.26500 251.000
49.28000 260.000
49.29500 266.000
49.31000 272.000
49.32500 305.000
49.34000 317.000
49.35500 295.000
49.37000 272.000
49.38500 261.000
49.40000 298.000
49.41500 290.000
49.43000 303.000
49.44500 276.000
49.46000 283.000
49.47500 275.000
49.49000 287.000
49.50500 292.000
49.52000 281.000
49.53500 289.000
49.55000 257.000
49.56500 270.000
49.58000 263.000
49.59500 267.000
49.61000 273.000
49.62500 295.000
49.64000 266.000
49.65500 281.000
49.67000 266.000
49.68500 277.000
49.70000 279.000
49.71500 274.000
49.73000 263.000
49.74500 280.000
49.76000 268.000
49.77500 258.000
49.79000 252.000
49.80500 278.000
49.82000 276.000
49.83500 260.000
49.85000 277.000
49.86500 284.000
49.88000 281.000
49.89500 270.000
49.91000 285.000
49.92500 294.000
49.94000 313.000
49.95500 279.000
49.97000 287.000
49.98500 311.000
50.00000 278.000
50.01500 335.000
50.03000 326.000
50.04500 290.000
50.06000 296.000
50.07500 292.000
50.09000 344.000
50.10500 313.000
50.12000 319.000
50.13500 318.000
50.15000 325.000
50.16500 347.000
50.18000 330.000
50.19500 323.000
50.21000 310.000
50.22500 312.000
50.24000 302.000
50.25500 281.000
50.27000 305.000
50.28500 285.000
50.30000 284.000
50.31500 294.000
50.33000 291.000
50.34500 273.000
50.36000 277.000
50.37500 266.000
50.39000 259.000
50.40500 267.000
50.42000 274.000
50.43500 273.000
50.45000 279.000
50.46500 280.000
50.48000 273.000
50.49500 283.000
50.51000 293.000
50.52500 281.000
50.54000 306.000
50.55500 290.000
50.57000 263.000
50.58500 286.000
50.60000 290.000
50.61500 284.000
50.63000 295.000
50.64500 304.000
50.66000 309.000
50.67500 299.000
50.69000 286.000
50.70500 285.000
50.72000 279.000
50.73500 292.000
50.75000 314.000
50.76500 282.000
50.78000 273.000
50.79500 292.000
50.81000 289.000
50.82500 301.000
50.84000 284.000
50.85500 280.000
50.87000 272.000
50.88500 280.000
50.90000 289.000
50.91500 280.000
50.93000 288.000
50.94500 297.000
50.96000 302.000
50.97500 274.000
50.99000 287.000
51.00500 290.000
51.02000 293.000
51.03500 310.000
51.05000 310.000
51.06500 285.000
51.08000 300.000
51.09500 272.000
51.11000 279.000
51.12500 293.000
51.14000 297.000
51.15500 298.000
51.17000 293.000
51.18500 276.000
51.20000 283.000
51.21500 284.000
51.23000 269.000
51.24500 280.000
51.26000 291.000
51.27500 312.000
51.29000 303.000
51.30500 277.000
51.32000 274.000
51.33500 306.000
51.35000 284.000
51.36500 291.000
51.38000 283.000
51.39500 297.000
51.41000 286.000
51.42500 274.000
51.44000 296.000
51.45500 281.000
51.47000 310.000
51.48500 292.000
51.50000 296.000
51.51500 257.000
51.53000 286.000
51.54500 283.000
51.56000 313.000
51.57500 293.000
51.59000 313.000
51.60500 318.000
51.62000 325.000
51.63500 310.000
51.65000 300.000
51.66500 283.000
51.68000 289.000
51.69500 299.000
51.71000 278.000
51.72500 269.000
51.74000 302.000
51.75500 294.000
51.77000 256.000
51.78500 258.000
51.80000 269.000
51.81500 279.000
51.83000 258.000
51.84500 287.000
51.86000 270.000
51.87500 254.000
51.89000 269.000
51.90500 261.000
51.92000 266.000
51.93500 250.000
51.95000 277.000
51.96500 248.000
51.98000 263.000
51.99500 276.000
52.01000 250.000
52.02500 249.000
52.04000 243.000
52.05500 248.000
52.07000 271.000
52.08500 256.000
52.10000 263.000
52.11500 270.000
52.13000 246.000
52.14500 231.000
52.16000 252.000
52.17500 271.000
52.19000 243.000
52.20500 272.000
52.22000 271.000
52.23500 271.000
52.25000 255.000
52.26500 260.000
52.28000 252.000
52.29500 261.000
52.31000 246.000
52.32500 263.000
52.34000 298.000
52.35500 304.000
52.37000 275.000
52.38500 261.000
52.40000 272.000
52.41500 260.000
52.43000 275.000
52.44500 271.000
52.46000 269.000
52.47500 265.000
52.49000 276.000
52.50500 285.000
52.52000 258.000
52.53500 283.000
52.55000 258.000
52.56500 266.000
52.58000 244.000
52.59500 260.000
52.61000 260.000
52.62500 267.000
52.64000 270.000
52.65500 297.000
52.67000 269.000
52.68500 263.000
52.70000 258.000
52.71500 275.000
52.73000 255.000
52.74500 261.000
52.76000 262.000
52.77500 283.000
52.79000 282.000
52.80500 298.000
52.82000 303.000
52.83500 288.000
52.85000 286.000
52.86500 287.000
52.88000 288.000
52.89500 254.000
52.91000 272.000
52.92500 307.000
52.94000 279.000
52.95500 263.000
52.97000 282.000
52.98500 290.000
53.00000 272.000
53.01500 294.000
53.03000 297.000
53.04500 291.000
53.06000 302.000
53.07500 277.000
53.09000 267.000
53.10500 283.000
53.12000 299.000
53.13500 280.000
53.15000 304.000
53.16500 295.000
53.18000 289.000
53.19500 297.000
53.21000 288.000
53.22500 275.000
53.24000 290.000
53.25500 287.000
53.27000 291.000
53.28500 302.000
53.30000 287.000
53.31500 244.000
53.33000 269.000
53.34500 295.000
53.36000 296.000
53.37500 260.000
53.39000 258.000
53.40500 245.000
53.42000 272.000
53.43500 264.000
53.45000 283.000
53.46500 276.000
53.48000 264.000
53.49500 250.000
53.51000 262.000
53.52500 271.000
53.54000 277.000
53.55500 256.000
53.57000 258.000
53.58500 281.000
53.60000 275.000
53.61500 255.000
53.63000 260.000
53.64500 274.000
53.66000 271.000
53.67500 238.000
53.69000 259.000
53.70500 255.000
53.72000 249.000
53.73500 256.000
53.75000 277.000
53.76500 270.000
53.78000 273.000
53.79500 257.000
53.81000 256.000
53.82500 270.000
53.84000 260.000
53.85500 269.000
53.87000 264.000
53.88500 259.000
53.90000 274.000
53.91500 247.000
53.93000 274.000
53.94500 269.000
53.96000 258.000
53.97500 270.000
53.99000 267.000
54.00500 262.000
54.02000 266.000
54.03500 275.000
54.05000 276.000
54.06500 273.000
54.08000 261.000
54.09500 248.000
54.11000 259.000
54.12500 279.000
54.14000 291.000
54.15500 299.000
54.17000 267.000
54.18500 250.000
54.20000 268.000
54.21500 280.000
54.23000 295.000
54.24500 296.000
54.26000 269.000
54.27500 264.000
54.29000 263.000
54.30500 253.000
54.32000 283.000
54.33500 300.000
54.35000 304.000
54.36500 250.000
54.38000 269.000
54.39500 289.000
54.41000 270.000
54.42500 260.000
54.44000 272.000
54.45500 260.000
54.47000 241.000
54.48500 245.000
54.50000 285.000
54.51500 265.000
54.53000 264.000
54.54500 280.000
54.56000 249.000
54.57500 276.000
54.59000 280.000
54.60500 283.000
54.62000 257.000
54.63500 257.000
54.65000 260.000
54.66500 254.000
54.68000 253.000
54.69500 289.000
54.71000 270.000
54.72500 237.000
54.74000 276.000
54.75500 248.000
54.77000 237.000
54.78500 258.000
54.80000 271.000
54.81500 240.000
54.83000 271.000
54.84500 263.000
54.86000 252.000
54.87500 252.000
54.89000 245.000
54.90500 256.000
54.92000 239.000
54.93500 244.000
54.95000 238.000
54.96500 249.000
54.98000 254.000
54.99500 227.000
55.01000 260.000
55.02500 249.000
55.04000 246.000
55.05500 250.000
55.07000 259.000
55.08500 268.000
55.10000 238.000
55.11500 237.000
55.13000 243.000
55.14500 253.000
55.16000 245.000
55.17500 245.000
55.19000 240.000
55.20500 238.000
55.22000 233.000
55.23500 250.000
55.25000 227.000
55.26500 231.000
55.28000 242.000
55.29500 238.000
55.31000 250.000
55.32500 255.000
55.34000 250.000
55.35500 242.000
55.37000 228.000
55.38500 246.000
55.40000 239.000
55.41500 229.000
55.43000 246.000
55.44500 246.000
55.46000 269.000
55.47500 251.000
55.49000 234.000
55.50500 228.000
55.52000 233.000
55.53500 241.000
55.55000 229.000
55.56500 244.000
55.58000 227.000
55.59500 218.000
55.61000 235.000
55.62500 245.000
55.64000 253.000
55.65500 230.000
55.67000 234.000
55.68500 269.000
55.70000 271.000
55.71500 252.000
55.73000 273.000
55.74500 248.000
55.76000 231.000
55.77500 228.000
55.79000 235.000
55.80500 249.000
55.82000 257.000
55.83500 250.000
55.85000 263.000
55.86500 235.000
55.88000 236.000
55.89500 244.000
55.91000 239.000
55.92500 235.000
55.94000 238.000
55.95500 252.000
55.97000 226.000
55.98500 237.000
56.00000 234.000
56.01500 251.000
56.03000 263.000
56.04500 246.000
56.06000 241.000
56.07500 237.000
56.09000 257.000
56.10500 253.000
56.12000 254.000
56.13500 276.000
56.15000 258.000
56.16500 231.000
56.18000 252.000
56.19500 226.000
56.21000 254.000
56.22500 255.000
56.24000 234.000
56.25500 236.000
56.27000 230.000
56.28500 241.000
56.30000 245.000
56.31500 245.000
56.33000 248.000
56.34500 235.000
56.36000 252.000
56.37500 253.000
56.39000 234.000
56.40500 259.000
56.42000 236.000
56.43500 220.000
56.45000 245.000
56.46500 243.000
56.48000 230.000
56.49500 249.000
56.51000 254.000
56.52500 237.000
56.54000 233.000
56.55500 246.000
56.57000 239.000
56.58500 209.000
56.60000 248.000
56.61500 270.000
56.63000 243.000
56.64500 254.000
56.66000 246.000
56.67500 234.000
56.69000 268.000
56.70500 258.000
56.72000 241.000
56.73500 236.000
56.75000 248.000
56.76500 293.000
56.78000 258.000
56.79500 258.000
56.81000 259.000
56.82500 252.000
56.84000 244.000
56.85500 277.000
56.87000 289.000
56.88500 261.000
56.90000 246.000
56.91500 242.000
56.93000 250.000
56.94500 268.000
56.96000 251.000
56.97500 256.000
56.99000 267.000
57.00500 282.000
57.02000 272.000
57.03500 260.000
57.05000 265.000
57.06500 276.000
57.08000 276.000
57.09500 293.000
57.11000 292.000
57.12500 256.000
57.14000 262.000
57.15500 261.000
57.17000 275.000
57.18500 308.000
57.20000 291.000
57.21500 293.000
57.23000 274.000
57.24500 295.000
57.26000 273.000
57.27500 258.000
57.29000 290.000
57.30500 318.000
57.32000 298.000
57.33500 298.000
57.35000 323.000
57.36500 295.000
57.38000 285.000
57.39500 288.000
57.41000 298.000
57.42500 301.000
57.44000 288.000
57.45500 279.000
57.47000 303.000
57.48500 287.000
57.50000 261.000
57.51500 284.000
57.53000 290.000
57.54500 290.000
57.56000 285.000
57.57500 270.000
57.59000 295.000
57.60500 299.000
57.62000 270.000
57.63500 292.000
57.65000 280.000
57.66500 312.000
57.68000 283.000
57.69500 292.000
57.71000 286.000
57.72500 275.000
57.74000 284.000
57.75500 298.000
57.77000 277.000
57.78500 291.000
57.80000 277.000
57.81500 276.000
57.83000 264.000
57.84500 254.000
57.86000 251.000
57.87500 263.000
57.89000 260.000
57.90500 271.000
57.92000 293.000
57.93500 293.000
57.95000 245.000
57.96500 259.000
57.98000 265.000
57.99500 268.000
58.01000 293.000
58.02500 295.000
58.04000 273.000
58.05500 261.000
58.07000 272.000
58.08500 284.000
58.10000 268.000
58.11500 263.000
58.13000 277.000
58.14500 254.000
58.16000 258.000
58.17500 281.000
58.19000 250.000
58.20500 283.000
58.22000 281.000
58.23500 271.000
58.25000 290.000
58.26500 277.000
58.28000 296.000
58.29500 293.000
58.31000 290.000
58.32500 282.000
58.34000 273.000
58.35500 272.000
58.37000 297.000
58.38500 267.000
58.40000 246.000
58.41500 252.000
58.43000 281.000
58.44500 283.000
58.46000 284.000
58.47500 259.000
58.49000 235.000
58.50500 257.000
58.52000 275.000
58.53500 276.000
58.55000 227.000
58.56500 250.000
58.58000 249.000
58.59500 241.000
58.61000 261.000
58.62500 262.000
58.64000 246.000
58.65500 268.000
58.67000 244.000
58.68500 245.000
58.70000 259.000
58.71500 279.000
58.73000 286.000
58.74500 258.000
58.76000 233.000
58.77500 264.000
58.79000 242.000
58.80500 248.000
58.82000 247.000
58.83500 253.000
58.85000 238.000
58.86500 252.000
58.88000 236.000
58.89500 250.000
58.91000 255.000
58.92500 249.000
58.94000 246.000
58.95500 262.000
58.97000 230.000
58.98500 226.000
59.00000 240.000
59.01500 237.000
59.03000 228.000
59.04500 268.000
59.06000 258.000
59.07500 242.000
59.09000 242.000
59.10500 261.000
59.12000 263.000
59.13500 253.000
59.15000 240.000
59.16500 261.000
59.18000 263.000
59.19500 248.000
59.21000 246.000
59.22500 236.000
59.24000 239.000
59.25500 250.000
59.27000 250.000
59.28500 248.000
59.30000 252.000
59.31500 261.000
59.33000 248.000
59.34500 230.000
59.36000 227.000
59.37500 234.000
59.39000 226.000
59.40500 245.000
59.42000 246.000
59.43500 257.000
59.45000 251.000
59.46500 229.000
59.48000 248.000
59.49500 243.000
59.51000 233.000
59.52500 225.000
59.54000 204.000
59.55500 255.000
59.57000 242.000
59.58500 241.000
59.60000 224.000
59.61500 245.000
59.63000 224.000
59.64500 221.000
59.66000 230.000
59.67500 242.000
59.69000 222.000
59.70500 230.000
59.72000 247.000
59.73500 261.000
59.75000 242.000
59.76500 220.000
59.78000 230.000
59.79500 240.000
59.81000 236.000
59.82500 230.000
59.84000 233.000
59.85500 248.000
59.87000 253.000
59.88500 230.000
59.90000 230.000
59.91500 222.000
59.93000 233.000
59.94500 233.000
59.96000 220.000
59.97500 268.000
59.99000 212.000
60.00500 220.000
60.02000 220.000
60.03500 228.000
60.05000 225.000
60.06500 231.000
60.08000 233.000
60.09500 232.000
60.11000 232.000
60.12500 243.000
60.14000 205.000
60.15500 222.000
60.17000 232.000
60.18500 232.000
60.20000 234.000
60.21500 226.000
60.23000 225.000
60.24500 220.000
60.26000 236.000
60.27500 246.000
60.29000 225.000
60.30500 231.000
60.32000 256.000
60.33500 238.000
60.35000 218.000
60.36500 233.000
60.38000 246.000
60.39500 218.000
60.41000 224.000
60.42500 231.000
60.44000 248.000
60.45500 266.000
60.47000 253.000
60.48500 259.000
60.50000 240.000
60.51500 262.000
60.53000 243.000
60.54500 234.000
60.56000 232.000
60.57500 240.000
60.59000 246.000
60.60500 244.000
60.62000 236.000
60.63500 225.000
60.65000 235.000
60.66500 251.000
60.68000 234.000
60.69500 207.000
60.71000 229.000
60.72500 222.000
60.74000 219.000
60.75500 220.000
60.77000 220.000
60.78500 235.000
60.80000 227.000
60.81500 246.000
60.83000 236.000
60.84500 238.000
60.86000 224.000
60.87500 220.000
60.89000 231.000
60.90500 231.000
60.92000 242.000
60.93500 242.000
60.95000 240.000
60.96500 224.000
60.98000 232.000
60.99500 230.000
61.01000 230.000
61.02500 224.000
61.04000 222.000
61.05500 215.000
61.07000 250.000
61.08500 247.000
61.10000 228.000
61.11500 244.000
61.13000 240.000
61.14500 221.000
61.16000 220.000
61.17500 236.000
61.19000 235.000
61.20500 218.000
61.22000 237.000
61.23500 227.000
61.25000 204.000
61.26500 241.000
61.28000 234.000
61.29500 210.000
61.31000 212.000
61.32500 227.000
61.34000 220.000
61.35500 245.000
61.37000 231.000
61.38500 228.000
61.40000 251.000
61.41500 243.000
61.43000 248.000
61.44500 221.000
61.46000 220.000
61.47500 234.000
61.49000 238.000
61.50500 239.000
61.52000 221.000
61.53500 226.000
61.55000 212.000
61.56500 205.000
61.58000 235.000
61.59500 218.000
61.61000 231.000
61.62500 211.000
61.64000 220.000
61.65500 241.000
61.67000 227.000
61.68500 222.000
61.70000 211.000
61.71500 223.000
61.73000 236.000
61.74500 232.000
61.76000 198.000
61.77500 203.000
61.79000 208.000
61.80500 217.000
61.82000 228.000
61.83500 218.000
61.85000 224.000
61.86500 220.000
61.88000 224.000
61.89500 215.000
61.91000 227.000
61.92500 223.000
61.94000 227.000
61.95500 198.000
61.97000 211.000
61.98500 203.000
