2.00000 5.000
2.01500 3.000
2.03000 6.000
2.04500 6.000
2.06000 9.000
2.07500 6.000
2.09000 4.000
2.10500 4.000
2.12000 5.000
2.13500 5.000
2.15000 8.000
2.16500 4.000
2.18000 3.000
2.19500 6.000
2.21000 9.000
2.22500 8.000
2.24000 7.000
2.25500 8.000
2.27000 10.000
2.28500 7.000
2.30000 4.000
2.31500 5.000
2.33000 1.000
2.34500 0.000
2.36000 1.000
2.37500 1.000
2.39000 2.000
2.40500 4.000
2.42000 3.000
2.43500 0.000
2.45000 2.000
2.46500 2.000
2.48000 4.000
2.49500 6.000
2.51000 6.000
2.52500 2.000
2.54000 1.000
2.55500 1.000
2.57000 2.000
2.58500 2.000
2.60000 6.000
2.61500 1.000
2.63000 1.000
2.64500 4.000
2.66000 4.000
2.67500 6.000
2.69000 7.000
2.70500 9.000
2.72000 12.000
2.73500 19.000
2.75000 23.000
2.76500 35.000
2.78000 38.000
2.79500 49.000
2.81000 80.000
2.82500 111.000
2.84000 115.000
2.85500 153.000
2.87000 194.000
2.88500 211.000
2.90000 195.000
2.91500 234.000
2.93000 265.000
2.94500 230.000
2.96000 263.000
2.97500 255.000
2.99000 265.000
3.00500 260.000
3.02000 241.000
3.03500 264.000
3.05000 283.000
3.06500 269.000
3.08000 259.000
3.09500 249.000
3.11000 269.000
3.12500 283.000
3.14000 279.000
3.15500 263.000
3.17000 242.000
3.18500 269.000
3.20000 261.000
3.21500 286.000
3.23000 272.000
3.24500 265.000
3.26000 285.000
3.27500 280.000
3.29000 264.000
3.30500 272.000
3.32000 288.000
3.33500 269.000
3.35000 287.000
3.36500 278.000
3.38000 275.000
3.39500 264.000
3.41000 286.000
3.42500 299.000
3.44000 277.000
3.45500 285.000
3.47000 293.000
3.48500 299.000
3.50000 284.000
3.51500 288.000
3.53000 295.000
3.54500 278.000
3.56000 270.000
3.57500 289.000
3.59000 303.000
3.60500 286.000
3.62000 291.000
3.63500 306.000
3.65000 308.000
3.66500 288.000
3.68000 304.000
3.69500 290.000
3.71000 307.000
3.72500 309.000
3.74000 322.000
3.75500 354.000
3.77000 335.000
3.78500 315.000
3.80000 305.000
3.81500 300.000
3.83000 319.000
3.84500 313.000
3.86000 306.000
3.87500 310.000
3.89000 327.000
3.90500 294.000
3.92000 298.000
3.93500 300.000
3.95000 313.000
3.96500 316.000
3.98000 318.000
3.99500 335.000
4.01000 320.000
4.02500 328.000
4.04000 324.000
4.05500 327.000
4.07000 309.000
4.08500 311.000
4.10000 312.000
4.11500 329.000
4.13000 316.000
4.14500 312.000
4.16000 334.000
4.17500 334.000
4.19000 322.000
4.20500 313.000
4.22000 346.000
4.23500 324.000
4.25000 323.000
4.26500 335.000
4.28000 333.000
4.29500 331.000
4.31000 326.000
4.32500 344.000
4.34000 353.000
4.35500 360.000
4.37000 336.000
4.38500 349.000
4.40000 353.000
4.41500 359.000
4.43000 333.000
4.44500 329.000
4.46000 331.000
4.47500 360.000
4.49000 356.000
4.50500 359.000
4.52000 387.000
4.53500 371.000
4.55000 346.000
4.56500 343.000
4.58000 342.000
4.59500 362.000
4.61000 370.000
4.62500 340.000
4.64000 341.000
4.65500 356.000
4.67000 391.000
4.68500 341.000
4.70000 359.000
4.71500 366.000
4.73000 339.000
4.74500 353.000
4.76000 388.000
4.77500 348.000
4.79000 366.000
4.80500 374.000
4.82000 364.000
4.83500 364.000
4.85000 362.000
4.86500 366.000
4.88000 369.000
4.89500 375.000
4.91000 393.000
4.92500 375.000
4.94000 364.000
4.95500 376.000
4.97000 363.000
4.98500 382.000
5.00000 381.000
5.01500 387.000
5.03000 414.000
5.04500 404.000
5.06000 418.000
5.07500 382.000
5.09000 375.000
5.10500 390.000
5.12000 386.000
5.13500 362.000
5.15000 381.000
5.16500 388.000
5.18000 387.000
5.19500 383.000
5.21000 371.000
5.22500 359.000
5.24000 363.000
5.25500 394.000
5.27000 384.000
5.28500 371.000
5.30000 379.000
5.31500 393.000
5.33000 399.000
5.34500 413.000
5.36000 407.000
5.37500 390.000
5.39000 407.000
5.40500 424.000
5.42000 408.000
5.43500 377.000
5.45000 341.000
5.46500 368.000
5.48000 385.000
5.49500 386.000
5.51000 386.000
5.52500 410.000
5.54000 415.000
5.55500 395.000
5.57000 374.000
5.58500 378.000
5.60000 404.000
5.61500 413.000
5.63000 413.000
5.64500 411.000
5.66000 412.000
5.67500 388.000
5.69000 412.000
5.70500 442.000
5.72000 424.000
5.73500 414.000
5.75000 412.000
5.76500 418.000
5.78000 440.000
5.79500 432.000
5.81000 399.000
5.82500 400.000
5.84000 426.000
5.85500 414.000
5.87000 400.000
5.88500 405.000
5.90000 426.000
5.91500 410.000
5.93000 420.000
5.94500 398.000
5.96000 400.000
5.97500 408.000
5.99000 458.000
6.00500 409.000
6.02000 399.000
6.03500 428.000
6.05000 402.000
6.06500 415.000
6.08000 418.000
6.09500 448.000
6.11000 429.000
6.12500 424.000
6.14000 418.000
6.15500 429.000
6.17000 410.000
6.18500 418.000
6.20000 400.000
6.21500 416.000
6.23000 407.000
6.24500 433.000
6.26000 409.000
6.27500 426.000
6.29000 420.000
6.30500 397.000
6.32000 416.000
6.33500 424.000
6.35000 429.000
6.36500 406.000
6.38000 419.000
6.39500 443.000
6.41000 426.000
6.42500 402.000
6.44000 433.000
6.45500 406.000
6.47000 419.000
6.48500 456.000
6.50000 427.000
6.51500 417.000
6.53000 468.000
6.54500 466.000
6.56000 440.000
6.57500 415.000
6.59000 457.000
6.60500 449.000
6.62000 423.000
6.63500 438.000
6.65000 452.000
6.66500 505.000
6.68000 487.000
6.69500 438.000
6.71000 429.000
6.72500 440.000
6.74000 429.000
6.75500 448.000
6.77000 432.000
6.78500 418.000
6.80000 416.000
6.81500 446.000
6.83000 453.000
6.84500 442.000
6.86000 422.000
6.87500 410.000
6.89000 425.000
6.90500 448.000
6.92000 438.000
6.93500 444.000
6.95000 454.000
6.96500 431.000
6.98000 457.000
6.99500 472.000
7.01000 471.000
7.02500 463.000
7.04000 424.000
7.05500 444.000
7.07000 445.000
7.08500 469.000
7.10000 453.000
7.11500 455.000
7.13000 471.000
7.14500 494.000
7.16000 447.000
7.17500 474.000
7.19000 465.000
7.20500 479.000
7.22000 455.000
7.23500 427.000
7.25000 454.000
7.26500 463.000
7.28000 472.000
7.29500 449.000
7.31000 449.000
7.32500 452.000
7.34000 458.000
7.35500 458.000
7.37000 453.000
7.38500 452.000
7.40000 453.000
7.41500 476.000
7.43000 494.000
7.44500 448.000
7.46000 469.000
7.47500 481.000
7.49000 503.000
7.50500 495.000
7.52000 474.000
7.53500 496.000
7.55000 506.000
7.56500 503.000
7.58000 518.000
7.59500 520.000
7.61000 571.000
7.62500 570.000
7.64000 554.000
7.65500 542.000
7.67000 605.000
7.68500 597.000
7.70000 619.000
7.71500 615.000
7.73000 638.000
7.74500 691.000
7.76000 708.000
7.77500 729.000
7.79000 781.000
7.80500 790.000
7.82000 854.000
7.83500 975.000
7.85000 1002.000
7.86500 1110.000
7.88000 1192.000
7.89500 1302.000
7.91000 1395.000
7.92500 1591.000
7.94000 1738.000
7.95500 1918.000
7.97000 1949.000
7.98500 1827.000
8.00000 1515.000
8.01500 1229.000
8.03000 1071.000
8.04500 995.000
8.06000 910.000
8.07500 812.000
8.09000 755.000
8.10500 717.000
8.12000 688.000
8.13500 700.000
8.15000 664.000
8.16500 644.000
8.18000 650.000
8.19500 607.000
8.21000 608.000
8.22500 601.000
8.24000 604.000
8.25500 590.000
8.27000 548.000
8.28500 568.000
8.30000 566.000
8.31500 584.000
8.33000 580.000
8.34500 567.000
8.36000 538.000
8.37500 529.000
8.39000 552.000
8.40500 534.000
8.42000 561.000
8.43500 551.000
8.45000 556.000
8.46500 555.000
8.48000 538.000
8.49500 541.000
8.51000 536.000
8.52500 527.000
8.54000 525.000
8.55500 505.000
8.57000 537.000
8.58500 560.000
8.60000 543.000
8.61500 558.000
8.63000 546.000
8.64500 547.000
8.66000 533.000
8.67500 502.000
8.69000 486.000
8.70500 549.000
8.72000 554.000
8.73500 530.000
8.75000 499.000
8.76500 528.000
8.78000 553.000
8.79500 547.000
8.81000 525.000
8.82500 492.000
8.84000 523.000
8.85500 515.000
8.87000 547.000
8.88500 536.000
8.90000 509.000
8.91500 543.000
8.93000 511.000
8.94500 536.000
8.96000 544.000
8.97500 551.000
8.99000 573.000
9.00500 551.000
9.02000 555.000
9.03500 525.000
9.05000 510.000
9.06500 529.000
9.08000 525.000
9.09500 500.000
9.11000 493.000
9.12500 512.000
9.14000 504.000
9.15500 543.000
9.17000 519.000
9.18500 520.000
9.20000 544.000
9.21500 571.000
9.23000 552.000
9.24500 527.000
9.26000 515.000
9.27500 556.000
9.29000 542.000
9.30500 547.000
9.32000 533.000
9.33500 493.000
9.35000 533.000
9.36500 535.000
9.38000 526.000
9.39500 532.000
9.41000 517.000
9.42500 501.000
9.44000 521.000
9.45500 524.000
9.47000 573.000
9.48500 555.000
9.50000 550.000
9.51500 515.000
9.53000 507.000
9.54500 578.000
9.56000 512.000
9.57500 565.000
9.59000 582.000
9.60500 560.000
9.62000 576.000
9.63500 540.000
9.65000 578.000
9.66500 562.000
9.68000 526.000
9.69500 566.000
9.71000 598.000
9.72500 595.000
9.74000 627.000
9.75500 591.000
9.77000 615.000
9.78500 610.000
9.80000 623.000
9.81500 656.000
9.83000 652.000
9.84500 658.000
9.86000 673.000
9.87500 659.000
9.89000 661.000
9.90500 701.000
9.92000 742.000
9.93500 759.000
9.95000 780.000
9.96500 822.000
9.98000 876.000
9.99500 922.000
10.01000 850.000
10.02500 941.000
10.04000 1011.000
10.05500 1018.000
10.07000 961.000
10.08500 1007.000
10.10000 1015.000
10.11500 970.000
10.13000 952.000
10.14500 923.000
10.16000 899.000
10.17500 843.000
10.19000 815.000
10.20500 758.000
10.22000 722.000
10.23500 677.000
10.25000 713.000
10.26500 679.000
10.28000 647.000
10.29500 663.000
10.31000 612.000
10.32500 627.000
10.34000 595.000
10.35500 600.000
10.37000 575.000
10.38500 585.000
10.40000 569.000
10.41500 570.000
10.43000 588.000
10.44500 557.000
10.46000 510.000
10.47500 554.000
10.49000 545.000
10.50500 529.000
10.52000 518.000
10.53500 521.000
10.55000 538.000
10.56500 551.000
10.58000 578.000
10.59500 551.000
10.61000 565.000
10.62500 523.000
10.64000 495.000
10.65500 511.000
10.67000 538.000
10.68500 494.000
10.70000 491.000
10.71500 558.000
10.73000 487.000
10.74500 522.000
10.76000 526.000
10.77500 529.000
10.79000 513.000
10.80500 522.000
10.82000 544.000
10.83500 503.000
10.85000 526.000
10.86500 520.000
10.88000 475.000
10.89500 500.000
10.91000 506.000
10.92500 513.000
10.94000 483.000
10.95500 508.000
10.97000 539.000
10.98500 498.000
11.00000 490.000
11.01500 488.000
11.03000 491.000
11.04500 493.000
11.06000 533.000
11.07500 509.000
11.09000 531.000
11.10500 502.000
11.12000 512.000
11.13500 510.000
11.15000 516.000
11.16500 524.000
11.18000 520.000
11.19500 522.000
11.21000 506.000
11.22500 459.000
11.24000 521.000
11.25500 492.000
11.27000 488.000
11.28500 507.000
11.30000 515.000
11.31500 482.000
11.33000 466.000
11.34500 490.000
11.36000 507.000
11.37500 490.000
11.39000 486.000
11.40500 506.000
11.42000 506.000
11.43500 489.000
11.45000 490.000
11.46500 514.000
11.48000 524.000
11.49500 556.000
11.51000 544.000
11.52500 511.000
11.54000 495.000
11.55500 499.000
11.57000 498.000
11.58500 535.000
11.60000 490.000
11.61500 494.000
11.63000 525.000
11.64500 515.000
11.66000 477.000
11.67500 511.000
11.69000 534.000
11.70500 514.000
11.72000 532.000
11.73500 505.000
11.75000 478.000
11.76500 491.000
11.78000 504.000
11.79500 504.000
11.81000 510.000
11.82500 530.000
11.84000 489.000
11.85500 479.000
11.87000 492.000
11.88500 510.000
11.90000 516.000
11.91500 460.000
11.93000 514.000
11.94500 505.000
11.96000 496.000
11.97500 500.000
11.99000 505.000
12.00500 458.000
12.02000 449.000
12.03500 438.000
12.05000 470.000
12.06500 485.000
12.08000 503.000
12.09500 526.000
12.11000 483.000
12.12500 502.000
12.14000 502.000
12.15500 492.000
12.17000 512.000
12.18500 496.000
12.20000 486.000
12.21500 498.000
12.23000 489.000
12.24500 474.000
12.26000 480.000
12.27500 488.000
12.29000 472.000
12.30500 502.000
12.32000 501.000
12.33500 491.000
12.35000 507.000
12.36500 508.000
12.38000 477.000
12.39500 472.000
12.41000 493.000
12.42500 525.000
12.44000 483.000
12.45500 502.000
12.47000 473.000
12.48500 479.000
12.50000 475.000
12.51500 478.000
12.53000 515.000
12.54500 525.000
12.56000 522.000
12.57500 495.000
12.59000 496.000
12.60500 465.000
12.62000 462.000
12.63500 511.000
12.65000 502.000
12.66500 470.000
12.68000 501.000
12.69500 487.000
12.71000 504.000
12.72500 492.000
12.74000 500.000
12.75500 483.000
12.77000 489.000
12.78500 487.000
12.80000 512.000
12.81500 492.000
12.83000 493.000
12.84500 481.000
12.86000 465.000
12.87500 505.000
12.89000 495.000
12.90500 458.000
12.92000 458.000
12.93500 483.000
12.95000 479.000
12.96500 481.000
12.98000 458.000
12.99500 499.000
13.01000 489.000
13.02500 498.000
13.04000 502.000
13.05500 482.000
13.07000 502.000
13.08500 499.000
13.10000 483.000
13.11500 504.000
13.13000 510.000
13.14500 484.000
13.16000 500.000
13.17500 493.000
13.19000 510.000
13.20500 474.000
13.22000 489.000
13.23500 492.000
13.25000 487.000
13.26500 492.000
13.28000 477.000
13.29500 492.000
13.31000 483.000
13.32500 489.000
13.34000 491.000
13.35500 489.000
13.37000 527.000
13.38500 516.000
13.40000 504.000
13.41500 479.000
13.43000 506.000
13.44500 473.000
13.46000 453.000
13.47500 479.000
13.49000 462.000
13.50500 473.000
13.52000 489.000
13.53500 481.000
13.55000 493.000
13.56500 508.000
13.58000 483.000
13.59500 464.000
13.61000 477.000
13.62500 515.000
13.64000 500.000
13.65500 491.000
13.67000 461.000
13.68500 453.000
13.70000 477.000
13.71500 477.000
13.73000 497.000
13.74500 479.000
13.76000 466.000
13.77500 465.000
13.79000 477.000
13.80500 481.000
13.82000 521.000
13.83500 473.000
13.85000 478.000
13.86500 506.000
13.88000 479.000
13.89500 463.000
13.91000 473.000
13.92500 466.000
13.94000 475.000
13.95500 478.000
13.97000 487.000
13.98500 489.000
14.00000 480.000
14.01500 493.000
14.03000 525.000
14.04500 515.000
14.06000 491.000
14.07500 432.000
14.09000 459.000
14.10500 484.000
14.12000 492.000
14.13500 495.000
14.15000 529.000
14.16500 466.000
14.18000 454.000
14.19500 476.000
14.21000 454.000
14.22500 503.000
14.24000 504.000
14.25500 473.000
14.27000 506.000
14.28500 507.000
14.30000 483.000
14.31500 500.000
14.33000 496.000
14.34500 476.000
14.36000 482.000
14.37500 486.000
14.39000 488.000
14.40500 481.000
14.42000 497.000
14.43500 515.000
14.45000 480.000
14.46500 507.000
14.48000 508.000
14.49500 490.000
14.51000 498.000
14.52500 506.000
14.54000 469.000
14.55500 482.000
14.57000 488.000
14.58500 498.000
14.60000 486.000
14.61500 478.000
14.63000 480.000
14.64500 488.000
14.66000 493.000
14.67500 495.000
14.69000 491.000
14.70500 503.000
14.72000 486.000
14.73500 500.000
14.75000 480.000
14.76500 473.000
14.78000 477.000
14.79500 492.000
14.81000 494.000
14.82500 509.000
14.84000 532.000
14.85500 530.000
14.87000 481.000
14.88500 496.000
14.90000 533.000
14.91500 490.000
14.93000 535.000
14.94500 528.000
14.96000 534.000
14.97500 503.000
14.99000 528.000
15.00500 561.000
15.02000 530.000
15.03500 524.000
15.05000 553.000
15.06500 568.000
15.08000 574.000
15.09500 570.000
15.11000 569.000
15.12500 582.000
15.14000 557.000
15.15500 571.000
15.17000 595.000
15.18500 588.000
15.20000 594.000
15.21500 622.000
15.23000 606.000
15.24500 597.000
15.26000 580.000
15.27500 556.000
15.29000 547.000
15.30500 562.000
15.32000 606.000
15.33500 595.000
15.35000 546.000
15.36500 497.000
15.38000 489.000
15.39500 525.000
15.41000 492.000
15.42500 463.000
15.44000 490.000
15.45500 515.000
15.47000 506.000
15.48500 515.000
15.50000 492.000
15.51500 505.000
15.53000 499.000
15.54500 489.000
15.56000 529.000
15.57500 528.000
15.59000 506.000
15.60500 493.000
15.62000 516.000
15.63500 515.000
15.65000 500.000
15.66500 502.000
15.68000 464.000
15.69500 459.000
15.71000 490.000
15.72500 480.000
15.74000 470.000
15.75500 466.000
15.77000 454.000
15.78500 492.000
15.80000 503.000
15.81500 478.000
15.83000 496.000
15.84500 464.000
15.86000 489.000
15.87500 463.000
15.89000 486.000
15.90500 501.000
15.92000 471.000
15.93500 496.000
15.95000 506.000
15.96500 473.000
15.98000 492.000
15.99500 496.000
16.01000 498.000
16.02500 484.000
16.04000 497.000
16.05500 510.000
16.07000 474.000
16.08500 504.000
16.10000 495.000
16.11500 458.000
16.13000 484.000
16.14500 488.000
16.16000 468.000
16.17500 514.000
16.19000 479.000
16.20500 482.000
16.22000 513.000
16.23500 509.000
16.25000 489.000
16.26500 498.000
16.28000 473.000
16.29500 501.000
16.31000 499.000
16.32500 506.000
16.34000 496.000
16.35500 491.000
16.37000 518.000
16.38500 486.000
16.40000 486.000
16.41500 476.000
16.43000 482.000
16.44500 495.000
16.46000 476.000
16.47500 509.000
16.49000 499.000
16.50500 466.000
16.52000 477.000
16.53500 500.000
16.55000 488.000
16.56500 472.000
16.58000 488.000
16.59500 510.000
16.61000 478.000
16.62500 474.000
16.64000 495.000
16.65500 462.000
16.67000 467.000
16.68500 504.000
16.70000 480.000
16.71500 490.000
16.73000 474.000
16.74500 484.000
16.76000 477.000
16.77500 467.000
16.79000 496.000
16.80500 501.000
16.82000 492.000
16.83500 486.000
16.85000 507.000
16.86500 504.000
16.88000 481.000
16.89500 458.000
16.91000 469.000
16.92500 500.000
16.94000 488.000
16.95500 469.000
16.97000 467.000
16.98500 503.000
17.00000 487.000
17.01500 496.000
17.03000 476.000
17.04500 472.000
17.06000 475.000
17.07500 490.000
17.09000 487.000
17.10500 481.000
17.12000 504.000
17.13500 504.000
17.15000 485.000
17.16500 487.000
17.18000 493.000
17.19500 482.000
17.21000 493.000
17.22500 509.000
17.24000 484.000
17.25500 499.000
17.27000 483.000
17.28500 490.000
17.30000 475.000
17.31500 478.000
17.33000 483.000
17.34500 491.000
17.36000 491.000
17.37500 502.000
17.39000 516.000
17.40500 471.000
17.42000 455.000
17.43500 485.000
17.45000 477.000
17.46500 482.000
17.48000 527.000
17.49500 487.000
17.51000 465.000
17.52500 506.000
17.54000 497.000
17.55500 483.000
17.57000 478.000
17.58500 471.000
17.60000 469.000
17.61500 454.000
17.63000 505.000
17.64500 483.000
17.66000 507.000
17.67500 493.000
17.69000 491.000
17.70500 488.000
17.72000 478.000
17.73500 465.000
17.75000 484.000
17.76500 522.000
17.78000 492.000
17.79500 488.000
17.81000 505.000
17.82500 510.000
17.84000 516.000
17.85500 477.000
17.87000 473.000
17.88500 495.000
17.90000 501.000
17.91500 479.000
17.93000 490.000
17.94500 454.000
17.96000 436.000
17.97500 495.000
17.99000 522.000
18.00500 522.000
18.02000 516.000
18.03500 504.000
18.05000 509.000
18.06500 504.000
18.08000 490.000
18.09500 516.000
18.11000 503.000
18.12500 501.000
18.14000 516.000
18.15500 506.000
18.17000 505.000
18.18500 508.000
18.20000 494.000
18.21500 486.000
18.23000 514.000
18.24500 521.000
18.26000 535.000
18.27500 514.000
18.29000 481.000
18.30500 486.000
18.32000 529.000
18.33500 515.000
18.35000 487.000
18.36500 514.000
18.38000 529.000
18.39500 513.000
18.41000 511.000
18.42500 544.000
18.44000 571.000
18.45500 573.000
18.47000 607.000
18.48500 590.000
18.50000 591.000
18.51500 608.000
18.53000 580.000
18.54500 613.000
18.56000 630.000
18.57500 678.000
18.59000 683.000
18.60500 694.000
18.62000 678.000
18.63500 655.000
18.65000 691.000
18.66500 680.000
18.68000 659.000
18.69500 637.000
18.71000 667.000
18.72500 676.000
18.74000 653.000
18.75500 638.000
18.77000 617.000
18.78500 621.000
18.80000 580.000
18.81500 577.000
18.83000 548.000
18.84500 562.000
18.86000 560.000
18.87500 563.000
18.89000 570.000
18.90500 538.000
18.92000 544.000
18.93500 555.000
18.95000 513.000
18.96500 515.000
18.98000 530.000
18.99500 559.000
19.01000 524.000
19.02500 530.000
19.04000 512.000
19.05500 506.000
19.07000 527.000
19.08500 519.000
19.10000 508.000
19.11500 486.000
19.13000 513.000
19.14500 520.000
19.16000 524.000
19.17500 512.000
19.19000 495.000
19.20500 516.000
19.22000 511.000
19.23500 482.000
19.25000 513.000
19.26500 490.000
19.28000 488.000
19.29500 508.000
19.31000 540.000
19.32500 552.000
19.34000 534.000
19.35500 517.000
19.37000 513.000
19.38500 556.000
19.40000 508.000
19.41500 505.000
19.43000 502.000
19.44500 490.000
19.46000 488.000
19.47500 539.000
19.49000 477.000
19.50500 503.000
19.52000 523.000
19.53500 521.000
19.55000 486.000
19.56500 502.000
19.58000 514.000
19.59500 510.000
19.61000 503.000
19.62500 480.000
19.64000 504.000
19.65500 514.000
19.67000 520.000
19.68500 525.000
19.70000 519.000
19.71500 520.000
19.73000 545.000
19.74500 490.000
19.76000 508.000
19.77500 525.000
19.79000 517.000
19.80500 538.000
19.82000 513.000
19.83500 514.000
19.85000 536.000
19.86500 510.000
19.88000 497.000
19.89500 466.000
19.91000 481.000
19.92500 555.000
19.94000 524.000
19.95500 484.000
19.97000 523.000
19.98500 541.000
20.00000 519.000
20.01500 488.000
20.03000 512.000
20.04500 483.000
20.06000 485.000
20.07500 546.000
20.09000 517.000
20.10500 565.000
20.12000 509.000
20.13500 538.000
20.15000 519.000
20.16500 501.000
20.18000 520.000
20.19500 528.000
20.21000 503.000
20.22500 519.000
20.24000 539.000
20.25500 543.000
20.27000 504.000
20.28500 501.000
20.30000 533.000
20.31500 518.000
20.33000 490.000
20.34500 523.000
20.36000 549.000
20.37500 542.000
20.39000 520.000
20.40500 498.000
20.42000 490.000
20.43500 520.000
20.45000 530.000
20.46500 534.000
20.48000 534.000
20.49500 548.000
20.51000 551.000
20.52500 534.000
20.54000 503.000
20.55500 541.000
20.57000 515.000
20.58500 532.000
20.60000 570.000
20.61500 558.000
20.63000 533.000
20.64500 528.000
20.66000 546.000
20.67500 538.000
20.69000 531.000
20.70500 563.000
20.72000 543.000
20.73500 529.000
20.75000 543.000
20.76500 506.000
20.78000 514.000
20.79500 550.000
20.81000 535.000
20.82500 575.000
20.84000 577.000
20.85500 541.000
20.87000 567.000
20.88500 567.000
20.90000 551.000
20.91500 535.000
20.93000 552.000
20.94500 550.000
20.96000 541.000
20.97500 511.000
20.99000 539.000
21.00500 551.000
21.02000 524.000
21.03500 536.000
21.05000 534.000
21.06500 534.000
21.08000 557.000
21.09500 543.000
21.11000 520.000
21.12500 537.000
21.14000 559.000
21.15500 538.000
21.17000 541.000
21.18500 536.000
21.20000 539.000
21.21500 550.000
21.23000 557.000
21.24500 585.000
21.26000 566.000
21.27500 572.000
21.29000 553.000
21.30500 603.000
21.32000 564.000
21.33500 558.000
21.35000 597.000
21.36500 550.000
21.38000 562.000
21.39500 559.000
21.41000 548.000
21.42500 535.000
21.44000 546.000
21.45500 575.000
21.47000 595.000
21.48500 615.000
21.50000 585.000
21.51500 571.000
21.53000 551.000
21.54500 580.000
21.56000 590.000
21.57500 574.000
21.59000 564.000
21.60500 578.000
21.62000 582.000
21.63500 577.000
21.65000 590.000
21.66500 548.000
21.68000 553.000
21.69500 569.000
21.71000 574.000
21.72500 579.000
21.74000 589.000
21.75500 602.000
21.77000 593.000
21.78500 590.000
21.80000 621.000
21.81500 600.000
21.83000 653.000
21.84500 711.000
21.86000 638.000
21.87500 692.000
21.89000 708.000
21.90500 673.000
21.92000 682.000
21.93500 666.000
21.95000 656.000
21.96500 668.000
21.98000 691.000
21.99500 695.000
22.01000 684.000
22.02500 729.000
22.04000 750.000
22.05500 781.000
22.07000 731.000
22.08500 716.000
22.10000 717.000
22.11500 697.000
22.13000 735.000
22.14500 736.000
22.16000 709.000
22.17500 704.000
22.19000 704.000
22.20500 646.000
22.22000 636.000
22.23500 703.000
22.25000 642.000
22.26500 645.000
22.28000 655.000
22.29500 657.000
22.31000 644.000
22.32500 656.000
22.34000 690.000
22.35500 648.000
22.37000 665.000
22.38500 681.000
22.40000 657.000
22.41500 640.000
22.43000 630.000
22.44500 631.000
22.46000 651.000
22.47500 662.000
22.49000 669.000
22.50500 682.000
22.52000 669.000
22.53500 624.000
22.55000 601.000
22.56500 674.000
22.58000 661.000
22.59500 698.000
22.61000 660.000
22.62500 671.000
22.64000 685.000
22.65500 688.000
22.67000 665.000
22.68500 699.000
22.70000 715.000
22.71500 728.000
22.73000 714.000
22.74500 748.000
22.76000 773.000
22.77500 765.000
22.79000 766.000
22.80500 764.000
22.82000 827.000
22.83500 807.000
22.85000 779.000
22.86500 836.000
22.88000 845.000
22.89500 850.000
22.91000 894.000
22.92500 909.000
22.94000 880.000
22.95500 842.000
22.97000 876.000
22.98500 892.000
23.00000 888.000
23.01500 896.000
23.03000 847.000
23.04500 856.000
23.06000 876.000
23.07500 815.000
23.09000 810.000
23.10500 794.000
23.12000 788.000
23.13500 774.000
23.15000 747.000
23.16500 749.000
23.18000 750.000
23.19500 767.000
23.21000 741.000
23.22500 779.000
23.24000 697.000
23.25500 687.000
23.27000 700.000
23.28500 708.000
23.30000 721.000
23.31500 681.000
23.33000 656.000
23.34500 703.000
23.36000 692.000
23.37500 690.000
23.39000 655.000
23.40500 643.000
23.42000 657.000
23.43500 666.000
23.45000 667.000
23.46500 609.000
23.48000 675.000
23.49500 689.000
23.51000 676.000
23.52500 648.000
23.54000 642.000
23.55500 686.000
23.57000 641.000
23.58500 669.000
23.60000 669.000
23.61500 639.000
23.63000 624.000
23.64500 616.000
23.66000 633.000
23.67500 626.000
23.69000 624.000
23.70500 655.000
23.72000 673.000
23.73500 654.000
23.75000 648.000
23.76500 656.000
23.78000 619.000
23.79500 645.000
23.81000 642.000
23.82500 662.000
23.84000 672.000
23.85500 645.000
23.87000 638.000
23.88500 621.000
23.90000 674.000
23.91500 652.000
23.93000 641.000
23.94500 647.000
23.96000 655.000
23.97500 678.000
23.99000 719.000
24.00500 718.000
24.02000 674.000
24.03500 697.000
24.05000 726.000
24.06500 721.000
24.08000 730.000
24.09500 710.000
24.11000 697.000
24.12500 699.000
24.14000 699.000
24.15500 666.000
24.17000 707.000
24.18500 695.000
24.20000 636.000
24.21500 656.000
24.23000 662.000
24.24500 695.000
24.26000 653.000
24.27500 690.000
24.29000 714.000
24.30500 764.000
24.32000 769.000
24.33500 747.000
24.35000 724.000
24.36500 704.000
24.38000 675.000
24.39500 709.000
24.41000 746.000
24.42500 745.000
24.44000 717.000
24.45500 723.000
24.47000 741.000
24.48500 754.000
24.50000 748.000
24.51500 755.000
24.53000 725.000
24.54500 748.000
24.56000 776.000
24.57500 739.000
24.59000 758.000
24.60500 764.000
24.62000 777.000
24.63500 789.000
24.65000 788.000
24.66500 772.000
24.68000 806.000
24.69500 812.000
24.71000 761.000
24.72500 780.000
24.74000 779.000
24.75500 748.000
24.77000 759.000
24.78500 768.000
24.80000 773.000
24.81500 732.000
24.83000 774.000
24.84500 789.000
24.86000 745.000
24.87500 749.000
24.89000 786.000
24.90500 739.000
24.92000 727.000
24.93500 766.000
24.95000 714.000
24.96500 743.000
24.98000 746.000
24.99500 764.000
25.01000 776.000
25.02500 744.000
25.04000 766.000
25.05500 772.000
25.07000 778.000
25.08500 774.000
25.10000 763.000
25.11500 772.000
25.13000 753.000
25.14500 744.000
25.16000 707.000
25.17500 739.000
25.19000 776.000
25.20500 755.000
25.22000 757.000
25.23500 756.000
25.25000 754.000
25.26500 734.000
25.28000 752.000
25.29500 818.000
25.31000 800.000
25.32500 785.000
25.34000 743.000
25.35500 762.000
25.37000 798.000
25.38500 819.000
25.40000 844.000
25.41500 831.000
25.43000 780.000
25.44500 793.000
25.46000 829.000
25.47500 804.000
25.49000 849.000
25.50500 890.000
25.52000 853.000
25.53500 838.000
25.55000 885.000
25.56500 847.000
25.58000 859.000
25.59500 906.000
25.61000 878.000
25.62500 865.000
25.64000 850.000
25.65500 879.000
25.67000 900.000
25.68500 864.000
25.70000 864.000
25.71500 877.000
25.73000 933.000
25.74500 893.000
25.76000 865.000
25.77500 933.000
25.79000 896.000
25.80500 885.000
25.82000 893.000
25.83500 881.000
25.85000 894.000
25.86500 871.000
25.88000 850.000
25.89500 841.000
25.91000 830.000
25.92500 838.000
25.94000 834.000
25.95500 817.000
25.97000 836.000
25.98500 817.000
26.00000 795.000
26.01500 855.000
26.03000 789.000
26.04500 833.000
26.06000 821.000
26.07500 826.000
26.09000 856.000
26.10500 810.000
26.12000 808.000
26.13500 870.000
26.15000 804.000
26.16500 811.000
26.18000 808.000
26.19500 810.000
26.21000 792.000
26.22500 825.000
26.24000 807.000
26.25500 818.000
26.27000 817.000
26.28500 803.000
26.30000 854.000
26.31500 857.000
26.33000 835.000
26.34500 842.000
26.36000 818.000
26.37500 829.000
26.39000 783.000
26.40500 806.000
26.42000 807.000
26.43500 850.000
26.45000 819.000
26.46500 846.000
26.48000 890.000
26.49500 863.000
26.51000 862.000
26.52500 857.000
26.54000 839.000
26.55500 824.000
26.57000 893.000
26.58500 880.000
26.60000 874.000
26.61500 850.000
26.63000 867.000
26.64500 832.000
26.66000 868.000
26.67500 840.000
26.69000 895.000
26.70500 868.000
26.72000 853.000
26.73500 851.000
26.75000 895.000
26.76500 899.000
26.78000 875.000
26.79500 928.000
26.81000 907.000
26.82500 886.000
26.84000 929.000
26.85500 931.000
26.87000 921.000
26.88500 947.000
26.90000 862.000
26.91500 901.000
26.93000 928.000
26.94500 921.000
26.96000 927.000
26.97500 947.000
26.99000 997.000
27.00500 984.000
27.02000 980.000
27.03500 995.000
27.05000 974.000
27.06500 968.000
27.08000 1013.000
27.09500 1032.000
27.11000 1008.000
27.12500 1022.000
27.14000 1003.000
27.15500 1067.000
27.17000 1062.000
27.18500 1038.000
27.20000 1015.000
27.21500 1034.000
27.23000 1010.000
27.24500 1044.000
27.26000 1040.000
27.27500 1109.000
27.29000 1049.000
27.30500 1067.000
27.32000 1106.000
27.33500 1135.000
27.35000 1213.000
27.36500 1212.000
27.38000 1231.000
27.39500 1267.000
27.41000 1293.000
27.42500 1358.000
27.44000 1363.000
27.45500 1404.000
27.47000 1505.000
27.48500 1550.000
27.50000 1555.000
27.51500 1646.000
27.53000 1751.000
27.54500 1895.000
27.56000 1990.000
27.57500 2061.000
27.59000 2199.000
27.60500 2347.000
27.62000 2574.000
27.63500 2743.000
27.65000 2955.000
27.66500 3100.000
27.68000 3363.000
27.69500 3458.000
27.71000 3618.000
27.72500 3753.000
27.74000 3754.000
27.75500 3770.000
27.77000 3678.000
27.78500 3549.000
27.80000 3546.000
27.81500 3441.000
27.83000 3236.000
27.84500 3158.000
27.86000 3070.000
27.87500 3011.000
27.89000 3015.000
27.90500 2860.000
27.92000 2780.000
27.93500 2832.000
27.95000 2773.000
27.96500 2650.000
27.98000 2650.000
27.99500 2610.000
28.01000 2586.000
28.02500 2582.000
28.04000 2467.000
28.05500 2372.000
28.07000 2357.000
28.08500 2336.000
28.10000 2199.000
28.11500 2140.000
28.13000 2009.000
28.14500 1976.000
28.16000 1969.000
28.17500 1972.000
28.19000 1919.000
28.20500 1868.000
28.22000 1896.000
28.23500 1789.000
28.25000 1761.000
28.26500 1686.000
28.28000 1598.000
28.29500 1584.000
28.31000 1533.000
28.32500 1573.000
28.34000 1483.000
28.35500 1434.000
28.37000 1429.000
28.38500 1421.000
28.40000 1419.000
28.41500 1309.000
28.43000 1322.000
28.44500 1295.000
28.46000 1319.000
28.47500 1287.000
28.49000 1253.000
28.50500 1238.000
28.52000 1204.000
28.53500 1160.000
28.55000 1186.000
28.56500 1099.000
28.58000 1111.000
28.59500 1072.000
28.61000 1054.000
28.62500 1054.000
28.64000 1079.000
28.65500 1075.000
28.67000 1031.000
28.68500 1053.000
28.70000 1058.000
28.71500 1050.000
28.73000 1062.000
28.74500 993.000
28.76000 947.000
28.77500 1000.000
28.79000 954.000
28.80500 946.000
28.82000 912.000
28.83500 917.000
28.85000 923.000
28.86500 916.000
28.88000 941.000
28.89500 981.000
28.91000 904.000
28.92500 883.000
28.94000 947.000
28.95500 946.000
28.97000 898.000
28.98500 895.000
29.00000 930.000
29.01500 921.000
29.03000 938.000
29.04500 901.000
29.06000 967.000
29.07500 934.000
29.09000 950.000
29.10500 917.000
29.12000 910.000
29.13500 962.000
29.15000 1009.000
29.16500 994.000
29.18000 992.000
29.19500 995.000
29.21000 922.000
29.22500 930.000
29.24000 877.000
29.25500 861.000
29.27000 846.000
29.28500 798.000
29.30000 785.000
29.31500 803.000
29.33000 798.000
29.34500 770.000
29.36000 771.000
29.37500 761.000
29.39000 778.000
29.40500 803.000
29.42000 802.000
29.43500 778.000
29.45000 738.000
29.46500 722.000
29.48000 767.000
29.49500 745.000
29.51000 733.000
29.52500 756.000
29.54000 761.000
29.55500 721.000
29.57000 757.000
29.58500 743.000
29.60000 740.000
29.61500 747.000
29.63000 760.000
29.64500 765.000
29.66000 788.000
29.67500 744.000
29.69000 733.000
29.70500 767.000
29.72000 748.000
29.73500 771.000
29.75000 779.000
29.76500 761.000
29.78000 776.000
29.79500 728.000
29.81000 753.000
29.82500 774.000
29.84000 751.000
29.85500 761.000
29.87000 739.000
29.88500 773.000
29.90000 761.000
29.91500 742.000
29.93000 755.000
29.94500 744.000
29.96000 739.000
29.97500 729.000
29.99000 723.000
30.00500 721.000
30.02000 686.000
30.03500 717.000
30.05000 743.000
30.06500 699.000
30.08000 736.000
30.09500 718.000
30.11000 727.000
30.12500 740.000
30.14000 742.000
30.15500 696.000
30.17000 797.000
30.18500 775.000
30.20000 780.000
30.21500 762.000
30.23000 750.000
30.24500 726.000
30.26000 768.000
30.27500 782.000
30.29000 798.000
30.30500 842.000
30.32000 768.000
30.33500 789.000
30.35000 834.000
30.36500 811.000
30.38000 803.000
30.39500 801.000
30.41000 804.000
30.42500 787.000
30.44000 808.000
30.45500 800.000
30.47000 823.000
30.48500 824.000
30.50000 787.000
30.51500 809.000
30.53000 782.000
30.54500 830.000
30.56000 787.000
30.57500 744.000
30.59000 768.000
30.60500 765.000
30.62000 803.000
30.63500 761.000
30.65000 766.000
30.66500 796.000
30.68000 778.000
30.69500 807.000
30.71000 761.000
30.72500 764.000
30.74000 745.000
30.75500 729.000
30.77000 714.000
30.78500 739.000
30.80000 714.000
30.81500 685.000
30.83000 709.000
30.84500 706.000
30.86000 727.000
30.87500 723.000
30.89000 684.000
30.90500 698.000
30.92000 708.000
30.93500 695.000
30.95000 642.000
30.96500 717.000
30.98000 672.000
30.99500 635.000
31.01000 669.000
31.02500 655.000
31.04000 681.000
31.05500 655.000
31.07000 643.000
31.08500 662.000
31.10000 650.000
31.11500 630.000
31.13000 614.000
31.14500 593.000
31.16000 621.000
31.17500 623.000
31.19000 665.000
31.20500 625.000
31.22000 643.000
31.23500 618.000
31.25000 621.000
31.26500 595.000
31.28000 633.000
31.29500 630.000
31.31000 637.000
31.32500 671.000
31.34000 663.000
31.35500 644.000
31.37000 631.000
31.38500 664.000
31.40000 637.000
31.41500 645.000
31.43000 638.000
31.44500 654.000
31.46000 650.000
31.47500 669.000
31.49000 687.000
31.50500 636.000
31.52000 642.000
31.53500 647.000
31.55000 622.000
31.56500 648.000
31.58000 640.000
31.59500 643.000
31.61000 623.000
31.62500 628.000
31.64000 623.000
31.65500 655.000
31.67000 644.000
31.68500 661.000
31.70000 642.000
31.71500 619.000
31.73000 659.000
31.74500 674.000
31.76000 660.000
31.77500 654.000
31.79000 651.000
31.80500 676.000
31.82000 659.000
31.83500 635.000
31.85000 624.000
31.86500 631.000
31.88000 603.000
31.89500 612.000
31.91000 628.000
31.92500 636.000
31.94000 651.000
31.95500 642.000
31.97000 593.000
31.98500 625.000
32.00000 657.000
32.01500 679.000
32.03000 645.000
32.04500 588.000
32.06000 649.000
32.07500 626.000
32.09000 619.000
32.10500 667.000
32.12000 673.000
32.13500 642.000
32.15000 649.000
32.16500 661.000
32.18000 645.000
32.19500 690.000
32.21000 629.000
32.22500 728.000
32.24000 718.000
32.25500 711.000
32.27000 772.000
32.28500 804.000
32.30000 803.000
32.31500 814.000
32.33000 820.000
32.34500 805.000
32.36000 794.000
32.37500 756.000
32.39000 818.000
32.40500 793.000
32.42000 735.000
32.43500 762.000
32.45000 689.000
32.46500 685.000
32.48000 663.000
32.49500 644.000
32.51000 634.000
32.52500 595.000
32.54000 612.000
32.55500 600.000
32.57000 606.000
32.58500 580.000
32.60000 567.000
32.61500 518.000
32.63000 539.000
32.64500 586.000
32.66000 535.000
32.67500 484.000
32.69000 505.000
32.70500 493.000
32.72000 510.000
32.73500 530.000
32.75000 503.000
32.76500 490.000
32.78000 508.000
32.79500 517.000
32.81000 497.000
32.82500 515.000
32.84000 504.000
32.85500 473.000
32.87000 486.000
32.88500 500.000
32.90000 517.000
32.91500 462.000
32.93000 496.000
32.94500 492.000
32.96000 491.000
32.97500 486.000
32.99000 486.000
33.00500 471.000
33.02000 466.000
33.03500 482.000
33.05000 513.000
33.06500 518.000
33.08000 503.000
33.09500 474.000
33.11000 463.000
33.12500 481.000
33.14000 466.000
33.15500 469.000
33.17000 456.000
33.18500 466.000
33.20000 502.000
33.21500 462.000
33.23000 448.000
33.24500 465.000
33.26000 472.000
33.27500 442.000
33.29000 447.000
33.30500 436.000
33.32000 451.000
33.33500 483.000
33.35000 450.000
33.36500 459.000
33.38000 461.000
33.39500 428.000
33.41000 475.000
33.42500 450.000
33.44000 447.000
33.45500 444.000
33.47000 456.000
33.48500 452.000
33.50000 452.000
33.51500 437.000
33.53000 475.000
33.54500 441.000
33.56000 460.000
33.57500 448.000
33.59000 435.000
33.60500 442.000
33.62000 430.000
33.63500 492.000
33.65000 473.000
33.66500 446.000
33.68000 443.000
33.69500 448.000
33.71000 422.000
33.72500 462.000
33.74000 454.000
33.75500 433.000
33.77000 450.000
33.78500 442.000
33.80000 438.000
33.81500 438.000
33.83000 455.000
33.84500 469.000
33.86000 457.000
33.87500 462.000
33.89000 453.000
33.90500 465.000
33.92000 458.000
33.93500 444.000
33.95000 454.000
33.96500 450.000
33.98000 471.000
33.99500 467.000
34.01000 461.000
34.02500 460.000
34.04000 456.000
34.05500 438.000
34.07000 462.000
34.08500 462.000
34.10000 424.000
34.11500 438.000
34.13000 447.000
34.14500 437.000
34.16000 434.000
34.17500 432.000
34.19000 420.000
34.20500 399.000
34.22000 444.000
34.23500 423.000
34.25000 435.000
34.26500 423.000
34.28000 438.000
34.29500 468.000
34.31000 459.000
34.32500 447.000
34.34000 446.000
34.35500 441.000
34.37000 446.000
34.38500 456.000
34.40000 455.000
34.41500 445.000
34.43000 455.000
34.44500 424.000
34.46000 438.000
34.47500 421.000
34.49000 438.000
34.50500 447.000
34.52000 434.000
34.53500 464.000
34.55000 432.000
34.56500 440.000
34.58000 448.000
34.59500 465.000
34.61000 455.000
34.62500 419.000
34.64000 415.000
34.65500 456.000
34.67000 447.000
34.68500 405.000
34.70000 441.000
34.71500 445.000
34.73000 470.000
34.74500 469.000
34.76000 433.000
34.77500 466.000
34.79000 465.000
34.80500 435.000
34.82000 432.000
34.83500 455.000
34.85000 454.000
34.86500 416.000
34.88000 418.000
34.89500 462.000
34.91000 484.000
34.92500 477.000
34.94000 463.000
34.95500 442.000
34.97000 434.000
34.98500 446.000
35.00000 485.000
35.01500 448.000
35.03000 484.000
35.04500 458.000
35.06000 501.000
35.07500 505.000
35.09000 473.000
35.10500 475.000
35.12000 506.000
35.13500 524.000
35.15000 474.000
35.16500 482.000
35.18000 518.000
35.19500 508.000
35.21000 507.000
35.22500 536.000
35.24000 506.000
35.25500 485.000
35.27000 559.000
35.28500 544.000
35.30000 549.000
35.31500 570.000
35.33000 558.000
35.34500 635.000
35.36000 616.000
35.37500 671.000
35.39000 698.000
35.40500 798.000
35.42000 879.000
35.43500 911.000
35.45000 935.000
35.46500 1009.000
35.48000 965.000
35.49500 950.000
35.51000 938.000
35.52500 849.000
35.54000 813.000
35.55500 752.000
35.57000 666.000
35.58500 668.000
35.60000 592.000
35.61500 589.000
35.63000 553.000
35.64500 546.000
35.66000 550.000
35.67500 559.000
35.69000 537.000
35.70500 535.000
35.72000 511.000
35.73500 517.000
35.75000 498.000
35.76500 486.000
35.78000 487.000
35.79500 498.000
35.81000 529.000
35.82500 497.000
35.84000 488.000
35.85500 495.000
35.87000 498.000
35.88500 470.000
35.90000 511.000
35.91500 474.000
35.93000 510.000
35.94500 468.000
35.96000 474.000
35.97500 482.000
35.99000 465.000
36.00500 462.000
36.02000 474.000
36.03500 489.000
36.05000 462.000
36.06500 495.000
36.08000 498.000
36.09500 477.000
36.11000 491.000
36.12500 543.000
36.14000 526.000
36.15500 536.000
36.17000 534.000
36.18500 517.000
36.20000 537.000
36.21500 579.000
36.23000 509.000
36.24500 514.000
36.26000 534.000
36.27500 564.000
36.29000 519.000
36.30500 525.000
36.32000 559.000
36.33500 583.000
36.35000 577.000
36.36500 574.000
36.38000 536.000
36.39500 563.000
36.41000 562.000
36.42500 544.000
36.44000 558.000
36.45500 544.000
36.47000 576.000
36.48500 614.000
36.50000 571.000
36.51500 554.000
36.53000 586.000
36.54500 560.000
36.56000 533.000
36.57500 547.000
36.59000 547.000
36.60500 484.000
36.62000 532.000
36.63500 526.000
36.65000 542.000
36.66500 508.000
36.68000 517.000
36.69500 528.000
36.71000 518.000
36.72500 517.000
36.74000 499.000
36.75500 497.000
36.77000 479.000
36.78500 524.000
36.80000 516.000
36.81500 482.000
36.83000 488.000
36.84500 498.000
36.86000 470.000
36.87500 423.000
36.89000 485.000
36.90500 470.000
36.92000 460.000
36.93500 471.000
36.95000 428.000
36.96500 460.000
36.98000 465.000
36.99500 438.000
37.01000 474.000
37.02500 449.000
37.04000 433.000
37.05500 488.000
37.07000 488.000
37.08500 440.000
37.10000 486.000
37.11500 446.000
37.13000 459.000
37.14500 477.000
37.16000 463.000
37.17500 474.000
37.19000 529.000
37.20500 505.000
37.22000 484.000
37.23500 481.000
37.25000 499.000
37.26500 518.000
37.28000 516.000
37.29500 506.000
37.31000 540.000
37.32500 527.000
37.34000 513.000
37.35500 512.000
37.37000 531.000
37.38500 544.000
37.40000 544.000
37.41500 532.000
37.43000 544.000
37.44500 528.000
37.46000 528.000
37.47500 510.000
37.49000 546.000
37.50500 539.000
37.52000 537.000
37.53500 531.000
37.55000 496.000
37.56500 499.000
37.58000 489.000
37.59500 556.000
37.61000 542.000
37.62500 492.000
37.64000 502.000
37.65500 503.000
37.67000 470.000
37.68500 464.000
37.70000 489.000
37.71500 523.000
37.73000 477.000
37.74500 487.000
37.76000 499.000
37.77500 499.000
37.79000 504.000
37.80500 512.000
37.82000 469.000
37.83500 477.000
37.85000 496.000
37.86500 468.000
37.88000 425.000
37.89500 452.000
37.91000 475.000
37.92500 490.000
37.94000 471.000
37.95500 497.000
37.97000 460.000
37.98500 474.000
38.00000 500.000
38.01500 502.000
38.03000 463.000
38.04500 458.000
38.06000 478.000
38.07500 449.000
38.09000 445.000
38.10500 452.000
38.12000 465.000
38.13500 462.000
38.15000 451.000
38.16500 465.000
38.18000 459.000
38.19500 452.000
38.21000 466.000
38.22500 477.000
38.24000 497.000
38.25500 446.000
38.27000 422.000
38.28500 440.000
38.30000 455.000
38.31500 442.000
38.33000 458.000
38.34500 456.000
38.36000 450.000
38.37500 448.000
38.39000 468.000
38.40500 471.000
38.42000 460.000
38.43500 472.000
38.45000 479.000
38.46500 477.000
38.48000 440.000
38.49500 460.000
38.51000 473.000
38.52500 459.000
38.54000 438.000
38.55500 452.000
38.57000 472.000
38.58500 489.000
38.60000 480.000
38.61500 489.000
38.63000 462.000
38.64500 442.000
38.66000 469.000
38.67500 490.000
38.69000 462.000
38.70500 480.000
38.72000 442.000
38.73500 447.000
38.75000 453.000
38.76500 450.000
38.78000 443.000
38.79500 458.000
38.81000 455.000
38.82500 471.000
38.84000 445.000
38.85500 446.000
38.87000 423.000
38.88500 426.000
38.90000 452.000
38.91500 432.000
38.93000 474.000
38.94500 442.000
38.96000 437.000
38.97500 413.000
38.99000 437.000
39.00500 441.000
39.02000 439.000
39.03500 431.000
39.05000 419.000
39.06500 439.000
39.08000 428.000
39.09500 434.000
39.11000 425.000
39.12500 431.000
39.14000 377.000
39.15500 405.000
39.17000 390.000
39.18500 400.000
39.20000 387.000
39.21500 384.000
39.23000 409.000
39.24500 397.000
39.26000 396.000
39.27500 390.000
39.29000 395.000
39.30500 419.000
39.32000 372.000
39.33500 414.000
39.35000 368.000
39.36500 381.000
39.38000 380.000
39.39500 380.000
39.41000 366.000
39.42500 384.000
39.44000 417.000
39.45500 405.000
39.47000 411.000
39.48500 388.000
39.50000 363.000
39.51500 391.000
39.53000 385.000
39.54500 396.000
39.56000 382.000
39.57500 377.000
39.59000 395.000
39.60500 411.000
39.62000 394.000
39.63500 405.000
39.65000 391.000
39.66500 417.000
39.68000 395.000
39.69500 417.000
39.71000 421.000
39.72500 420.000
39.74000 425.000
39.75500 405.000
39.77000 423.000
39.78500 427.000
39.80000 394.000
39.81500 411.000
39.83000 407.000
39.84500 422.000
39.86000 450.000
39.87500 420.000
39.89000 399.000
39.90500 418.000
39.92000 413.000
39.93500 413.000
39.95000 387.000
39.96500 422.000
39.98000 421.000
39.99500 441.000
40.01000 454.000
40.02500 452.000
40.04000 411.000
40.05500 424.000
40.07000 458.000
40.08500 485.000
40.10000 430.000
40.11500 445.000
40.13000 458.000
40.14500 447.000
40.16000 431.000
40.17500 429.000
40.19000 442.000
40.20500 443.000
40.22000 435.000
40.23500 432.000
40.25000 423.000
40.26500 416.000
40.28000 405.000
40.29500 425.000
40.31000 429.000
40.32500 400.000
40.34000 437.000
40.35500 426.000
40.37000 424.000
40.38500 425.000
40.40000 432.000
40.41500 459.000
40.43000 434.000
40.44500 400.000
40.46000 393.000
40.47500 472.000
40.49000 454.000
40.50500 426.000
40.52000 399.000
40.53500 413.000
40.55000 390.000
40.56500 407.000
40.58000 418.000
40.59500 425.000
40.61000 439.000
40.62500 417.000
40.64000 389.000
40.65500 431.000
40.67000 432.000
40.68500 397.000
40.70000 413.000
40.71500 418.000
40.73000 389.000
40.74500 393.000
40.76000 402.000
40.77500 404.000
40.79000 410.000
40.80500 389.000
40.82000 387.000
40.83500 369.000
40.85000 374.000
40.86500 396.000
40.88000 380.000
40.89500 383.000
40.91000 372.000
40.92500 391.000
40.94000 388.000
40.95500 377.000
40.97000 393.000
40.98500 389.000
41.00000 400.000
41.01500 404.000
41.03000 382.000
41.04500 350.000
41.06000 371.000
41.07500 356.000
41.09000 387.000
41.10500 387.000
41.12000 372.000
41.13500 353.000
41.15000 361.000
41.16500 394.000
41.18000 381.000
41.19500 371.000
41.21000 383.000
41.22500 358.000
41.24000 398.000
41.25500 366.000
41.27000 372.000
41.28500 360.000
41.30000 351.000
41.31500 348.000
41.33000 338.000
41.34500 368.000
41.36000 376.000
41.37500 374.000
41.39000 375.000
41.40500 359.000
41.42000 367.000
41.43500 384.000
41.45000 381.000
41.46500 351.000
41.48000 340.000
41.49500 351.000
41.51000 352.000
41.52500 341.000
41.54000 363.000
41.55500 361.000
41.57000 375.000
41.58500 373.000
41.60000 363.000
41.61500 337.000
41.63000 352.000
41.64500 379.000
41.66000 365.000
41.67500 351.000
41.69000 358.000
41.70500 354.000
41.72000 340.000
41.73500 364.000
41.75000 356.000
41.76500 341.000
41.78000 360.000
41.79500 376.000
41.81000 366.000
41.82500 374.000
41.84000 373.000
41.85500 390.000
41.87000 372.000
41.88500 350.000
41.90000 365.000
41.91500 338.000
41.93000 369.000
41.94500 360.000
41.96000 333.000
41.97500 364.000
41.99000 365.000
42.00500 354.000
42.02000 368.000
42.03500 370.000
42.05000 342.000
42.06500 348.000
42.08000 350.000
42.09500 354.000
42.11000 371.000
42.12500 376.000
42.14000 362.000
42.15500 338.000
42.17000 332.000
42.18500 331.000
42.20000 327.000
42.21500 345.000
42.23000 341.000
42.24500 367.000
42.26000 343.000
42.27500 342.000
42.29000 322.000
42.30500 351.000
42.32000 367.000
42.33500 356.000
42.35000 354.000
42.36500 366.000
42.38000 367.000
42.39500 371.000
42.41000 394.000
42.42500 369.000
42.44000 349.000
42.45500 358.000
42.47000 376.000
42.48500 357.000
42.50000 368.000
42.51500 365.000
42.53000 357.000
42.54500 366.000
42.56000 363.000
42.57500 353.000
42.59000 349.000
42.60500 328.000
42.62000 369.000
42.63500 381.000
42.65000 374.000
42.66500 350.000
42.68000 348.000
42.69500 347.000
42.71000 394.000
42.72500 373.000
42.74000 361.000
42.75500 408.000
42.77000 406.000
42.78500 365.000
42.80000 361.000
42.81500 369.000
42.83000 369.000
42.84500 386.000
42.86000 367.000
42.87500 405.000
42.89000 411.000
42.90500 368.000
42.92000 398.000
42.93500 423.000
42.95000 379.000
42.96500 427.000
42.98000 430.000
42.99500 408.000
43.01000 421.000
43.02500 455.000
43.04000 457.000
43.05500 446.000
43.07000 444.000
43.08500 448.000
43.10000 453.000
43.11500 480.000
43.13000 481.000
43.14500 449.000
43.16000 512.000
43.17500 549.000
43.19000 553.000
43.20500 588.000
43.22000 614.000
43.23500 615.000
43.25000 618.000
43.26500 627.000
43.28000 624.000
43.29500 594.000
43.31000 586.000
43.32500 602.000
43.34000 606.000
43.35500 610.000
43.37000 553.000
43.38500 532.000
43.40000 507.000
43.41500 519.000
43.43000 496.000
43.44500 469.000
43.46000 491.000
43.47500 498.000
43.49000 486.000
43.50500 470.000
43.52000 443.000
43.53500 452.000
43.55000 426.000
43.56500 476.000
43.58000 459.000
43.59500 417.000
43.61000 415.000
43.62500 448.000
43.64000 436.000
43.65500 424.000
43.67000 392.000
43.68500 388.000
43.70000 417.000
43.71500 422.000
43.73000 415.000
43.74500 384.000
43.76000 381.000
43.77500 359.000
43.79000 381.000
43.80500 385.000
43.82000 385.000
43.83500 376.000
43.85000 364.000
43.86500 375.000
43.88000 359.000
43.89500 345.000
43.91000 352.000
43.92500 381.000
43.94000 386.000
43.95500 366.000
43.97000 385.000
43.98500 356.000
44.00000 378.000
44.01500 370.000
44.03000 364.000
44.04500 376.000
44.06000 391.000
44.07500 381.000
44.09000 338.000
44.10500 383.000
44.12000 401.000
44.13500 407.000
44.15000 426.000
44.16500 405.000
44.18000 393.000
44.19500 380.000
44.21000 399.000
44.22500 410.000
44.24000 428.000
44.25500 420.000
44.27000 420.000
44.28500 423.000
44.30000 461.000
44.31500 461.000
44.33000 477.000
44.34500 439.000
44.36000 439.000
44.37500 478.000
44.39000 476.000
44.40500 448.000
44.42000 467.000
44.43500 447.000
44.45000 463.000
44.46500 418.000
44.48000 432.000
44.49500 428.000
44.51000 444.000
44.52500 440.000
44.54000 455.000
44.55500 428.000
44.57000 412.000
44.58500 394.000
44.60000 415.000
44.61500 452.000
44.63000 430.000
44.64500 428.000
44.66000 399.000
44.67500 437.000
44.69000 425.000
44.70500 420.000
44.72000 413.000
44.73500 407.000
44.75000 403.000
44.76500 423.000
44.78000 406.000
44.79500 404.000
44.81000 394.000
44.82500 401.000
44.84000 397.000
44.85500 370.000
44.87000 400.000
44.88500 406.000
44.90000 408.000
44.91500 402.000
44.93000 371.000
44.94500 405.000
44.96000 425.000
44.97500 430.000
44.99000 413.000
45.00500 398.000
45.02000 397.000
45.03500 408.000
45.05000 377.000
45.06500 391.000
45.08000 396.000
45.09500 376.000
45.11000 384.000
45.12500 387.000
45.14000 380.000
45.15500 396.000
45.17000 439.000
45.18500 392.000
45.20000 388.000
45.21500 382.000
45.23000 413.000
45.24500 390.000
45.26000 394.000
45.27500 410.000
45.29000 396.000
45.30500 399.000
45.32000 379.000
45.33500 384.000
45.35000 385.000
45.36500 405.000
45.38000 386.000
45.39500 418.000
45.41000 397.000
45.42500 411.000
45.44000 423.000
45.45500 388.000
45.47000 377.000
45.48500 404.000
45.50000 392.000
45.51500 387.000
45.53000 383.000
45.54500 372.000
45.56000 372.000
45.57500 379.000
45.59000 374.000
45.60500 405.000
45.62000 385.000
45.63500 380.000
45.65000 387.000
45.66500 404.000
45.68000 412.000
45.69500 389.000
45.71000 399.000
45.72500 406.000
45.74000 389.000
45.75500 365.000
45.77000 380.000
45.78500 378.000
45.80000 368.000
45.81500 386.000
45.83000 362.000
45.84500 351.000
45.86000 366.000
45.87500 371.000
45.89000 384.000
45.90500 387.000
45.92000 376.000
45.93500 387.000
45.95000 373.000
45.96500 329.000
45.98000 354.000
45.99500 398.000
46.01000 408.000
46.02500 381.000
46.04000 367.000
46.05500 373.000
46.07000 376.000
46.08500 388.000
46.10000 381.000
46.11500 394.000
46.13000 395.000
46.14500 394.000
46.16000 384.000
46.17500 370.000
46.19000 388.000
46.20500 398.000
46.22000 380.000
46.23500 396.000
46.25000 386.000
46.26500 407.000
46.28000 392.000
46.29500 407.000
46.31000 382.000
46.32500 377.000
46.34000 357.000
46.35500 359.000
46.37000 370.000
46.38500 355.000
46.40000 377.000
46.41500 371.000
46.43000 373.000
46.44500 370.000
46.46000 375.000
46.47500 373.000
46.49000 350.000
46.50500 343.000
46.52000 343.000
46.53500 322.000
46.55000 340.000
46.56500 347.000
46.58000 360.000
46.59500 346.000
46.61000 379.000
46.62500 375.000
46.64000 323.000
46.65500 347.000
46.67000 334.000
46.68500 312.000
46.70000 368.000
46.71500 395.000
46.73000 340.000
46.74500 339.000
46.76000 328.000
46.77500 336.000
46.79000 342.000
46.80500 367.000
46.82000 342.000
46.83500 339.000
46.85000 359.000
46.86500 348.000
46.88000 340.000
46.89500 337.000
46.91000 343.000
46.92500 338.000
46.94000 351.000
46.95500 328.000
46.97000 331.000
46.98500 346.000
47.00000 355.000
47.01500 344.000
47.03000 363.000
47.04500 352.000
47.06000 338.000
47.07500 356.000
47.09000 343.000
47.10500 320.000
47.12000 341.000
47.13500 352.000
47.15000 346.000
47.16500 304.000
47.18000 304.000
47.19500 341.000
47.21000 325.000
47.22500 328.000
47.24000 319.000
47.25500 293.000
47.27000 321.000
47.28500 309.000
47.30000 299.000
47.31500 323.000
47.33000 328.000
47.34500 283.000
47.36000 290.000
47.37500 309.000
47.39000 318.000
47.40500 315.000
47.42000 309.000
47.43500 307.000
47.45000 281.000
47.46500 301.000
47.48000 298.000
47.49500 326.000
47.51000 283.000
47.52500 294.000
47.54000 291.000
47.55500 280.000
47.57000 283.000
47.58500 307.000
47.60000 279.000
47.61500 278.000
47.63000 306.000
47.64500 300.000
47.66000 296.000
47.67500 313.000
47.69000 302.000
47.70500 282.000
47.72000 316.000
47.73500 295.000
47.75000 281.000
47.76500 277.000
47.78000 301.000
47.79500 321.000
47.81000 296.000
47.82500 290.000
47.84000 300.000
47.85500 292.000
47.87000 268.000
47.88500 291.000
47.90000 281.000
47.91500 271.000
47.93000 286.000
47.94500 284.000
47.96000 277.000
47.97500 311.000
47.99000 325.000
48.00500 285.000
48.02000 296.000
48.03500 303.000
48.05000 286.000
48.06500 281.000
48.08000 309.000
48.09500 287.000
48.11000 290.000
48.12500 289.000
48.14000 267.000
48.15500 285.000
48.17000 296.000
48.18500 251.000
48.20000 266.000
48.21500 265.000
48.23000 289.000
48.24500 259.000
48.26000 261.000
48.27500 255.000
48.29000 274.000
48.30500 291.000
48.32000 288.000
48.33500 299.000
48.35000 307.000
48.36500 276.000
48.38000 290.000
48.39500 302.000
48.41000 294.000
48.42500 274.000
48.44000 284.000
48.45500 289.000
48.47000 270.000
48.48500 264.000
48.50000 265.000
48.51500 268.000
48.53000 275.000
48.54500 268.000
48.56000 274.000
48.57500 273.000
48.59000 275.000
48.60500 271.000
48.62000 264.000
48.63500 273.000
48.65000 258.000
48.66500 269.000
48.68000 274.000
48.69500 256.000
48.71000 264.000
48.72500 253.000
48.74000 246.000
48.75500 259.000
48.77000 261.000
48.78500 290.000
48.80000 281.000
48.81500 282.000
48.83000 265.000
48.84500 287.000
48.86000 273.000
48.87500 278.000
48.89000 293.000
48.90500 292.000
48.92000 262.000
48.93500 264.000
48.95000 256.000
48.96500 271.000
48.98000 302.000
48.99500 253.000
49.01000 262.000
49.02500 272.000
49.04000 262.000
49.05500 270.000
49.07000 270.000
49.08500 255.000
49.10000 261.000
49.11500 268.000
49.13000 282.000
49.14500 280.000
49.16000 292.000
49.17500 283.000
49.19000 282.000
49.20500 260.000
49.22000 262.000
49.23500 251.000
49.25000 279.000
49.26500 287.000
49.28000 260.000
49.29500 262.000
49.31000 279.000
49.32500 286.000
49.34000 272.000
49.35500 272.000
49.37000 277.000
49.38500 265.000
49.40000 259.000
49.41500 272.000
49.43000 270.000
49.44500 260.000
49.46000 273.000
49.47500 255.000
49.49000 286.000
49.50500 285.000
49.52000 281.000
49.53500 283.000
49.55000 292.000
49.56500 261.000
49.58000 247.000
49.59500 254.000
49.61000 268.000
49.62500 273.000
49.64000 275.000
49.65500 276.000
49.67000 270.000
49.68500 252.000
49.70000 273.000
49.71500 304.000
49.73000 261.000
49.74500 262.000
49.76000 277.000
49.77500 292.000
49.79000 273.000
49.80500 238.000
49.82000 251.000
49.83500 262.000
49.85000 260.000
49.86500 243.000
49.88000 270.000
49.89500 299.000
49.91000 269.000
49.92500 255.000
49.94000 298.000
49.95500 280.000
49.97000 275.000
49.98500 300.000
50.00000 271.000
50.01500 291.000
50.03000 315.000
50.04500 316.000
50.06000 298.000
50.07500 304.000
50.09000 286.000
50.10500 294.000
50.12000 308.000
50.13500 325.000
50.15000 317.000
50.16500 332.000
50.18000 321.000
50.19500 322.000
50.21000 299.000
50.22500 318.000
50.24000 294.000
50.25500 314.000
50.27000 298.000
50.28500 299.000
50.30000 282.000
50.31500 286.000
50.33000 270.000
50.34500 307.000
50.36000 284.000
50.37500 284.000
50.39000 267.000
50.40500 290.000
50.42000 279.000
50.43500 281.000
50.45000 251.000
50.46500 247.000
50.48000 277.000
50.49500 297.000
50.51000 300.000
50.52500 289.000
50.54000 291.000
50.55500 274.000
50.57000 290.000
50.58500 324.000
50.60000 305.000
50.61500 285.000
50.63000 267.000
50.64500 293.000
50.66000 293.000
50.67500 277.000
50.69000 276.000
50.70500 303.000
50.72000 289.000
50.73500 300.000
50.75000 301.000
50.76500 291.000
50.78000 275.000
50.79500 289.000
50.81000 285.000
50.82500 257.000
50.84000 278.000
50.85500 310.000
50.87000 290.000
50.88500 310.000
50.90000 298.000
50.91500 294.000
50.93000 267.000
50.94500 280.000
50.96000 286.000
50.97500 285.000
50.99000 305.000
51.00500 292.000
51.02000 291.000
51.03500 305.000
51.05000 284.000
51.06500 283.000
51.08000 286.000
51.09500 309.000
51.11000 280.000
51.12500 281.000
51.14000 292.000
51.15500 284.000
51.17000 287.000
51.18500 264.000
51.20000 273.000
51.21500 307.000
51.23000 300.000
51.24500 287.000
51.26000 252.000
51.27500 294.000
51.29000 277.000
51.30500 279.000
51.32000 306.000
51.33500 305.000
51.35000 270.000
51.36500 290.000
51.38000 289.000
51.39500 262.000
51.41000 288.000
51.42500 292.000
51.44000 302.000
51.45500 289.000
51.47000 316.000
51.48500 307.000
51.50000 319.000
51.51500 308.000
51.53000 286.000
51.54500 295.000
51.56000 308.000
51.57500 288.000
51.59000 285.000
51.60500 275.000
51.62000 298.000
51.63500 323.000
51.65000 293.000
51.66500 299.000
51.68000 284.000
51.69500 268.000
51.71000 279.000
51.72500 315.000
51.74000 277.000
51.75500 281.000
51.77000 288.000
51.78500 274.000
51.80000 256.000
51.81500 270.000
51.83000 270.000
51.84500 293.000
51.86000 275.000
51.87500 279.000
51.89000 272.000
51.90500 245.000
51.92000 241.000
51.93500 244.000
51.95000 263.000
51.96500 282.000
51.98000 267.000
51.99500 265.000
52.01000 258.000
52.02500 242.000
52.04000 260.000
52.05500 267.000
52.07000 278.000
52.08500 289.000
52.10000 290.000
52.11500 322.000
52.13000 272.000
52.14500 281.000
52.16000 285.000
52.17500 273.000
52.19000 270.000
52.20500 258.000
52.22000 277.000
52.23500 284.000
52.25000 271.000
52.26500 256.000
52.28000 245.000
52.29500 273.000
52.31000 260.000
52.32500 287.000
52.34000 290.000
52.35500 276.000
52.37000 266.000
52.38500 275.000
52.40000 277.000
52.41500 266.000
52.43000 273.000
52.44500 283.000
52.46000 292.000
52.47500 293.000
52.49000 286.000
52.50500 299.000
52.52000 285.000
52.53500 289.000
52.55000 277.000
52.56500 256.000
52.58000 261.000
52.59500 267.000
52.61000 283.000
52.62500 272.000
52.64000 289.000
52.65500 305.000
52.67000 273.000
52.68500 287.000
52.70000 280.000
52.71500 271.000
52.73000 247.000
52.74500 264.000
52.76000 282.000
52.77500 302.000
52.79000 286.000
52.80500 305.000
52.82000 324.000
52.83500 270.000
52.85000 290.000
52.86500 272.000
52.88000 288.000
52.89500 279.000
52.91000 286.000
52.92500 302.000
52.94000 286.000
52.95500 303.000
52.97000 307.000
52.98500 273.000
53.00000 294.000
53.01500 297.000
53.03000 302.000
53.04500 321.000
53.06000 308.000
53.07500 306.000
53.09000 295.000
53.10500 284.000
53.12000 275.000
53.13500 267.000
53.15000 279.000
53.16500 289.000
53.18000 283.000
53.19500 265.000
53.21000 272.000
53.22500 279.000
53.24000 288.000
53.25500 286.000
53.27000 282.000
53.28500 306.000
53.30000 285.000
53.31500 278.000
53.33000 268.000
53.34500 251.000
53.36000 255.000
53.37500 274.000
53.39000 284.000
53.40500 291.000
53.42000 272.000
53.43500 261.000
53.45000 248.000
53.46500 264.000
53.48000 260.000
53.49500 284.000
53.51000 281.000
53.52500 259.000
53.54000 236.000
53.55500 263.000
53.57000 294.000
53.58500 257.000
53.60000 281.000
53.61500 275.000
53.63000 282.000
53.64500 290.000
53.66000 261.000
53.67500 280.000
53.69000 272.000
53.70500 278.000
53.72000 280.000
53.73500 260.000
53.75000 249.000
53.76500 260.000
53.78000 253.000
53.79500 253.000
53.81000 275.000
53.82500 283.000
53.84000 278.000
53.85500 274.000
53.87000 288.000
53.88500 284.000
53.90000 253.000
53.91500 276.000
53.93000 262.000
53.94500 267.000
53.96000 262.000
53.97500 267.000
53.99000 261.000
54.00500 247.000
54.02000 278.000
54.03500 274.000
54.05000 272.000
54.06500 278.000
54.08000 258.000
54.09500 263.000
54.11000 276.000
54.12500 269.000
54.14000 279.000
54.15500 255.000
54.17000 251.000
54.18500 262.000
54.20000 286.000
54.21500 289.000
54.23000 264.000
54.24500 269.000
54.26000 281.000
54.27500 265.000
54.29000 264.000
54.30500 260.000
54.32000 283.000
54.33500 286.000
54.35000 283.000
54.36500 258.000
54.38000 269.000
54.39500 272.000
54.41000 265.000
54.42500 254.000
54.44000 277.000
54.45500 277.000
54.47000 280.000
54.48500 264.000
54.50000 263.000
54.51500 262.000
54.53000 284.000
54.54500 287.000
54.56000 249.000
54.57500 240.000
54.59000 271.000
54.60500 232.000
54.62000 278.000
54.63500 279.000
54.65000 269.000
54.66500 263.000
54.68000 265.000
54.69500 281.000
54.71000 260.000
54.72500 246.000
54.74000 257.000
54.75500 253.000
54.77000 264.000
54.78500 236.000
54.80000 236.000
54.81500 250.000
54.83000 247.000
54.84500 246.000
54.86000 259.000
54.87500 253.000
54.89000 255.000
54.90500 242.000
54.92000 243.000
54.93500 232.000
54.95000 241.000
54.96500 266.000
54.98000 257.000
54.99500 265.000
55.01000 244.000
55.02500 237.000
55.04000 244.000
55.05500 235.000
55.07000 240.000
55.08500 248.000
55.10000 244.000
55.11500 259.000
55.13000 263.000
55.14500 272.000
55.16000 250.000
55.17500 230.000
55.19000 255.000
55.20500 276.000
55.22000 246.000
55.23500 269.000
55.25000 247.000
55.26500 236.000
55.28000 241.000
55.29500 240.000
55.31000 239.000
55.32500 256.000
55.34000 235.000
55.35500 243.000
55.37000 259.000
55.38500 252.000
55.40000 264.000
55.41500 252.000
55.43000 248.000
55.44500 224.000
55.46000 246.000
55.47500 251.000
55.49000 264.000
55.50500 268.000
55.52000 276.000
55.53500 263.000
55.55000 233.000
55.56500 234.000
55.58000 244.000
55.59500 253.000
55.61000 246.000
55.62500 265.000
55.64000 232.000
55.65500 243.000
55.67000 236.000
55.68500 234.000
55.70000 229.000
55.71500 248.000
55.73000 237.000
55.74500 242.000
55.76000 263.000
55.77500 258.000
55.79000 263.000
55.80500 254.000
55.82000 273.000
55.83500 250.000
55.85000 256.000
55.86500 235.000
55.88000 240.000
55.89500 214.000
55.91000 234.000
55.92500 271.000
55.94000 274.000
55.95500 258.000
55.97000 235.000
55.98500 244.000
56.00000 244.000
56.01500 253.000
56.03000 242.000
56.04500 237.000
56.06000 247.000
56.07500 247.000
56.09000 235.000
56.10500 228.000
56.12000 250.000
56.13500 248.000
56.15000 273.000
56.16500 281.000
56.18000 247.000
56.19500 245.000
56.21000 222.000
56.22500 250.000
56.24000 240.000
56.25500 239.000
56.27000 247.000
56.28500 249.000
56.30000 251.000
56.31500 257.000
56.33000 262.000
56.34500 255.000
56.36000 252.000
56.37500 266.000
56.39000 247.000
56.40500 244.000
56.42000 250.000
56.43500 255.000
56.45000 252.000
56.46500 252.000
56.48000 240.000
56.49500 244.000
56.51000 265.000
56.52500 242.000
56.54000 245.000
56.55500 243.000
56.57000 262.000
56.58500 270.000
56.60000 241.000
56.61500 250.000
56.63000 260.000
56.64500 234.000
56.66000 227.000
56.67500 272.000
56.69000 268.000
56.70500 261.000
56.72000 253.000
56.73500 259.000
56.75000 268.000
56.76500 245.000
56.78000 247.000
56.79500 243.000
56.81000 244.000
56.82500 278.000
56.84000 291.000
56.85500 271.000
56.87000 250.000
56.88500 253.000
56.90000 248.000
56.91500 253.000
56.93000 285.000
56.94500 285.000
56.96000 274.000
56.97500 285.000
56.99000 264.000
57.00500 274.000
57.02000 261.000
57.03500 261.000
57.05000 268.000
57.06500 262.000
57.08000 282.000
57.09500 283.000
57.11000 270.000
57.12500 278.000
57.14000 293.000
57.15500 271.000
57.17000 284.000
57.18500 278.000
57.20000 281.000
57.21500 290.000
57.23000 295.000
57.24500 326.000
57.26000 297.000
57.27500 307.000
57.29000 270.000
57.30500 289.000
57.32000 308.000
57.33500 299.000
57.35000 304.000
57.36500 306.000
57.38000 315.000
57.39500 307.000
57.41000 272.000
57.42500 281.000
57.44000 294.000
57.45500 261.000
57.47000 275.000
57.48500 287.000
57.50000 313.000
57.51500 287.000
57.53000 312.000
57.54500 311.000
57.56000 310.000
57.57500 274.000
57.59000 261.000
57.60500 290.000
57.62000 296.000
57.63500 290.000
57.65000 287.000
57.66500 282.000
57.68000 291.000
57.69500 301.000
57.71000 292.000
57.72500 276.000
57.74000 279.000
57.75500 291.000
57.77000 282.000
57.78500 287.000
57.80000 275.000
57.81500 291.000
57.83000 295.000
57.84500 264.000
57.86000 291.000
57.87500 303.000
57.89000 267.000
57.90500 278.000
57.92000 289.000
57.93500 280.000
57.95000 282.000
57.96500 266.000
57.98000 268.000
57.99500 278.000
58.01000 289.000
58.02500 277.000
58.04000 286.000
58.05500 269.000
58.07000 276.000
58.08500 301.000
58.10000 269.000
58.11500 275.000
58.13000 252.000
58.14500 254.000
58.16000 259.000
58.17500 290.000
58.19000 294.000
58.20500 275.000
58.22000 269.000
58.23500 299.000
58.25000 282.000
58.26500 298.000
58.28000 275.000
58.29500 273.000
58.31000 266.000
58.32500 279.000
58.34000 284.000
58.35500 281.000
58.37000 254.000
58.38500 263.000
58.40000 251.000
58.41500 255.000
58.43000 275.000
58.44500 260.000
58.46000 256.000
58.47500 277.000
58.49000 271.000
58.50500 262.000
58.52000 268.000
58.53500 262.000
58.55000 267.000
58.56500 280.000
58.58000 244.000
58.59500 247.000
58.61000 277.000
58.62500 277.000
58.64000 267.000
58.65500 264.000
58.67000 256.000
58.68500 251.000
58.70000 266.000
58.71500 258.000
58.73000 249.000
58.74500 244.000
58.76000 260.000
58.77500 260.000
58.79000 255.000
58.80500 263.000
58.82000 251.000
58.83500 241.000
58.85000 256.000
58.86500 266.000
58.88000 248.000
58.89500 261.000
58.91000 248.000
58.92500 252.000
58.94000 257.000
58.95500 253.000
58.97000 266.000
58.98500 244.000
59.00000 251.000
59.01500 246.000
59.03000 254.000
59.04500 244.000
59.06000 247.000
59.07500 258.000
59.09000 243.000
59.10500 242.000
59.12000 235.000
59.13500 257.000
59.15000 258.000
59.16500 259.000
59.18000 229.000
59.19500 240.000
59.21000 242.000
59.22500 248.000
59.24000 270.000
59.25500 268.000
59.27000 258.000
59.28500 249.000
59.30000 274.000
59.31500 248.000
59.33000 245.000
59.34500 239.000
59.36000 256.000
59.37500 256.000
59.39000 236.000
59.40500 246.000
59.42000 237.000
59.43500 252.000
59.45000 250.000
59.46500 249.000
59.48000 252.000
59.49500 240.000
59.51000 253.000
59.52500 238.000
59.54000 255.000
59.55500 247.000
59.57000 234.000
59.58500 251.000
59.60000 259.000
59.61500 236.000
59.63000 220.000
59.64500 231.000
59.66000 240.000
59.67500 243.000
59.69000 235.000
59.70500 238.000
59.72000 247.000
59.73500 247.000
59.75000 253.000
59.76500 248.000
59.78000 238.000
59.79500 244.000
59.81000 232.000
59.82500 255.000
59.84000 247.000
59.85500 255.000
59.87000 226.000
59.88500 245.000
59.90000 255.000
59.91500 235.000
59.93000 236.000
59.94500 216.000
59.96000 234.000
59.97500 259.000
59.99000 235.000
60.00500 255.000
60.02000 243.000
60.03500 229.000
60.05000 241.000
60.06500 237.000
60.08000 242.000
60.09500 242.000
60.11000 225.000
60.12500 221.000
60.14000 221.000
60.15500 242.000
60.17000 240.000
60.18500 245.000
60.20000 230.000
60.21500 228.000
60.23000 259.000
60.24500 233.000
60.26000 232.000
60.27500 224.000
60.29000 232.000
60.30500 210.000
60.32000 246.000
60.33500 258.000
60.35000 236.000
60.36500 233.000
60.38000 232.000
60.39500 223.000
60.41000 225.000
60.42500 233.000
60.44000 237.000
60.45500 238.000
60.47000 257.000
60.48500 253.000
60.50000 250.000
60.51500 250.000
60.53000 227.000
60.54500 231.000
60.56000 221.000
60.57500 242.000
60.59000 253.000
60.60500 239.000
60.62000 246.000
60.63500 239.000
60.65000 250.000
60.66500 270.000
60.68000 260.000
60.69500 249.000
60.71000 237.000
60.72500 234.000
60.74000 232.000
60.75500 232.000
60.77000 237.000
60.78500 237.000
60.80000 240.000
60.81500 225.000
60.83000 234.000
60.84500 250.000
60.86000 226.000
60.87500 236.000
60.89000 254.000
60.90500 265.000
60.92000 243.000
60.93500 253.000
60.95000 238.000
60.96500 220.000
60.98000 233.000
60.99500 252.000
61.01000 230.000
61.02500 234.000
61.04000 228.000
61.05500 238.000
61.07000 216.000
61.08500 257.000
61.10000 226.000
61.11500 223.000
61.13000 237.000
61.14500 241.000
61.16000 239.000
61.17500 234.000
61.19000 243.000
61.20500 236.000
61.22000 242.000
61.23500 231.000
61.25000 229.000
61.26500 251.000
61.28000 242.000
61.29500 240.000
61.31000 242.000
61.32500 240.000
61.34000 225.000
61.35500 215.000
61.37000 238.000
61.38500 226.000
61.40000 230.000
61.41500 220.000
61.43000 220.000
61.44500 231.000
61.46000 216.000
61.47500 217.000
61.49000 244.000
61.50500 228.000
61.52000 236.000
61.53500 219.000
61.55000 222.000
61.56500 231.000
61.58000 212.000
61.59500 215.000
61.61000 209.000
61.62500 230.000
61.64000 232.000
61.65500 239.000
61.67000 214.000
61.68500 220.000
61.70000 221.000
61.71500 255.000
61.73000 227.000
61.74500 220.000
61.76000 247.000
61.77500 219.000
61.79000 219.000
61.80500 223.000
61.82000 214.000
61.83500 214.000
61.85000 216.000
61.86500 203.000
61.88000 220.000
61.89500 226.000
61.91000 233.000
61.92500 222.000
61.94000 239.000
61.95500 200.000
61.97000 209.000
61.98500 229.000
