2.00000 5.000
2.01500 5.000
2.03000 4.000
2.04500 2.000
2.06000 1.000
2.07500 3.000
2.09000 2.000
2.10500 4.000
2.12000 6.000
2.13500 4.000
2.15000 6.000
2.16500 4.000
2.18000 4.000
2.19500 4.000
2.21000 5.000
2.22500 4.000
2.24000 4.000
2.25500 5.000
2.27000 6.000
2.28500 7.000
2.30000 6.000
2.31500 6.000
2.33000 4.000
2.34500 8.000
2.36000 8.000
2.37500 5.000
2.39000 4.000
2.40500 6.000
2.42000 1.000
2.43500 6.000
2.45000 4.000
2.46500 5.000
2.48000 5.000
2.49500 4.000
2.51000 6.000
2.52500 4.000
2.54000 2.000
2.55500 5.000
2.57000 5.000
2.58500 4.000
2.60000 5.000
2.61500 5.000
2.63000 2.000
2.64500 5.000
2.66000 6.000
2.67500 5.000
2.69000 8.000
2.70500 9.000
2.72000 13.000
2.73500 24.000
2.75000 22.000
2.76500 31.000
2.78000 37.000
2.79500 62.000
2.81000 71.000
2.82500 92.000
2.84000 114.000
2.85500 137.000
2.87000 166.000
2.88500 217.000
2.90000 222.000
2.91500 257.000
2.93000 262.000
2.94500 265.000
2.96000 257.000
2.97500 253.000
2.99000 262.000
3.00500 250.000
3.02000 266.000
3.03500 247.000
3.05000 256.000
3.06500 262.000
3.08000 267.000
3.09500 268.000
3.11000 274.000
3.12500 273.000
3.14000 260.000
3.15500 264.000
3.17000 281.000
3.18500 313.000
3.20000 281.000
3.21500 263.000
3.23000 262.000
3.24500 302.000
3.26000 299.000
3.27500 261.000
3.29000 279.000
3.30500 289.000
3.32000 269.000
3.33500 295.000
3.35000 272.000
3.36500 278.000
3.38000 271.000
3.39500 264.000
3.41000 292.000
3.42500 288.000
3.44000 293.000
3.45500 309.000
3.47000 294.000
3.48500 308.000
3.50000 325.000
3.51500 267.000
3.53000 290.000
3.54500 298.000
3.56000 274.000
3.57500 291.000
3.59000 299.000
3.60500 282.000
3.62000 307.000
3.63500 323.000
3.65000 312.000
3.66500 299.000
3.68000 304.000
3.69500 308.000
3.71000 309.000
3.72500 317.000
3.74000 316.000
3.75500 349.000
3.77000 306.000
3.78500 314.000
3.80000 300.000
3.81500 290.000
3.83000 316.000
3.84500 315.000
3.86000 327.000
3.87500 312.000
3.89000 311.000
3.90500 309.000
3.92000 316.000
3.93500 325.000
3.95000 338.000
3.96500 303.000
3.98000 325.000
3.99500 346.000
4.01000 326.000
4.02500 301.000
4.04000 326.000
4.05500 322.000
4.07000 346.000
4.08500 340.000
4.10000 340.000
4.11500 341.000
4.13000 327.000
4.14500 351.000
4.16000 351.000
4.17500 345.000
4.19000 322.000
4.20500 346.000
4.22000 351.000
4.23500 354.000
4.25000 320.000
4.26500 337.000
4.28000 354.000
4.29500 329.000
4.31000 342.000
4.32500 371.000
4.34000 380.000
4.35500 368.000
4.37000 325.000
4.38500 338.000
4.40000 358.000
4.41500 325.000
4.43000 366.000
4.44500 356.000
4.46000 359.000
4.47500 357.000
4.49000 385.000
4.50500 355.000
4.52000 342.000
4.53500 367.000
4.55000 358.000
4.56500 357.000
4.58000 334.000
4.59500 356.000
4.61000 355.000
4.62500 354.000
4.64000 333.000
4.65500 371.000
4.67000 372.000
4.68500 349.000
4.70000 346.000
4.71500 377.000
4.73000 352.000
4.74500 373.000
4.76000 375.000
4.77500 368.000
4.79000 375.000
4.80500 377.000
4.82000 399.000
4.83500 392.000
4.85000 396.000
4.86500 372.000
4.88000 360.000
4.89500 367.000
4.91000 349.000
4.92500 360.000
4.94000 355.000
4.95500 367.000
4.97000 338.000
4.98500 381.000
5.00000 385.000
5.01500 390.000
5.03000 379.000
5.04500 379.000
5.06000 381.000
5.07500 355.000
5.09000 354.000
5.10500 356.000
5.12000 385.000
5.13500 412.000
5.15000 400.000
5.16500 402.000
5.18000 383.000
5.19500 401.000
5.21000 413.000
5.22500 406.000
5.24000 373.000
5.25500 396.000
5.27000 392.000
5.28500 379.000
5.30000 364.000
5.31500 407.000
5.33000 360.000
5.34500 379.000
5.36000 395.000
5.37500 397.000
5.39000 419.000
5.40500 394.000
5.42000 396.000
5.43500 382.000
5.45000 386.000
5.46500 394.000
5.48000 402.000
5.49500 394.000
5.51000 385.000
5.52500 398.000
5.54000 387.000
5.55500 422.000
5.57000 404.000
5.58500 396.000
5.60000 425.000
5.61500 412.000
5.63000 378.000
5.64500 376.000
5.66000 424.000
5.67500 425.000
5.69000 402.000
5.70500 437.000
5.72000 422.000
5.73500 402.000
5.75000 433.000
5.76500 428.000
5.78000 430.000
5.79500 435.000
5.81000 409.000
5.82500 405.000
5.84000 420.000
5.85500 401.000
5.87000 405.000
5.88500 427.000
5.90000 407.000
5.91500 388.000
5.93000 448.000
5.94500 417.000
5.96000 437.000
5.97500 421.000
5.99000 410.000
6.00500 423.000
6.02000 428.000
6.03500 415.000
6.05000 401.000
6.06500 387.000
6.08000 411.000
6.09500 439.000
6.11000 432.000
6.12500 425.000
6.14000 421.000
6.15500 416.000
6.17000 438.000
6.18500 411.000
6.20000 405.000
6.21500 405.000
6.23000 447.000
6.24500 422.000
6.26000 385.000
6.27500 404.000
6.29000 429.000
6.30500 424.000
6.32000 440.000
6.33500 434.000
6.35000 443.000
6.36500 435.000
6.38000 420.000
6.39500 456.000
6.41000 420.000
6.42500 430.000
6.44000 444.000
6.45500 420.000
6.47000 420.000
6.48500 454.000
6.50000 416.000
6.51500 436.000
6.53000 443.000
6.54500 433.000
6.56000 431.000
6.57500 457.000
6.59000 437.000
6.60500 429.000
6.62000 423.000
6.63500 431.000
6.65000 441.000
6.66500 486.000
6.68000 456.000
6.69500 431.000
6.71000 419.000
6.72500 468.000
6.74000 428.000
6.75500 466.000
6.77000 444.000
6.78500 452.000
6.80000 433.000
6.81500 432.000
6.83000 467.000
6.84500 451.000
6.86000 450.000
6.87500 458.000
6.89000 476.000
6.90500 453.000
6.92000 438.000
6.93500 444.000
6.95000 437.000
6.96500 453.000
6.98000 461.000
6.99500 494.000
7.01000 458.000
7.02500 443.000
7.04000 424.000
7.05500 442.000
7.07000 432.000
7.08500 440.000
7.10000 457.000
7.11500 495.000
7.13000 453.000
7.14500 475.000
7.16000 477.000
7.17500 462.000
7.19000 424.000
7.20500 447.000
7.22000 469.000
7.23500 438.000
7.25000 474.000
7.26500 460.000
7.28000 471.000
7.29500 468.000
7.31000 478.000
7.32500 460.000
7.34000 479.000
7.35500 490.000
7.37000 465.000
7.38500 451.000
7.40000 460.000
7.41500 449.000
7.43000 484.000
7.44500 471.000
7.46000 479.000
7.47500 473.000
7.49000 481.000
7.50500 482.000
7.52000 453.000
7.53500 489.000
7.55000 525.000
7.56500 506.000
7.58000 520.000
7.59500 509.000
7.61000 501.000
7.62500 548.000
7.64000 564.000
7.65500 600.000
7.67000 557.000
7.68500 591.000
7.70000 624.000
7.71500 662.000
7.73000 633.000
7.74500 705.000
7.76000 776.000
7.77500 754.000
7.79000 738.000
7.80500 880.000
7.82000 909.000
7.83500 999.000
7.85000 1044.000
7.86500 1072.000
7.88000 1172.000
7.89500 1302.000
7.91000 1463.000
7.92500 1647.000
7.94000 1760.000
7.95500 1859.000
7.97000 1977.000
7.98500 1801.000
8.00000 1428.000
8.01500 1212.000
8.03000 1001.000
8.04500 936.000
8.06000 886.000
8.07500 815.000
8.09000 766.000
8.10500 751.000
8.12000 679.000
8.13500 644.000
8.15000 633.000
8.16500 641.000
8.18000 663.000
8.19500 653.000
8.21000 593.000
8.22500 626.000
8.24000 606.000
8.25500 604.000
8.27000 610.000
8.28500 583.000
8.30000 576.000
8.31500 557.000
8.33000 564.000
8.34500 553.000
8.36000 556.000
8.37500 530.000
8.39000 579.000
8.40500 575.000
8.42000 543.000
8.43500 559.000
8.45000 563.000
8.46500 520.000
8.48000 547.000
8.49500 542.000
8.51000 544.000
8.52500 546.000
8.54000 554.000
8.55500 548.000
8.57000 541.000
8.58500 524.000
8.60000 532.000
8.61500 530.000
8.63000 531.000
8.64500 532.000
8.66000 554.000
8.67500 542.000
8.69000 512.000
8.70500 517.000
8.72000 569.000
8.73500 508.000
8.75000 547.000
8.76500 533.000
8.78000 557.000
8.79500 567.000
8.81000 519.000
8.82500 540.000
8.84000 512.000
8.85500 518.000
8.87000 521.000
8.88500 540.000
8.90000 528.000
8.91500 507.000
8.93000 532.000
8.94500 509.000
8.96000 519.000
8.97500 533.000
8.99000 527.000
9.00500 541.000
9.02000 544.000
9.03500 524.000
9.05000 557.000
9.06500 533.000
9.08000 545.000
9.09500 524.000
9.11000 512.000
9.12500 532.000
9.14000 534.000
9.15500 554.000
9.17000 532.000
9.18500 523.000
9.20000 521.000
9.21500 537.000
9.23000 534.000
9.24500 545.000
9.26000 559.000
9.27500 568.000
9.29000 548.000
9.30500 533.000
9.32000 537.000
9.33500 535.000
9.35000 557.000
9.36500 580.000
9.38000 551.000
9.39500 539.000
9.41000 547.000
9.42500 531.000
9.44000 543.000
9.45500 550.000
9.47000 543.000
9.48500 528.000
9.50000 569.000
9.51500 554.000
9.53000 564.000
9.54500 558.000
9.56000 580.000
9.57500 549.000
9.59000 554.000
9.60500 520.000
9.62000 592.000
9.63500 564.000
9.65000 572.000
9.66500 587.000
9.68000 565.000
9.69500 550.000
9.71000 533.000
9.72500 565.000
9.74000 613.000
9.75500 622.000
9.77000 594.000
9.78500 599.000
9.80000 618.000
9.81500 595.000
9.83000 670.000
9.84500 663.000
9.86000 642.000
9.87500 680.000
9.89000 696.000
9.90500 705.000
9.92000 731.000
9.93500 725.000
9.95000 802.000
9.96500 807.000
9.98000 813.000
9.99500 824.000
10.01000 885.000
10.02500 920.000
10.04000 977.000
10.05500 961.000
10.07000 997.000
10.08500 1046.000
10.10000 954.000
10.11500 952.000
10.13000 930.000
10.14500 944.000
10.16000 934.000
10.17500 858.000
10.19000 798.000
10.20500 771.000
10.22000 780.000
10.23500 736.000
10.25000 691.000
10.26500 671.000
10.28000 623.000
10.29500 641.000
10.31000 630.000
10.32500 609.000
10.34000 576.000
10.35500 604.000
10.37000 578.000
10.38500 575.000
10.40000 574.000
10.41500 577.000
10.43000 559.000
10.44500 585.000
10.46000 561.000
10.47500 565.000
10.49000 554.000
10.50500 560.000
10.52000 538.000
10.53500 528.000
10.55000 522.000
10.56500 500.000
10.58000 466.000
10.59500 525.000
10.61000 512.000
10.62500 503.000
10.64000 502.000
10.65500 530.000
10.67000 510.000
10.68500 525.000
10.70000 498.000
10.71500 519.000
10.73000 531.000
10.74500 500.000
10.76000 545.000
10.77500 528.000
10.79000 478.000
10.80500 503.000
10.82000 503.000
10.83500 520.000
10.85000 483.000
10.86500 477.000
10.88000 537.000
10.89500 520.000
10.91000 503.000
10.92500 527.000
10.94000 495.000
10.95500 510.000
10.97000 516.000
10.98500 530.000
11.00000 491.000
11.01500 486.000
11.03000 502.000
11.04500 513.000
11.06000 506.000
11.07500 498.000
11.09000 529.000
11.10500 516.000
11.12000 496.000
11.13500 525.000
11.15000 513.000
11.16500 535.000
11.18000 519.000
11.19500 503.000
11.21000 471.000
11.22500 515.000
11.24000 519.000
11.25500 493.000
11.27000 481.000
11.28500 505.000
11.30000 526.000
11.31500 519.000
11.33000 507.000
11.34500 532.000
11.36000 528.000
11.37500 507.000
11.39000 495.000
11.40500 516.000
11.42000 488.000
11.43500 491.000
11.45000 487.000
11.46500 503.000
11.48000 499.000
11.49500 543.000
11.51000 511.000
11.52500 539.000
11.54000 491.000
11.55500 526.000
11.57000 513.000
11.58500 503.000
11.60000 527.000
11.61500 522.000
11.63000 530.000
11.64500 491.000
11.66000 513.000
11.67500 516.000
11.69000 503.000
11.70500 497.000
11.72000 461.000
11.73500 493.000
11.75000 511.000
11.76500 503.000
11.78000 463.000
11.79500 483.000
11.81000 486.000
11.82500 501.000
11.84000 484.000
11.85500 470.000
11.87000 497.000
11.88500 478.000
11.90000 464.000
11.91500 481.000
11.93000 495.000
11.94500 502.000
11.96000 515.000
11.97500 523.000
11.99000 512.000
12.00500 501.000
12.02000 502.000
12.03500 490.000
12.05000 470.000
12.06500 489.000
12.08000 518.000
12.09500 517.000
12.11000 482.000
12.12500 473.000
12.14000 514.000
12.15500 516.000
12.17000 513.000
12.18500 473.000
12.20000 506.000
12.21500 529.000
12.23000 522.000
12.24500 490.000
12.26000 504.000
12.27500 497.000
12.29000 478.000
12.30500 508.000
12.32000 499.000
12.33500 507.000
12.35000 457.000
12.36500 474.000
12.38000 478.000
12.39500 476.000
12.41000 477.000
12.42500 492.000
12.44000 494.000
12.45500 524.000
12.47000 515.000
12.48500 499.000
12.50000 486.000
12.51500 486.000
12.53000 526.000
12.54500 525.000
12.56000 505.000
12.57500 486.000
12.59000 493.000
12.60500 490.000
12.62000 491.000
12.63500 516.000
12.65000 502.000
12.66500 517.000
12.68000 480.000
12.69500 498.000
12.71000 499.000
12.72500 477.000
12.74000 483.000
12.75500 495.000
12.77000 495.000
12.78500 497.000
12.80000 508.000
12.81500 494.000
12.83000 473.000
12.84500 472.000
12.86000 467.000
12.87500 502.000
12.89000 493.000
12.90500 447.000
12.92000 480.000
12.93500 469.000
12.95000 469.000
12.96500 508.000
12.98000 524.000
12.99500 494.000
13.01000 503.000
13.02500 455.000
13.04000 483.000
13.05500 517.000
13.07000 533.000
13.08500 528.000
13.10000 505.000
13.11500 499.000
13.13000 488.000
13.14500 501.000
13.16000 491.000
13.17500 491.000
13.19000 462.000
13.20500 478.000
13.22000 469.000
13.23500 496.000
13.25000 504.000
13.26500 479.000
13.28000 482.000
13.29500 511.000
13.31000 461.000
13.32500 476.000
13.34000 492.000
13.35500 518.000
13.37000 498.000
13.38500 486.000
13.40000 484.000
13.41500 498.000
13.43000 513.000
13.44500 491.000
13.46000 501.000
13.47500 485.000
13.49000 516.000
13.50500 484.000
13.52000 513.000
13.53500 484.000
13.55000 458.000
13.56500 488.000
13.58000 471.000
13.59500 476.000
13.61000 491.000
13.62500 504.000
13.64000 484.000
13.65500 495.000
13.67000 462.000
13.68500 481.000
13.70000 516.000
13.71500 507.000
13.73000 531.000
13.74500 496.000
13.76000 469.000
13.77500 459.000
13.79000 484.000
13.80500 508.000
13.82000 454.000
13.83500 487.000
13.85000 495.000
13.86500 500.000
13.88000 517.000
13.89500 455.000
13.91000 469.000
13.92500 487.000
13.94000 505.000
13.95500 507.000
13.97000 463.000
13.98500 501.000
14.00000 517.000
14.01500 490.000
14.03000 478.000
14.04500 465.000
14.06000 470.000
14.07500 499.000
14.09000 485.000
14.10500 480.000
14.12000 485.000
14.13500 504.000
14.15000 498.000
14.16500 521.000
14.18000 517.000
14.19500 501.000
14.21000 464.000
14.22500 470.000
14.24000 489.000
14.25500 495.000
14.27000 478.000
14.28500 498.000
14.30000 514.000
14.31500 491.000
14.33000 480.000
14.34500 458.000
14.36000 487.000
14.37500 510.000
14.39000 487.000
14.40500 488.000
14.42000 471.000
14.43500 511.000
14.45000 528.000
14.46500 457.000
14.48000 495.000
14.49500 501.000
14.51000 491.000
14.52500 483.000
14.54000 484.000
14.55500 519.000
14.57000 510.000
14.58500 494.000
14.60000 500.000
14.61500 481.000
14.63000 515.000
14.64500 488.000
14.66000 498.000
14.67500 486.000
14.69000 516.000
14.70500 488.000
14.72000 486.000
14.73500 469.000
14.75000 472.000
14.76500 497.000
14.78000 490.000
14.79500 480.000
14.81000 487.000
14.82500 510.000
14.84000 531.000
14.85500 537.000
14.87000 511.000
14.88500 529.000
14.90000 501.000
14.91500 518.000
14.93000 535.000
14.94500 537.000
14.96000 534.000
14.97500 532.000
14.99000 568.000
15.00500 572.000
15.02000 548.000
15.03500 541.000
15.05000 556.000
15.06500 560.000
15.08000 559.000
15.09500 575.000
15.11000 597.000
15.12500 627.000
15.14000 583.000
15.15500 615.000
15.17000 594.000
15.18500 566.000
15.20000 564.000
15.21500 597.000
15.23000 608.000
15.24500 568.000
15.26000 574.000
15.27500 561.000
15.29000 523.000
15.30500 533.000
15.32000 567.000
15.33500 540.000
15.35000 563.000
15.36500 519.000
15.38000 542.000
15.39500 549.000
15.41000 558.000
15.42500 518.000
15.44000 523.000
15.45500 509.000
15.47000 512.000
15.48500 535.000
15.50000 540.000
15.51500 507.000
15.53000 450.000
15.54500 486.000
15.56000 497.000
15.57500 482.000
15.59000 498.000
15.60500 522.000
15.62000 510.000
15.63500 485.000
15.65000 508.000
15.66500 487.000
15.68000 490.000
15.69500 517.000
15.71000 463.000
15.72500 488.000
15.74000 486.000
15.75500 476.000
15.77000 479.000
15.78500 480.000
15.80000 481.000
15.81500 490.000
15.83000 470.000
15.84500 487.000
15.86000 468.000
15.87500 460.000
15.89000 483.000
15.90500 477.000
15.92000 500.000
15.93500 539.000
15.95000 519.000
15.96500 471.000
15.98000 497.000
15.99500 452.000
16.01000 481.000
16.02500 507.000
16.04000 508.000
16.05500 473.000
16.07000 509.000
16.08500 510.000
16.10000 501.000
16.11500 480.000
16.13000 488.000
16.14500 471.000
16.16000 481.000
16.17500 484.000
16.19000 505.000
16.20500 497.000
16.22000 462.000
16.23500 488.000
16.25000 497.000
16.26500 482.000
16.28000 474.000
16.29500 474.000
16.31000 496.000
16.32500 514.000
16.34000 482.000
16.35500 442.000
16.37000 457.000
16.38500 472.000
16.40000 463.000
16.41500 451.000
16.43000 490.000
16.44500 488.000
16.46000 480.000
16.47500 494.000
16.49000 466.000
16.50500 476.000
16.52000 495.000
16.53500 473.000
16.55000 454.000
16.56500 449.000
16.58000 494.000
16.59500 493.000
16.61000 462.000
16.62500 489.000
16.64000 462.000
16.65500 496.000
16.67000 492.000
16.68500 518.000
16.70000 482.000
16.71500 464.000
16.73000 483.000
16.74500 491.000
16.76000 459.000
16.77500 492.000
16.79000 493.000
16.80500 512.000
16.82000 468.000
16.83500 481.000
16.85000 475.000
16.86500 479.000
16.88000 472.000
16.89500 500.000
16.91000 530.000
16.92500 500.000
16.94000 504.000
16.95500 500.000
16.97000 500.000
16.98500 513.000
17.00000 498.000
17.01500 464.000
17.03000 514.000
17.04500 486.000
17.06000 466.000
17.07500 481.000
17.09000 507.000
17.10500 514.000
17.12000 523.000
17.13500 490.000
17.15000 487.000
17.16500 471.000
17.18000 482.000
17.19500 518.000
17.21000 461.000
17.22500 493.000
17.24000 485.000
17.25500 484.000
17.27000 465.000
17.28500 481.000
17.30000 537.000
17.31500 504.000
17.33000 477.000
17.34500 458.000
17.36000 499.000
17.37500 497.000
17.39000 484.000
17.40500 527.000
17.42000 501.000
17.43500 461.000
17.45000 503.000
17.46500 494.000
17.48000 492.000
17.49500 486.000
17.51000 502.000
17.52500 526.000
17.54000 529.000
17.55500 511.000
17.57000 498.000
17.58500 524.000
17.60000 524.000
17.61500 499.000
17.63000 482.000
17.64500 511.000
17.66000 509.000
17.67500 523.000
17.69000 530.000
17.70500 504.000
17.72000 485.000
17.73500 505.000
17.75000 508.000
17.76500 508.000
17.78000 512.000
17.79500 515.000
17.81000 516.000
17.82500 508.000
17.84000 496.000
17.85500 495.000
17.87000 495.000
17.88500 537.000
17.90000 515.000
17.91500 518.000
17.93000 482.000
17.94500 464.000
17.96000 505.000
17.97500 506.000
17.99000 501.000
18.00500 521.000
18.02000 512.000
18.03500 491.000
18.05000 502.000
18.06500 489.000
18.08000 499.000
18.09500 495.000
18.11000 516.000
18.12500 516.000
18.14000 493.000
18.15500 495.000
18.17000 512.000
18.18500 518.000
18.20000 519.000
18.21500 524.000
18.23000 514.000
18.24500 485.000
18.26000 519.000
18.27500 507.000
18.29000 510.000
18.30500 512.000
18.32000 497.000
18.33500 523.000
18.35000 588.000
18.36500 551.000
18.38000 549.000
18.39500 566.000
18.41000 563.000
18.42500 559.000
18.44000 578.000
18.45500 584.000
18.47000 580.000
18.48500 593.000
18.50000 567.000
18.51500 645.000
18.53000 655.000
18.54500 637.000
18.56000 654.000
18.57500 706.000
18.59000 696.000
18.60500 719.000
18.62000 702.000
18.63500 659.000
18.65000 698.000
18.66500 656.000
18.68000 690.000
18.69500 675.000
18.71000 680.000
18.72500 643.000
18.74000 612.000
18.75500 629.000
18.77000 587.000
18.78500 563.000
18.80000 618.000
18.81500 583.000
18.83000 584.000
18.84500 575.000
18.86000 544.000
18.87500 541.000
18.89000 538.000
18.90500 542.000
18.92000 534.000
18.93500 539.000
18.95000 538.000
18.96500 543.000
18.98000 536.000
18.99500 513.000
19.01000 518.000
19.02500 527.000
19.04000 525.000
19.05500 523.000
19.07000 545.000
19.08500 550.000
19.10000 537.000
19.11500 519.000
19.13000 509.000
19.14500 499.000
19.16000 545.000
19.17500 491.000
19.19000 535.000
19.20500 482.000
19.22000 463.000
19.23500 483.000
19.25000 537.000
19.26500 520.000
19.28000 489.000
19.29500 517.000
19.31000 548.000
19.32500 485.000
19.34000 530.000
19.35500 527.000
19.37000 514.000
19.38500 535.000
19.40000 516.000
19.41500 536.000
19.43000 534.000
19.44500 482.000
19.46000 479.000
19.47500 502.000
19.49000 501.000
19.50500 511.000
19.52000 499.000
19.53500 472.000
19.55000 503.000
19.56500 504.000
19.58000 542.000
19.59500 535.000
19.61000 491.000
19.62500 536.000
19.64000 496.000
19.65500 520.000
19.67000 535.000
19.68500 503.000
19.70000 499.000
19.71500 503.000
19.73000 528.000
19.74500 520.000
19.76000 523.000
19.77500 525.000
19.79000 495.000
19.80500 517.000
19.82000 520.000
19.83500 531.000
19.85000 480.000
19.86500 498.000
19.88000 505.000
19.89500 509.000
19.91000 534.000
19.92500 507.000
19.94000 514.000
19.95500 517.000
19.97000 514.000
19.98500 521.000
20.00000 528.000
20.01500 527.000
20.03000 530.000
20.04500 542.000
20.06000 525.000
20.07500 521.000
20.09000 535.000
20.10500 510.000
20.12000 502.000
20.13500 466.000
20.15000 513.000
20.16500 542.000
20.18000 554.000
20.19500 537.000
20.21000 516.000
20.22500 525.000
20.24000 508.000
20.25500 512.000
20.27000 525.000
20.28500 547.000
20.30000 555.000
20.31500 505.000
20.33000 508.000
20.34500 509.000
20.36000 536.000
20.37500 551.000
20.39000 556.000
20.40500 527.000
20.42000 514.000
20.43500 519.000
20.45000 515.000
20.46500 538.000
20.48000 529.000
20.49500 537.000
20.51000 519.000
20.52500 557.000
20.54000 531.000
20.55500 526.000
20.57000 535.000
20.58500 548.000
20.60000 566.000
20.61500 543.000
20.63000 519.000
20.64500 514.000
20.66000 524.000
20.67500 520.000
20.69000 523.000
20.70500 543.000
20.72000 538.000
20.73500 547.000
20.75000 548.000
20.76500 550.000
20.78000 515.000
20.79500 534.000
20.81000 495.000
20.82500 512.000
20.84000 535.000
20.85500 545.000
20.87000 559.000
20.88500 522.000
20.90000 573.000
20.91500 590.000
20.93000 565.000
20.94500 551.000
20.96000 531.000
20.97500 549.000
20.99000 527.000
21.00500 537.000
21.02000 532.000
21.03500 555.000
21.05000 541.000
21.06500 544.000
21.08000 550.000
21.09500 543.000
21.11000 547.000
21.12500 533.000
21.14000 521.000
21.15500 549.000
21.17000 538.000
21.18500 559.000
21.20000 550.000
21.21500 559.000
21.23000 586.000
21.24500 523.000
21.26000 568.000
21.27500 549.000
21.29000 564.000
21.30500 543.000
21.32000 600.000
21.33500 566.000
21.35000 571.000
21.36500 561.000
21.38000 548.000
21.39500 565.000
21.41000 573.000
21.42500 579.000
21.44000 585.000
21.45500 582.000
21.47000 551.000
21.48500 568.000
21.50000 596.000
21.51500 587.000
21.53000 597.000
21.54500 541.000
21.56000 557.000
21.57500 580.000
21.59000 575.000
21.60500 583.000
21.62000 602.000
21.63500 593.000
21.65000 569.000
21.66500 578.000
21.68000 584.000
21.69500 595.000
21.71000 596.000
21.72500 603.000
21.74000 637.000
21.75500 604.000
21.77000 596.000
21.78500 585.000
21.80000 619.000
21.81500 605.000
21.83000 606.000
21.84500 663.000
21.86000 639.000
21.87500 639.000
21.89000 712.000
21.90500 696.000
21.92000 710.000
21.93500 694.000
21.95000 683.000
21.96500 699.000
21.98000 707.000
21.99500 716.000
22.01000 739.000
22.02500 726.000
22.04000 689.000
22.05500 722.000
22.07000 710.000
22.08500 718.000
22.10000 727.000
22.11500 748.000
22.13000 746.000
22.14500 712.000
22.16000 678.000
22.17500 757.000
22.19000 687.000
22.20500 702.000
22.22000 714.000
22.23500 697.000
22.25000 680.000
22.26500 644.000
22.28000 660.000
22.29500 651.000
22.31000 634.000
22.32500 637.000
22.34000 671.000
22.35500 651.000
22.37000 658.000
22.38500 624.000
22.40000 643.000
22.41500 655.000
22.43000 634.000
22.44500 585.000
22.46000 626.000
22.47500 659.000
22.49000 673.000
22.50500 653.000
22.52000 656.000
22.53500 633.000
22.55000 634.000
22.56500 647.000
22.58000 675.000
22.59500 671.000
22.61000 701.000
22.62500 690.000
22.64000 677.000
22.65500 667.000
22.67000 691.000
22.68500 695.000
22.70000 701.000
22.71500 709.000
22.73000 744.000
22.74500 715.000
22.76000 758.000
22.77500 761.000
22.79000 757.000
22.80500 801.000
22.82000 799.000
22.83500 828.000
22.85000 849.000
22.86500 794.000
22.88000 849.000
22.89500 874.000
22.91000 880.000
22.92500 839.000
22.94000 901.000
22.95500 847.000
22.97000 877.000
22.98500 845.000
23.00000 890.000
23.01500 865.000
23.03000 813.000
23.04500 886.000
23.06000 851.000
23.07500 803.000
23.09000 784.000
23.10500 797.000
23.12000 770.000
23.13500 796.000
23.15000 783.000
23.16500 765.000
23.18000 784.000
23.19500 780.000
23.21000 731.000
23.22500 714.000
23.24000 698.000
23.25500 734.000
23.27000 733.000
23.28500 718.000
23.30000 689.000
23.31500 686.000
23.33000 679.000
23.34500 643.000
23.36000 712.000
23.37500 689.000
23.39000 671.000
23.40500 665.000
23.42000 708.000
23.43500 662.000
23.45000 645.000
23.46500 655.000
23.48000 671.000
23.49500 655.000
23.51000 655.000
23.52500 662.000
23.54000 648.000
23.55500 655.000
23.57000 671.000
23.58500 700.000
23.60000 642.000
23.61500 647.000
23.63000 632.000
23.64500 626.000
23.66000 616.000
23.67500 613.000
23.69000 650.000
23.70500 669.000
23.72000 648.000
23.73500 660.000
23.75000 644.000
23.76500 681.000
23.78000 686.000
23.79500 658.000
23.81000 640.000
23.82500 674.000
23.84000 678.000
23.85500 665.000
23.87000 662.000
23.88500 691.000
23.90000 640.000
23.91500 656.000
23.93000 672.000
23.94500 677.000
23.96000 686.000
23.97500 689.000
23.99000 679.000
24.00500 673.000
24.02000 687.000
24.03500 702.000
24.05000 734.000
24.06500 745.000
24.08000 717.000
24.09500 740.000
24.11000 720.000
24.12500 697.000
24.14000 683.000
24.15500 699.000
24.17000 699.000
24.18500 713.000
24.20000 669.000
24.21500 682.000
24.23000 697.000
24.24500 690.000
24.26000 677.000
24.27500 679.000
24.29000 726.000
24.30500 753.000
24.32000 752.000
24.33500 704.000
24.35000 728.000
24.36500 689.000
24.38000 730.000
24.39500 733.000
24.41000 751.000
24.42500 792.000
24.44000 756.000
24.45500 763.000
24.47000 766.000
24.48500 785.000
24.50000 794.000
24.51500 787.000
24.53000 766.000
24.54500 807.000
24.56000 763.000
24.57500 755.000
24.59000 772.000
24.60500 753.000
24.62000 779.000
24.63500 797.000
24.65000 805.000
24.66500 792.000
24.68000 776.000
24.69500 832.000
24.71000 776.000
24.72500 775.000
24.74000 778.000
24.75500 791.000
24.77000 750.000
24.78500 743.000
24.80000 788.000
24.81500 770.000
24.83000 743.000
24.84500 757.000
24.86000 761.000
24.87500 745.000
24.89000 744.000
24.90500 760.000
24.92000 753.000
24.93500 749.000
24.95000 745.000
24.96500 740.000
24.98000 765.000
24.99500 773.000
25.01000 757.000
25.02500 785.000
25.04000 807.000
25.05500 771.000
25.07000 808.000
25.08500 819.000
25.10000 800.000
25.11500 752.000
25.13000 743.000
25.14500 765.000
25.16000 760.000
25.17500 736.000
25.19000 731.000
25.20500 723.000
25.22000 781.000
25.23500 790.000
25.25000 713.000
25.26500 751.000
25.28000 789.000
25.29500 789.000
25.31000 757.000
25.32500 783.000
25.34000 784.000
25.35500 757.000
25.37000 780.000
25.38500 814.000
25.40000 843.000
25.41500 821.000
25.43000 825.000
25.44500 807.000
25.46000 854.000
25.47500 837.000
25.49000 868.000
25.50500 851.000
25.52000 861.000
25.53500 839.000
25.55000 863.000
25.56500 935.000
25.58000 903.000
25.59500 820.000
25.61000 864.000
25.62500 850.000
25.64000 855.000
25.65500 901.000
25.67000 895.000
25.68500 905.000
25.70000 852.000
25.71500 889.000
25.73000 863.000
25.74500 912.000
25.76000 895.000
25.77500 891.000
25.79000 883.000
25.80500 882.000
25.82000 857.000
25.83500 928.000
25.85000 891.000
25.86500 830.000
25.88000 852.000
25.89500 854.000
25.91000 856.000
25.92500 859.000
25.94000 844.000
25.95500 840.000
25.97000 798.000
25.98500 838.000
26.00000 811.000
26.01500 805.000
26.03000 812.000
26.04500 855.000
26.06000 826.000
26.07500 798.000
26.09000 842.000
26.10500 865.000
26.12000 839.000
26.13500 816.000
26.15000 823.000
26.16500 828.000
26.18000 785.000
26.19500 817.000
26.21000 830.000
26.22500 850.000
26.24000 831.000
26.25500 848.000
26.27000 858.000
26.28500 850.000
26.30000 794.000
26.31500 894.000
26.33000 873.000
26.34500 809.000
26.36000 865.000
26.37500 847.000
26.39000 864.000
26.40500 876.000
26.42000 875.000
26.43500 848.000
26.45000 816.000
26.46500 824.000
26.48000 865.000
26.49500 839.000
26.51000 833.000
26.52500 868.000
26.54000 870.000
26.55500 883.000
26.57000 863.000
26.58500 868.000
26.60000 896.000
26.61500 882.000
26.63000 868.000
26.64500 870.000
26.66000 928.000
26.67500 910.000
26.69000 876.000
26.70500 868.000
26.72000 914.000
26.73500 876.000
26.75000 844.000
26.76500 879.000
26.78000 898.000
26.79500 899.000
26.81000 916.000
26.82500 928.000
26.84000 898.000
26.85500 901.000
26.87000 970.000
26.88500 917.000
26.90000 886.000
26.91500 918.000
26.93000 948.000
26.94500 967.000
26.96000 970.000
26.97500 997.000
26.99000 1016.000
27.00500 924.000
27.02000 967.000
27.03500 983.000
27.05000 977.000
27.06500 993.000
27.08000 979.000
27.09500 1013.000
27.11000 1036.000
27.12500 1002.000
27.14000 1005.000
27.15500 1065.000
27.17000 1077.000
27.18500 1061.000
27.20000 1087.000
27.21500 1101.000
27.23000 1059.000
27.24500 1072.000
27.26000 1088.000
27.27500 1099.000
27.29000 1140.000
27.30500 1148.000
27.32000 1157.000
27.33500 1116.000
27.35000 1178.000
27.36500 1208.000
27.38000 1238.000
27.39500 1310.000
27.41000 1328.000
27.42500 1303.000
27.44000 1306.000
27.45500 1390.000
27.47000 1449.000
27.48500 1528.000
27.50000 1605.000
27.51500 1679.000
27.53000 1807.000
27.54500 1873.000
27.56000 2064.000
27.57500 2120.000
27.59000 2272.000
27.60500 2388.000
27.62000 2547.000
27.63500 2802.000
27.65000 3053.000
27.66500 3192.000
27.68000 3349.000
27.69500 3485.000
27.71000 3664.000
27.72500 3844.000
27.74000 3801.000
27.75500 3804.000
27.77000 3740.000
27.78500 3653.000
27.80000 3563.000
27.81500 3457.000
27.83000 3231.000
27.84500 3194.000
27.86000 3083.000
27.87500 2959.000
27.89000 2868.000
27.90500 2942.000
27.92000 2764.000
27.93500 2656.000
27.95000 2701.000
27.96500 2604.000
27.98000 2656.000
27.99500 2727.000
28.01000 2553.000
28.02500 2588.000
28.04000 2492.000
28.05500 2365.000
28.07000 2323.000
28.08500 2288.000
28.10000 2216.000
28.11500 2096.000
28.13000 2068.000
28.14500 2052.000
28.16000 2001.000
28.17500 1901.000
28.19000 1892.000
28.20500 1880.000
28.22000 1836.000
28.23500 1793.000
28.25000 1649.000
28.26500 1641.000
28.28000 1650.000
28.29500 1608.000
28.31000 1575.000
28.32500 1575.000
28.34000 1553.000
28.35500 1460.000
28.37000 1387.000
28.38500 1413.000
28.40000 1346.000
28.41500 1273.000
28.43000 1280.000
28.44500 1304.000
28.46000 1284.000
28.47500 1265.000
28.49000 1245.000
28.50500 1288.000
28.52000 1190.000
28.53500 1194.000
28.55000 1161.000
28.56500 1143.000
28.58000 1150.000
28.59500 1108.000
28.61000 1141.000
28.62500 1082.000
28.64000 1055.000
28.65500 1078.000
28.67000 1105.000
28.68500 1029.000
28.70000 1005.000
28.71500 1045.000
28.73000 1039.000
28.74500 1026.000
28.76000 1040.000
28.77500 946.000
28.79000 946.000
28.80500 975.000
28.82000 949.000
28.83500 954.000
28.85000 945.000
28.86500 965.000
28.88000 945.000
28.89500 911.000
28.91000 938.000
28.92500 907.000
28.94000 865.000
28.95500 937.000
28.97000 946.000
28.98500 940.000
29.00000 917.000
29.01500 922.000
29.03000 976.000
29.04500 923.000
29.06000 986.000
29.07500 971.000
29.09000 961.000
29.10500 984.000
29.12000 948.000
29.13500 976.000
29.15000 1048.000
29.16500 1022.000
29.18000 967.000
29.19500 982.000
29.21000 939.000
29.22500 853.000
29.24000 837.000
29.25500 860.000
29.27000 886.000
29.28500 847.000
29.30000 815.000
29.31500 827.000
29.33000 791.000
29.34500 797.000
29.36000 781.000
29.37500 763.000
29.39000 795.000
29.40500 804.000
29.42000 802.000
29.43500 741.000
29.45000 763.000
29.46500 777.000
29.48000 767.000
29.49500 762.000
29.51000 723.000
29.52500 743.000
29.54000 752.000
29.55500 758.000
29.57000 726.000
29.58500 758.000
29.60000 746.000
29.61500 749.000
29.63000 766.000
29.64500 743.000
29.66000 756.000
29.67500 781.000
29.69000 814.000
29.70500 773.000
29.72000 771.000
29.73500 782.000
29.75000 809.000
29.76500 795.000
29.78000 778.000
29.79500 785.000
29.81000 786.000
29.82500 795.000
29.84000 789.000
29.85500 762.000
29.87000 743.000
29.88500 757.000
29.90000 733.000
29.91500 759.000
29.93000 720.000
29.94500 689.000
29.96000 749.000
29.97500 735.000
29.99000 777.000
30.00500 743.000
30.02000 724.000
30.03500 740.000
30.05000 701.000
30.06500 707.000
30.08000 732.000
30.09500 738.000
30.11000 694.000
30.12500 753.000
30.14000 749.000
30.15500 755.000
30.17000 732.000
30.18500 723.000
30.20000 754.000
30.21500 803.000
30.23000 768.000
30.24500 846.000
30.26000 791.000
30.27500 830.000
30.29000 817.000
30.30500 776.000
30.32000 698.000
30.33500 799.000
30.35000 825.000
30.36500 833.000
30.38000 777.000
30.39500 810.000
30.41000 839.000
30.42500 792.000
30.44000 814.000
30.45500 791.000
30.47000 802.000
30.48500 826.000
30.50000 800.000
30.51500 825.000
30.53000 795.000
30.54500 784.000
30.56000 795.000
30.57500 751.000
30.59000 778.000
30.60500 805.000
30.62000 775.000
30.63500 819.000
30.65000 800.000
30.66500 767.000
30.68000 780.000
30.69500 764.000
30.71000 776.000
30.72500 809.000
30.74000 774.000
30.75500 713.000
30.77000 736.000
30.78500 716.000
30.80000 709.000
30.81500 703.000
30.83000 726.000
30.84500 745.000
30.86000 687.000
30.87500 685.000
30.89000 727.000
30.90500 720.000
30.92000 680.000
30.93500 713.000
30.95000 667.000
30.96500 707.000
30.98000 676.000
30.99500 682.000
31.01000 670.000
31.02500 665.000
31.04000 627.000
31.05500 673.000
31.07000 649.000
31.08500 615.000
31.10000 636.000
31.11500 607.000
31.13000 639.000
31.14500 638.000
31.16000 651.000
31.17500 635.000
31.19000 630.000
31.20500 648.000
31.22000 660.000
31.23500 655.000
31.25000 623.000
31.26500 609.000
31.28000 605.000
31.29500 656.000
31.31000 669.000
31.32500 646.000
31.34000 658.000
31.35500 640.000
31.37000 644.000
31.38500 650.000
31.40000 670.000
31.41500 703.000
31.43000 673.000
31.44500 653.000
31.46000 661.000
31.47500 641.000
31.49000 633.000
31.50500 659.000
31.52000 673.000
31.53500 670.000
31.55000 661.000
31.56500 692.000
31.58000 617.000
31.59500 678.000
31.61000 647.000
31.62500 648.000
31.64000 602.000
31.65500 666.000
31.67000 621.000
31.68500 606.000
31.70000 635.000
31.71500 671.000
31.73000 619.000
31.74500 588.000
31.76000 632.000
31.77500 655.000
31.79000 639.000
31.80500 639.000
31.82000 672.000
31.83500 661.000
31.85000 653.000
31.86500 671.000
31.88000 619.000
31.89500 635.000
31.91000 663.000
31.92500 648.000
31.94000 638.000
31.95500 639.000
31.97000 666.000
31.98500 663.000
32.00000 631.000
32.01500 657.000
32.03000 649.000
32.04500 653.000
32.06000 621.000
32.07500 653.000
32.09000 648.000
32.10500 616.000
32.12000 607.000
32.13500 656.000
32.15000 670.000
32.16500 672.000
32.18000 647.000
32.19500 668.000
32.21000 657.000
32.22500 708.000
32.24000 660.000
32.25500 681.000
32.27000 768.000
32.28500 804.000
32.30000 834.000
32.31500 789.000
32.33000 778.000
32.34500 809.000
32.36000 797.000
32.37500 824.000
32.39000 792.000
32.40500 784.000
32.42000 738.000
32.43500 728.000
32.45000 720.000
32.46500 692.000
32.48000 666.000
32.49500 657.000
32.51000 606.000
32.52500 641.000
32.54000 602.000
32.55500 607.000
32.57000 591.000
32.58500 587.000
32.60000 544.000
32.61500 528.000
32.63000 551.000
32.64500 528.000
32.66000 569.000
32.67500 552.000
32.69000 539.000
32.70500 506.000
32.72000 516.000
32.73500 511.000
32.75000 502.000
32.76500 483.000
32.78000 526.000
32.79500 507.000
32.81000 509.000
32.82500 533.000
32.84000 456.000
32.85500 470.000
32.87000 484.000
32.88500 494.000
32.90000 472.000
32.91500 476.000
32.93000 511.000
32.94500 465.000
32.96000 461.000
32.97500 455.000
32.99000 531.000
33.00500 515.000
33.02000 451.000
33.03500 458.000
33.05000 466.000
33.06500 472.000
33.08000 494.000
33.09500 458.000
33.11000 477.000
33.12500 494.000
33.14000 457.000
33.15500 470.000
33.17000 503.000
33.18500 468.000
33.20000 492.000
33.21500 480.000
33.23000 477.000
33.24500 449.000
33.26000 471.000
33.27500 453.000
33.29000 470.000
33.30500 433.000
33.32000 459.000
33.33500 461.000
33.35000 445.000
33.36500 477.000
33.38000 471.000
33.39500 448.000
33.41000 477.000
33.42500 465.000
33.44000 437.000
33.45500 443.000
33.47000 465.000
33.48500 490.000
33.50000 432.000
33.51500 457.000
33.53000 434.000
33.54500 439.000
33.56000 476.000
33.57500 449.000
33.59000 456.000
33.60500 444.000
33.62000 414.000
33.63500 425.000
33.65000 440.000
33.66500 472.000
33.68000 458.000
33.69500 458.000
33.71000 470.000
33.72500 452.000
33.74000 452.000
33.75500 454.000
33.77000 418.000
33.78500 430.000
33.80000 467.000
33.81500 433.000
33.83000 449.000
33.84500 481.000
33.86000 463.000
33.87500 445.000
33.89000 424.000
33.90500 447.000
33.92000 413.000
33.93500 414.000
33.95000 451.000
33.96500 471.000
33.98000 459.000
33.99500 471.000
34.01000 440.000
34.02500 434.000
34.04000 462.000
34.05500 448.000
34.07000 448.000
34.08500 415.000
34.10000 421.000
34.11500 431.000
34.13000 442.000
34.14500 431.000
34.16000 424.000
34.17500 423.000
34.19000 448.000
34.20500 438.000
34.22000 416.000
34.23500 440.000
34.25000 445.000
34.26500 462.000
34.28000 430.000
34.29500 436.000
34.31000 436.000
34.32500 474.000
34.34000 434.000
34.35500 451.000
34.37000 441.000
34.38500 438.000
34.40000 450.000
34.41500 440.000
34.43000 445.000
34.44500 441.000
34.46000 456.000
34.47500 458.000
34.49000 441.000
34.50500 458.000
34.52000 448.000
34.53500 440.000
34.55000 447.000
34.56500 424.000
34.58000 415.000
34.59500 449.000
34.61000 454.000
34.62500 409.000
34.64000 436.000
34.65500 444.000
34.67000 469.000
34.68500 445.000
34.70000 463.000
34.71500 460.000
34.73000 436.000
34.74500 442.000
34.76000 444.000
34.77500 461.000
34.79000 455.000
34.80500 453.000
34.82000 460.000
34.83500 469.000
34.85000 455.000
34.86500 477.000
34.88000 476.000
34.89500 459.000
34.91000 448.000
34.92500 466.000
34.94000 465.000
34.95500 459.000
34.97000 453.000
34.98500 441.000
35.00000 457.000
35.01500 484.000
35.03000 480.000
35.04500 416.000
35.06000 466.000
35.07500 461.000
35.09000 493.000
35.10500 454.000
35.12000 495.000
35.13500 481.000
35.15000 483.000
35.16500 495.000
35.18000 486.000
35.19500 483.000
35.21000 492.000
35.22500 488.000
35.24000 513.000
35.25500 536.000
35.27000 531.000
35.28500 556.000
35.30000 584.000
35.31500 573.000
35.33000 598.000
35.34500 613.000
35.36000 647.000
35.37500 693.000
35.39000 675.000
35.40500 717.000
35.42000 856.000
35.43500 925.000
35.45000 929.000
35.46500 984.000
35.48000 976.000
35.49500 988.000
35.51000 966.000
35.52500 888.000
35.54000 831.000
35.55500 766.000
35.57000 749.000
35.58500 675.000
35.60000 634.000
35.61500 628.000
35.63000 577.000
35.64500 546.000
35.66000 532.000
35.67500 529.000
35.69000 531.000
35.70500 532.000
35.72000 483.000
35.73500 507.000
35.75000 478.000
35.76500 459.000
35.78000 485.000
35.79500 491.000
35.81000 483.000
35.82500 503.000
35.84000 496.000
35.85500 483.000
35.87000 468.000
35.88500 497.000
35.90000 476.000
35.91500 480.000
35.93000 478.000
35.94500 468.000
35.96000 497.000
35.97500 495.000
35.99000 474.000
36.00500 463.000
36.02000 471.000
36.03500 498.000
36.05000 479.000
36.06500 495.000
36.08000 504.000
36.09500 523.000
36.11000 523.000
36.12500 495.000
36.14000 530.000
36.15500 540.000
36.17000 530.000
36.18500 538.000
36.20000 552.000
36.21500 539.000
36.23000 509.000
36.24500 520.000
36.26000 533.000
36.27500 520.000
36.29000 530.000
36.30500 558.000
36.32000 486.000
36.33500 487.000
36.35000 550.000
36.36500 551.000
36.38000 523.000
36.39500 523.000
36.41000 562.000
36.42500 546.000
36.44000 568.000
36.45500 559.000
36.47000 538.000
36.48500 566.000
36.50000 549.000
36.51500 556.000
36.53000 590.000
36.54500 578.000
36.56000 555.000
36.57500 546.000
36.59000 549.000
36.60500 528.000
36.62000 535.000
36.63500 553.000
36.65000 573.000
36.66500 530.000
36.68000 516.000
36.69500 524.000
36.71000 491.000
36.72500 498.000
36.74000 508.000
36.75500 479.000
36.77000 481.000
36.78500 513.000
36.80000 490.000
36.81500 474.000
36.83000 445.000
36.84500 444.000
36.86000 458.000
36.87500 457.000
36.89000 469.000
36.90500 466.000
36.92000 457.000
36.93500 457.000
36.95000 472.000
36.96500 460.000
36.98000 466.000
36.99500 462.000
37.01000 455.000
37.02500 461.000
37.04000 485.000
37.05500 490.000
37.07000 472.000
37.08500 455.000
37.10000 483.000
37.11500 468.000
37.13000 453.000
37.14500 469.000
37.16000 477.000
37.17500 520.000
37.19000 503.000
37.20500 502.000
37.22000 493.000
37.23500 503.000
37.25000 517.000
37.26500 502.000
37.28000 510.000
37.29500 505.000
37.31000 493.000
37.32500 536.000
37.34000 527.000
37.35500 523.000
37.37000 525.000
37.38500 513.000
37.40000 544.000
37.41500 518.000
37.43000 549.000
37.44500 534.000
37.46000 531.000
37.47500 511.000
37.49000 547.000
37.50500 514.000
37.52000 503.000
37.53500 522.000
37.55000 528.000
37.56500 495.000
37.58000 519.000
37.59500 492.000
37.61000 472.000
37.62500 524.000
37.64000 535.000
37.65500 528.000
37.67000 486.000
37.68500 464.000
37.70000 505.000
37.71500 516.000
37.73000 480.000
37.74500 488.000
37.76000 489.000
37.77500 466.000
37.79000 493.000
37.80500 486.000
37.82000 504.000
37.83500 486.000
37.85000 501.000
37.86500 461.000
37.88000 478.000
37.89500 508.000
37.91000 484.000
37.92500 466.000
37.94000 453.000
37.95500 460.000
37.97000 468.000
37.98500 472.000
38.00000 464.000
38.01500 484.000
38.03000 474.000
38.04500 459.000
38.06000 482.000
38.07500 464.000
38.09000 456.000
38.10500 467.000
38.12000 454.000
38.13500 449.000
38.15000 432.000
38.16500 458.000
38.18000 473.000
38.19500 472.000
38.21000 517.000
38.22500 472.000
38.24000 459.000
38.25500 436.000
38.27000 464.000
38.28500 466.000
38.30000 459.000
38.31500 434.000
38.33000 425.000
38.34500 454.000
38.36000 492.000
38.37500 465.000
38.39000 461.000
38.40500 462.000
38.42000 506.000
38.43500 482.000
38.45000 477.000
38.46500 476.000
38.48000 436.000
38.49500 450.000
38.51000 479.000
38.52500 464.000
38.54000 463.000
38.55500 463.000
38.57000 477.000
38.58500 536.000
38.60000 505.000
38.61500 483.000
38.63000 477.000
38.64500 475.000
38.66000 509.000
38.67500 512.000
38.69000 452.000
38.70500 444.000
38.72000 448.000
38.73500 467.000
38.75000 480.000
38.76500 463.000
38.78000 461.000
38.79500 466.000
38.81000 446.000
38.82500 438.000
38.84000 476.000
38.85500 455.000
38.87000 429.000
38.88500 450.000
38.90000 475.000
38.91500 436.000
38.93000 429.000
38.94500 395.000
38.96000 444.000
38.97500 462.000
38.99000 416.000
39.00500 426.000
39.02000 444.000
39.03500 452.000
39.05000 427.000
39.06500 455.000
39.08000 425.000
39.09500 422.000
39.11000 425.000
39.12500 404.000
39.14000 395.000
39.15500 394.000
39.17000 400.000
39.18500 375.000
39.20000 387.000
39.21500 387.000
39.23000 406.000
39.24500 403.000
39.26000 388.000
39.27500 383.000
39.29000 404.000
39.30500 412.000
39.32000 397.000
39.33500 411.000
39.35000 401.000
39.36500 371.000
39.38000 381.000
39.39500 392.000
39.41000 390.000
39.42500 371.000
39.44000 363.000
39.45500 372.000
39.47000 371.000
39.48500 360.000
39.50000 390.000
39.51500 370.000
39.53000 375.000
39.54500 373.000
39.56000 378.000
39.57500 396.000
39.59000 424.000
39.60500 410.000
39.62000 391.000
39.63500 396.000
39.65000 399.000
39.66500 386.000
39.68000 388.000
39.69500 405.000
39.71000 405.000
39.72500 424.000
39.74000 431.000
39.75500 427.000
39.77000 399.000
39.78500 403.000
39.80000 421.000
39.81500 430.000
39.83000 421.000
39.84500 409.000
39.86000 421.000
39.87500 422.000
39.89000 424.000
39.90500 452.000
39.92000 433.000
39.93500 434.000
39.95000 413.000
39.96500 424.000
39.98000 456.000
39.99500 425.000
40.01000 437.000
40.02500 468.000
40.04000 447.000
40.05500 474.000
40.07000 493.000
40.08500 457.000
40.10000 455.000
40.11500 457.000
40.13000 418.000
40.14500 433.000
40.16000 403.000
40.17500 424.000
40.19000 450.000
40.20500 420.000
40.22000 420.000
40.23500 454.000
40.25000 417.000
40.26500 426.000
40.28000 425.000
40.29500 433.000
40.31000 412.000
40.32500 415.000
40.34000 407.000
40.35500 396.000
40.37000 412.000
40.38500 400.000
40.40000 409.000
40.41500 440.000
40.43000 463.000
40.44500 417.000
40.46000 465.000
40.47500 450.000
40.49000 415.000
40.50500 406.000
40.52000 400.000
40.53500 413.000
40.55000 414.000
40.56500 456.000
40.58000 426.000
40.59500 443.000
40.61000 442.000
40.62500 405.000
40.64000 406.000
40.65500 418.000
40.67000 457.000
40.68500 433.000
40.70000 411.000
40.71500 385.000
40.73000 416.000
40.74500 428.000
40.76000 390.000
40.77500 394.000
40.79000 396.000
40.80500 395.000
40.82000 399.000
40.83500 360.000
40.85000 403.000
40.86500 381.000
40.88000 357.000
40.89500 407.000
40.91000 404.000
40.92500 375.000
40.94000 371.000
40.95500 383.000
40.97000 356.000
40.98500 356.000
41.00000 380.000
41.01500 391.000
41.03000 351.000
41.04500 366.000
41.06000 406.000
41.07500 354.000
41.09000 374.000
41.10500 371.000
41.12000 387.000
41.13500 374.000
41.15000 385.000
41.16500 407.000
41.18000 380.000
41.19500 369.000
41.21000 362.000
41.22500 367.000
41.24000 369.000
41.25500 355.000
41.27000 354.000
41.28500 369.000
41.30000 372.000
41.31500 351.000
41.33000 340.000
41.34500 323.000
41.36000 382.000
41.37500 357.000
41.39000 356.000
41.40500 366.000
41.42000 373.000
41.43500 356.000
41.45000 390.000
41.46500 388.000
41.48000 384.000
41.49500 377.000
41.51000 375.000
41.52500 393.000
41.54000 368.000
41.55500 336.000
41.57000 322.000
41.58500 354.000
41.60000 349.000
41.61500 344.000
41.63000 341.000
41.64500 329.000
41.66000 377.000
41.67500 368.000
41.69000 364.000
41.70500 354.000
41.72000 353.000
41.73500 383.000
41.75000 373.000
41.76500 340.000
41.78000 359.000
41.79500 365.000
41.81000 360.000
41.82500 371.000
41.84000 355.000
41.85500 356.000
41.87000 363.000
41.88500 370.000
41.90000 365.000
41.91500 337.000
41.93000 340.000
41.94500 346.000
41.96000 335.000
41.97500 329.000
41.99000 376.000
42.00500 369.000
42.02000 388.000
42.03500 364.000
42.05000 330.000
42.06500 331.000
42.08000 327.000
42.09500 364.000
42.11000 352.000
42.12500 344.000
42.14000 361.000
42.15500 335.000
42.17000 353.000
42.18500 360.000
42.20000 347.000
42.21500 365.000
42.23000 367.000
42.24500 357.000
42.26000 349.000
42.27500 364.000
42.29000 375.000
42.30500 359.000
42.32000 350.000
42.33500 332.000
42.35000 329.000
42.36500 346.000
42.38000 353.000
42.39500 379.000
42.41000 360.000
42.42500 325.000
42.44000 354.000
42.45500 352.000
42.47000 331.000
42.48500 400.000
42.50000 350.000
42.51500 362.000
42.53000 380.000
42.54500 354.000
42.56000 390.000
42.57500 351.000
42.59000 367.000
42.60500 368.000
42.62000 371.000
42.63500 389.000
42.65000 388.000
42.66500 378.000
42.68000 390.000
42.69500 397.000
42.71000 409.000
42.72500 372.000
42.74000 381.000
42.75500 385.000
42.77000 399.000
42.78500 389.000
42.80000 379.000
42.81500 373.000
42.83000 370.000
42.84500 391.000
42.86000 386.000
42.87500 385.000
42.89000 387.000
42.90500 407.000
42.92000 434.000
42.93500 393.000
42.95000 404.000
42.96500 392.000
42.98000 441.000
42.99500 448.000
43.01000 413.000
43.02500 446.000
43.04000 461.000
43.05500 434.000
43.07000 493.000
43.08500 531.000
43.10000 510.000
43.11500 474.000
43.13000 490.000
43.14500 524.000
43.16000 559.000
43.17500 550.000
43.19000 574.000
43.20500 576.000
43.22000 532.000
43.23500 588.000
43.25000 592.000
43.26500 641.000
43.28000 647.000
43.29500 657.000
43.31000 639.000
43.32500 625.000
43.34000 632.000
43.35500 604.000
43.37000 584.000
43.38500 558.000
43.40000 601.000
43.41500 531.000
43.43000 515.000
43.44500 508.000
43.46000 511.000
43.47500 473.000
43.49000 486.000
43.50500 480.000
43.52000 472.000
43.53500 437.000
43.55000 446.000
43.56500 443.000
43.58000 456.000
43.59500 446.000
43.61000 445.000
43.62500 455.000
43.64000 427.000
43.65500 415.000
43.67000 418.000
43.68500 435.000
43.70000 415.000
43.71500 423.000
43.73000 425.000
43.74500 411.000
43.76000 394.000
43.77500 405.000
43.79000 400.000
43.80500 411.000
43.82000 397.000
43.83500 385.000
43.85000 361.000
43.86500 365.000
43.88000 407.000
43.89500 371.000
43.91000 369.000
43.92500 372.000
43.94000 417.000
43.95500 372.000
43.97000 367.000
43.98500 389.000
44.00000 401.000
44.01500 382.000
44.03000 389.000
44.04500 389.000
44.06000 366.000
44.07500 380.000
44.09000 395.000
44.10500 403.000
44.12000 371.000
44.13500 375.000
44.15000 371.000
44.16500 412.000
44.18000 420.000
44.19500 404.000
44.21000 381.000
44.22500 434.000
44.24000 450.000
44.25500 435.000
44.27000 415.000
44.28500 449.000
44.30000 452.000
44.31500 457.000
44.33000 457.000
44.34500 439.000
44.36000 459.000
44.37500 465.000
44.39000 456.000
44.40500 468.000
44.42000 465.000
44.43500 441.000
44.45000 411.000
44.46500 425.000
44.48000 443.000
44.49500 445.000
44.51000 467.000
44.52500 429.000
44.54000 403.000
44.55500 421.000
44.57000 436.000
44.58500 441.000
44.60000 463.000
44.61500 434.000
44.63000 424.000
44.64500 427.000
44.66000 452.000
44.67500 372.000
44.69000 394.000
44.70500 409.000
44.72000 448.000
44.73500 396.000
44.75000 398.000
44.76500 417.000
44.78000 386.000
44.79500 397.000
44.81000 408.000
44.82500 459.000
44.84000 410.000
44.85500 397.000
44.87000 394.000
44.88500 382.000
44.90000 376.000
44.91500 394.000
44.93000 390.000
44.94500 421.000
44.96000 422.000
44.97500 395.000
44.99000 412.000
45.00500 390.000
45.02000 410.000
45.03500 404.000
45.05000 401.000
45.06500 412.000
45.08000 372.000
45.09500 398.000
45.11000 439.000
45.12500 463.000
45.14000 395.000
45.15500 399.000
45.17000 455.000
45.18500 394.000
45.20000 398.000
45.21500 403.000
45.23000 413.000
45.24500 380.000
45.26000 424.000
45.27500 379.000
45.29000 404.000
45.30500 413.000
45.32000 397.000
45.33500 415.000
45.35000 401.000
45.36500 377.000
45.38000 371.000
45.39500 379.000
45.41000 378.000
45.42500 379.000
45.44000 379.000
45.45500 411.000
45.47000 393.000
45.48500 360.000
45.50000 412.000
45.51500 396.000
45.53000 397.000
45.54500 392.000
45.56000 369.000
45.57500 364.000
45.59000 393.000
45.60500 368.000
45.62000 388.000
45.63500 395.000
45.65000 376.000
45.66500 376.000
45.68000 375.000
45.69500 380.000
45.71000 362.000
45.72500 376.000
45.74000 389.000
45.75500 396.000
45.77000 365.000
45.78500 376.000
45.80000 374.000
45.81500 375.000
45.83000 375.000
45.84500 359.000
45.86000 349.000
45.87500 344.000
45.89000 375.000
45.90500 393.000
45.92000 398.000
45.93500 349.000
45.95000 324.000
45.96500 381.000
45.98000 371.000
45.99500 381.000
46.01000 374.000
46.02500 362.000
46.04000 377.000
46.05500 356.000
46.07000 381.000
46.08500 400.000
46.10000 395.000
46.11500 356.000
46.13000 350.000
46.14500 393.000
46.16000 376.000
46.17500 385.000
46.19000 368.000
46.20500 386.000
46.22000 388.000
46.23500 394.000
46.25000 357.000
46.26500 366.000
46.28000 377.000
46.29500 387.000
46.31000 386.000
46.32500 388.000
46.34000 404.000
46.35500 382.000
46.37000 360.000
46.38500 346.000
46.40000 386.000
46.41500 377.000
46.43000 379.000
46.44500 373.000
46.46000 351.000
46.47500 348.000
46.49000 350.000
46.50500 343.000
46.52000 361.000
46.53500 360.000
46.55000 360.000
46.56500 356.000
46.58000 367.000
46.59500 349.000
46.61000 338.000
46.62500 342.000
46.64000 315.000
46.65500 324.000
46.67000 348.000
46.68500 330.000
46.70000 350.000
46.71500 367.000
46.73000 376.000
46.74500 346.000
46.76000 330.000
46.77500 348.000
46.79000 337.000
46.80500 337.000
46.82000 332.000
46.83500 359.000
46.85000 347.000
46.86500 338.000
46.88000 359.000
46.89500 338.000
46.91000 338.000
46.92500 335.000
46.94000 323.000
46.95500 326.000
46.97000 340.000
46.98500 347.000
47.00000 353.000
47.01500 363.000
47.03000 334.000
47.04500 334.000
47.06000 336.000
47.07500 329.000
47.09000 334.000
47.10500 340.000
47.12000 346.000
47.13500 344.000
47.15000 332.000
47.16500 301.000
47.18000 322.000
47.19500 321.000
47.21000 331.000
47.22500 310.000
47.24000 311.000
47.25500 316.000
47.27000 314.000
47.28500 307.000
47.30000 311.000
47.31500 316.000
47.33000 307.000
47.34500 299.000
47.36000 320.000
47.37500 301.000
47.39000 315.000
47.40500 320.000
47.42000 304.000
47.43500 299.000
47.45000 309.000
47.46500 318.000
47.48000 292.000
47.49500 315.000
47.51000 293.000
47.52500 318.000
47.54000 275.000
47.55500 276.000
47.57000 299.000
47.58500 313.000
47.60000 284.000
47.61500 291.000
47.63000 283.000
47.64500 291.000
47.66000 310.000
47.67500 300.000
47.69000 297.000
47.70500 300.000
47.72000 299.000
47.73500 276.000
47.75000 296.000
47.76500 283.000
47.78000 304.000
47.79500 280.000
47.81000 311.000
47.82500 300.000
47.84000 290.000
47.85500 289.000
47.87000 282.000
47.88500 310.000
47.90000 302.000
47.91500 327.000
47.93000 305.000
47.94500 298.000
47.96000 308.000
47.97500 295.000
47.99000 316.000
48.00500 316.000
48.02000 303.000
48.03500 292.000
48.05000 302.000
48.06500 276.000
48.08000 296.000
48.09500 315.000
48.11000 288.000
48.12500 309.000
48.14000 307.000
48.15500 302.000
48.17000 311.000
48.18500 292.000
48.20000 305.000
48.21500 308.000
48.23000 258.000
48.24500 280.000
48.26000 293.000
48.27500 286.000
48.29000 292.000
48.30500 320.000
48.32000 308.000
48.33500 287.000
48.35000 273.000
48.36500 277.000
48.38000 288.000
48.39500 281.000
48.41000 268.000
48.42500 279.000
48.44000 277.000
48.45500 257.000
48.47000 269.000
48.48500 262.000
48.50000 257.000
48.51500 296.000
48.53000 270.000
48.54500 296.000
48.56000 314.000
48.57500 321.000
48.59000 260.000
48.60500 291.000
48.62000 293.000
48.63500 292.000
48.65000 287.000
48.66500 283.000
48.68000 304.000
48.69500 284.000
48.71000 263.000
48.72500 273.000
48.74000 304.000
48.75500 297.000
48.77000 284.000
48.78500 274.000
48.80000 284.000
48.81500 281.000
48.83000 272.000
48.84500 264.000
48.86000 264.000
48.87500 265.000
48.89000 321.000
48.90500 294.000
48.92000 277.000
48.93500 291.000
48.95000 251.000
48.96500 255.000
48.98000 254.000
48.99500 254.000
49.01000 270.000
49.02500 279.000
49.04000 253.000
49.05500 264.000
49.07000 277.000
49.08500 301.000
49.10000 285.000
49.11500 268.000
49.13000 276.000
49.14500 258.000
49.16000 264.000
49.17500 287.000
49.19000 278.000
49.20500 247.000
49.22000 283.000
49.23500 265.000
49.25000 258.000
49.26500 281.000
49.28000 304.000
49.29500 299.000
49.31000 292.000
49.32500 271.000
49.34000 284.000
49.35500 290.000
49.37000 291.000
49.38500 290.000
49.40000 273.000
49.41500 272.000
49.43000 309.000
49.44500 313.000
49.46000 272.000
49.47500 257.000
49.49000 287.000
49.50500 284.000
49.52000 267.000
49.53500 281.000
49.55000 271.000
49.56500 265.000
49.58000 273.000
49.59500 262.000
49.61000 268.000
49.62500 282.000
49.64000 258.000
49.65500 294.000
49.67000 282.000
49.68500 280.000
49.70000 307.000
49.71500 293.000
49.73000 275.000
49.74500 254.000
49.76000 269.000
49.77500 267.000
49.79000 304.000
49.80500 256.000
49.82000 276.000
49.83500 279.000
49.85000 285.000
49.86500 293.000
49.88000 278.000
49.89500 267.000
49.91000 265.000
49.92500 276.000
49.94000 276.000
49.95500 281.000
49.97000 294.000
49.98500 277.000
50.00000 307.000
50.01500 294.000
50.03000 295.000
50.04500 300.000
50.06000 318.000
50.07500 371.000
50.09000 340.000
50.10500 316.000
50.12000 317.000
50.13500 346.000
50.15000 315.000
50.16500 315.000
50.18000 319.000
50.19500 312.000
50.21000 299.000
50.22500 299.000
50.24000 313.000
50.25500 304.000
50.27000 286.000
50.28500 285.000
50.30000 286.000
50.31500 286.000
50.33000 271.000
50.34500 295.000
50.36000 296.000
50.37500 274.000
50.39000 290.000
50.40500 273.000
50.42000 281.000
50.43500 275.000
50.45000 263.000
50.46500 280.000
50.48000 288.000
50.49500 281.000
50.51000 273.000
50.52500 291.000
50.54000 261.000
50.55500 287.000
50.57000 273.000
50.58500 279.000
50.60000 292.000
50.61500 293.000
50.63000 305.000
50.64500 306.000
50.66000 288.000
50.67500 310.000
50.69000 310.000
50.70500 282.000
50.72000 283.000
50.73500 289.000
50.75000 274.000
50.76500 273.000
50.78000 288.000
50.79500 289.000
50.81000 266.000
50.82500 269.000
50.84000 299.000
50.85500 301.000
50.87000 275.000
50.88500 307.000
50.90000 313.000
50.91500 287.000
50.93000 306.000
50.94500 293.000
50.96000 295.000
50.97500 300.000
50.99000 279.000
51.00500 301.000
51.02000 276.000
51.03500 299.000
51.05000 264.000
51.06500 295.000
51.08000 323.000
51.09500 307.000
51.11000 298.000
51.12500 287.000
51.14000 256.000
51.15500 272.000
51.17000 292.000
51.18500 270.000
51.20000 297.000
51.21500 287.000
51.23000 283.000
51.24500 266.000
51.26000 265.000
51.27500 305.000
51.29000 246.000
51.30500 279.000
51.32000 292.000
51.33500 286.000
51.35000 293.000
51.36500 270.000
51.38000 266.000
51.39500 259.000
51.41000 277.000
51.42500 279.000
51.44000 294.000
51.45500 294.000
51.47000 293.000
51.48500 310.000
51.50000 295.000
51.51500 287.000
51.53000 275.000
51.54500 298.000
51.56000 281.000
51.57500 293.000
51.59000 289.000
51.60500 322.000
51.62000 297.000
51.63500 280.000
51.65000 291.000
51.66500 322.000
51.68000 279.000
51.69500 296.000
51.71000 282.000
51.72500 291.000
51.74000 277.000
51.75500 265.000
51.77000 279.000
51.78500 287.000
51.80000 271.000
51.81500 301.000
51.83000 277.000
51.84500 286.000
51.86000 273.000
51.87500 244.000
51.89000 270.000
51.90500 285.000
51.92000 284.000
51.93500 288.000
51.95000 262.000
51.96500 282.000
51.98000 266.000
51.99500 264.000
52.01000 263.000
52.02500 273.000
52.04000 258.000
52.05500 289.000
52.07000 275.000
52.08500 287.000
52.10000 286.000
52.11500 266.000
52.13000 281.000
52.14500 267.000
52.16000 263.000
52.17500 282.000
52.19000 261.000
52.20500 229.000
52.22000 244.000
52.23500 270.000
52.25000 265.000
52.26500 230.000
52.28000 237.000
52.29500 271.000
52.31000 275.000
52.32500 275.000
52.34000 275.000
52.35500 247.000
52.37000 234.000
52.38500 278.000
52.40000 264.000
52.41500 252.000
52.43000 239.000
52.44500 276.000
52.46000 277.000
52.47500 305.000
52.49000 291.000
52.50500 257.000
52.52000 268.000
52.53500 287.000
52.55000 272.000
52.56500 269.000
52.58000 255.000
52.59500 299.000
52.61000 271.000
52.62500 262.000
52.64000 256.000
52.65500 282.000
52.67000 298.000
52.68500 287.000
52.70000 283.000
52.71500 287.000
52.73000 283.000
52.74500 293.000
52.76000 302.000
52.77500 303.000
52.79000 277.000
52.80500 292.000
52.82000 304.000
52.83500 288.000
52.85000 278.000
52.86500 309.000
52.88000 270.000
52.89500 279.000
52.91000 301.000
52.92500 300.000
52.94000 294.000
52.95500 291.000
52.97000 268.000
52.98500 282.000
53.00000 264.000
53.01500 277.000
53.03000 291.000
53.04500 296.000
53.06000 303.000
53.07500 303.000
53.09000 289.000
53.10500 289.000
53.12000 288.000
53.13500 279.000
53.15000 294.000
53.16500 313.000
53.18000 314.000
53.19500 313.000
53.21000 285.000
53.22500 281.000
53.24000 276.000
53.25500 276.000
53.27000 279.000
53.28500 271.000
53.30000 265.000
53.31500 282.000
53.33000 289.000
53.34500 252.000
53.36000 252.000
53.37500 302.000
53.39000 300.000
53.40500 273.000
53.42000 273.000
53.43500 269.000
53.45000 269.000
53.46500 264.000
53.48000 284.000
53.49500 281.000
53.51000 268.000
53.52500 274.000
53.54000 282.000
53.55500 279.000
53.57000 264.000
53.58500 261.000
53.60000 256.000
53.61500 271.000
53.63000 272.000
53.64500 252.000
53.66000 258.000
53.67500 259.000
53.69000 263.000
53.70500 270.000
53.72000 275.000
53.73500 268.000
53.75000 240.000
53.76500 231.000
53.78000 243.000
53.79500 275.000
53.81000 261.000
53.82500 278.000
53.84000 259.000
53.85500 265.000
53.87000 268.000
53.88500 267.000
53.90000 276.000
53.91500 279.000
53.93000 292.000
53.94500 268.000
53.96000 299.000
53.97500 300.000
53.99000 276.000
54.00500 296.000
54.02000 255.000
54.03500 284.000
54.05000 261.000
54.06500 263.000
54.08000 283.000
54.09500 285.000
54.11000 286.000
54.12500 262.000
54.14000 265.000
54.15500 280.000
54.17000 260.000
54.18500 260.000
54.20000 250.000
54.21500 272.000
54.23000 270.000
54.24500 283.000
54.26000 271.000
54.27500 270.000
54.29000 282.000
54.30500 279.000
54.32000 302.000
54.33500 271.000
54.35000 274.000
54.36500 272.000
54.38000 267.000
54.39500 279.000
54.41000 266.000
54.42500 236.000
54.44000 259.000
54.45500 261.000
54.47000 255.000
54.48500 275.000
54.50000 259.000
54.51500 266.000
54.53000 276.000
54.54500 288.000
54.56000 258.000
54.57500 282.000
54.59000 259.000
54.60500 272.000
54.62000 267.000
54.63500 269.000
54.65000 272.000
54.66500 279.000
54.68000 251.000
54.69500 278.000
54.71000 261.000
54.72500 269.000
54.74000 261.000
54.75500 261.000
54.77000 267.000
54.78500 245.000
54.80000 258.000
54.81500 275.000
54.83000 270.000
54.84500 264.000
54.86000 270.000
54.87500 240.000
54.89000 252.000
54.90500 279.000
54.92000 239.000
54.93500 239.000
54.95000 256.000
54.96500 265.000
54.98000 262.000
54.99500 269.000
55.01000 275.000
55.02500 260.000
55.04000 243.000
55.05500 248.000
55.07000 238.000
55.08500 268.000
55.10000 263.000
55.11500 262.000
55.13000 248.000
55.14500 244.000
55.16000 268.000
55.17500 252.000
55.19000 259.000
55.20500 254.000
55.22000 237.000
55.23500 265.000
55.25000 239.000
55.26500 258.000
55.28000 245.000
55.29500 254.000
55.31000 254.000
55.32500 262.000
55.34000 247.000
55.35500 261.000
55.37000 266.000
55.38500 255.000
55.40000 236.000
55.41500 252.000
55.43000 280.000
55.44500 246.000
55.46000 237.000
55.47500 250.000
55.49000 239.000
55.50500 246.000
55.52000 232.000
55.53500 255.000
55.55000 241.000
55.56500 267.000
55.58000 244.000
55.59500 249.000
55.61000 262.000
55.62500 273.000
55.64000 251.000
55.65500 257.000
55.67000 233.000
55.68500 224.000
55.70000 240.000
55.71500 266.000
55.73000 253.000
55.74500 235.000
55.76000 233.000
55.77500 255.000
55.79000 269.000
55.80500 258.000
55.82000 248.000
55.83500 245.000
55.85000 263.000
55.86500 258.000
55.88000 266.000
55.89500 264.000
55.91000 246.000
55.92500 248.000
55.94000 262.000
55.95500 268.000
55.97000 250.000
55.98500 264.000
56.00000 247.000
56.01500 257.000
56.03000 238.000
56.04500 235.000
56.06000 240.000
56.07500 254.000
56.09000 267.000
56.10500 255.000
56.12000 237.000
56.13500 250.000
56.15000 247.000
56.16500 262.000
56.18000 275.000
56.19500 235.000
56.21000 230.000
56.22500 242.000
56.24000 241.000
56.25500 253.000
56.27000 261.000
56.28500 227.000
56.30000 254.000
56.31500 257.000
56.33000 256.000
56.34500 267.000
56.36000 250.000
56.37500 260.000
56.39000 253.000
56.40500 241.000
56.42000 256.000
56.43500 252.000
56.45000 240.000
56.46500 242.000
56.48000 247.000
56.49500 255.000
56.51000 267.000
56.52500 262.000
56.54000 271.000
56.55500 251.000
56.57000 235.000
56.58500 256.000
56.60000 259.000
56.61500 252.000
56.63000 246.000
56.64500 288.000
56.66000 265.000
56.67500 262.000
56.69000 275.000
56.70500 267.000
56.72000 245.000
56.73500 236.000
56.75000 249.000
56.76500 252.000
56.78000 237.000
56.79500 253.000
56.81000 281.000
56.82500 281.000
56.84000 274.000
56.85500 236.000
56.87000 245.000
56.88500 285.000
56.90000 273.000
56.91500 257.000
56.93000 257.000
56.94500 261.000
56.96000 278.000
56.97500 278.000
56.99000 282.000
57.00500 271.000
57.02000 285.000
57.03500 279.000
57.05000 278.000
57.06500 269.000
57.08000 271.000
57.09500 301.000
57.11000 283.000
57.12500 265.000
57.14000 274.000
57.15500 286.000
57.17000 257.000
57.18500 268.000
57.20000 302.000
57.21500 261.000
57.23000 276.000
57.24500 269.000
57.26000 272.000
57.27500 300.000
57.29000 289.000
57.30500 303.000
57.32000 298.000
57.33500 301.000
57.35000 290.000
57.36500 284.000
57.38000 260.000
57.39500 302.000
57.41000 309.000
57.42500 296.000
57.44000 302.000
57.45500 286.000
57.47000 306.000
57.48500 286.000
57.50000 293.000
57.51500 287.000
57.53000 257.000
57.54500 270.000
57.56000 271.000
57.57500 275.000
57.59000 268.000
57.60500 289.000
57.62000 295.000
57.63500 274.000
57.65000 274.000
57.66500 297.000
57.68000 265.000
57.69500 292.000
57.71000 288.000
57.72500 294.000
57.74000 269.000
57.75500 278.000
57.77000 291.000
57.78500 293.000
57.80000 320.000
57.81500 284.000
57.83000 290.000
57.84500 289.000
57.86000 279.000
57.87500 274.000
57.89000 274.000
57.90500 288.000
57.92000 290.000
57.93500 270.000
57.95000 259.000
57.96500 283.000
57.98000 286.000
57.99500 276.000
58.01000 313.000
58.02500 273.000
58.04000 261.000
58.05500 288.000
58.07000 273.000
58.08500 281.000
58.10000 262.000
58.11500 289.000
58.13000 279.000
58.14500 279.000
58.16000 277.000
58.17500 271.000
58.19000 263.000
58.20500 272.000
58.22000 297.000
58.23500 315.000
58.25000 282.000
58.26500 260.000
58.28000 274.000
58.29500 275.000
58.31000 252.000
58.32500 279.000
58.34000 267.000
58.35500 273.000
58.37000 290.000
58.38500 280.000
58.40000 289.000
58.41500 276.000
58.43000 267.000
58.44500 251.000
58.46000 261.000
58.47500 264.000
58.49000 273.000
58.50500 278.000
58.52000 262.000
58.53500 275.000
58.55000 248.000
58.56500 240.000
58.58000 260.000
58.59500 244.000
58.61000 274.000
58.62500 274.000
58.64000 237.000
58.65500 257.000
58.67000 229.000
58.68500 245.000
58.70000 267.000
58.71500 251.000
58.73000 273.000
58.74500 243.000
58.76000 257.000
58.77500 245.000
58.79000 229.000
58.80500 232.000
58.82000 257.000
58.83500 262.000
58.85000 268.000
58.86500 243.000
58.88000 231.000
58.89500 233.000
58.91000 277.000
58.92500 285.000
58.94000 255.000
58.95500 243.000
58.97000 250.000
58.98500 252.000
59.00000 227.000
59.01500 230.000
59.03000 232.000
59.04500 230.000
59.06000 246.000
59.07500 257.000
59.09000 247.000
59.10500 241.000
59.12000 256.000
59.13500 256.000
59.15000 262.000
59.16500 259.000
59.18000 262.000
59.19500 253.000
59.21000 255.000
59.22500 231.000
59.24000 260.000
59.25500 263.000
59.27000 218.000
59.28500 230.000
59.30000 256.000
59.31500 238.000
59.33000 253.000
59.34500 254.000
59.36000 246.000
59.37500 276.000
59.39000 249.000
59.40500 239.000
59.42000 262.000
59.43500 261.000
59.45000 251.000
59.46500 232.000
59.48000 239.000
59.49500 238.000
59.51000 257.000
59.52500 249.000
59.54000 255.000
59.55500 224.000
59.57000 237.000
59.58500 252.000
59.60000 220.000
59.61500 243.000
59.63000 238.000
59.64500 249.000
59.66000 254.000
59.67500 247.000
59.69000 237.000
59.70500 230.000
59.72000 256.000
59.73500 246.000
59.75000 244.000
59.76500 242.000
59.78000 260.000
59.79500 253.000
59.81000 234.000
59.82500 222.000
59.84000 266.000
59.85500 248.000
59.87000 243.000
59.88500 249.000
59.90000 244.000
59.91500 232.000
59.93000 237.000
59.94500 229.000
59.96000 236.000
59.97500 229.000
59.99000 232.000
60.00500 232.000
60.02000 235.000
60.03500 236.000
60.05000 239.000
60.06500 236.000
60.08000 240.000
60.09500 233.000
60.11000 227.000
60.12500 222.000
60.14000 218.000
60.15500 233.000
60.17000 234.000
60.18500 247.000
60.20000 238.000
60.21500 229.000
60.23000 254.000
60.24500 260.000
60.26000 243.000
60.27500 235.000
60.29000 233.000
60.30500 213.000
60.32000 212.000
60.33500 248.000
60.35000 225.000
60.36500 231.000
60.38000 235.000
60.39500 252.000
60.41000 252.000
60.42500 257.000
60.44000 266.000
60.45500 242.000
60.47000 240.000
60.48500 253.000
60.50000 231.000
60.51500 243.000
60.53000 250.000
60.54500 238.000
60.56000 234.000
60.57500 243.000
60.59000 250.000
60.60500 257.000
60.62000 246.000
60.63500 231.000
60.65000 240.000
60.66500 248.000
60.68000 246.000
60.69500 244.000
60.71000 219.000
60.72500 218.000
60.74000 209.000
60.75500 238.000
60.77000 256.000
60.78500 238.000
60.80000 243.000
60.81500 255.000
60.83000 253.000
60.84500 225.000
60.86000 232.000
60.87500 245.000
60.89000 234.000
60.90500 218.000
60.92000 230.000
60.93500 246.000
60.95000 244.000
60.96500 238.000
60.98000 224.000
60.99500 247.000
61.01000 247.000
61.02500 263.000
61.04000 234.000
61.05500 241.000
61.07000 223.000
61.08500 247.000
61.10000 226.000
61.11500 220.000
61.13000 224.000
61.14500 229.000
61.16000 250.000
61.17500 243.000
61.19000 238.000
61.20500 235.000
61.22000 214.000
61.23500 231.000
61.25000 252.000
61.26500 233.000
61.28000 227.000
61.29500 235.000
61.31000 232.000
61.32500 239.000
61.34000 228.000
61.35500 221.000
61.37000 221.000
61.38500 215.000
61.40000 234.000
61.41500 215.000
61.43000 226.000
61.44500 205.000
61.46000 227.000
61.47500 239.000
61.49000 216.000
61.50500 245.000
61.52000 247.000
61.53500 231.000
61.55000 257.000
61.56500 239.000
61.58000 228.000
61.59500 237.000
61.61000 234.000
61.62500 210.000
61.64000 198.000
61.65500 233.000
61.67000 213.000
61.68500 239.000
61.70000 237.000
61.71500 237.000
61.73000 241.000
61.74500 255.000
61.76000 229.000
61.77500 224.000
61.79000 224.000
61.80500 227.000
61.82000 241.000
61.83500 230.000
61.85000 216.000
61.86500 213.000
61.88000 225.000
61.89500 222.000
61.91000 225.000
61.92500 219.000
61.94000 235.000
61.95500 238.000
61.97000 220.000
61.98500 235.000
