2.00000 2.000
2.01500 4.000
2.03000 1.000
2.04500 4.000
2.06000 4.000
2.07500 3.000
2.09000 2.000
2.10500 4.000
2.12000 2.000
2.13500 4.000
2.15000 2.000
2.16500 1.000
2.18000 4.000
2.19500 5.000
2.21000 4.000
2.22500 5.000
2.24000 4.000
2.25500 3.000
2.27000 5.000
2.28500 6.000
2.30000 3.000
2.31500 4.000
2.33000 7.000
2.34500 4.000
2.36000 3.000
2.37500 2.000
2.39000 7.000
2.40500 10.000
2.42000 5.000
2.43500 3.000
2.45000 5.000
2.46500 5.000
2.48000 3.000
2.49500 2.000
2.51000 5.000
2.52500 5.000
2.54000 4.000
2.55500 3.000
2.57000 3.000
2.58500 2.000
2.60000 3.000
2.61500 4.000
2.63000 4.000
2.64500 5.000
2.66000 1.000
2.67500 4.000
2.69000 8.000
2.70500 13.000
2.72000 15.000
2.73500 16.000
2.75000 24.000
2.76500 34.000
2.78000 39.000
2.79500 57.000
2.81000 73.000
2.82500 86.000
2.84000 131.000
2.85500 147.000
2.87000 185.000
2.88500 222.000
2.90000 231.000
2.91500 258.000
2.93000 266.000
2.94500 262.000
2.96000 269.000
2.97500 259.000
2.99000 254.000
3.00500 250.000
3.02000 267.000
3.03500 259.000
3.05000 274.000
3.06500 265.000
3.08000 254.000
3.09500 267.000
3.11000 258.000
3.12500 263.000
3.14000 250.000
3.15500 261.000
3.17000 254.000
3.18500 253.000
3.20000 273.000
3.21500 278.000
3.23000 293.000
3.24500 286.000
3.26000 276.000
3.27500 259.000
3.29000 282.000
3.30500 279.000
3.32000 292.000
3.33500 282.000
3.35000 271.000
3.36500 277.000
3.38000 293.000
3.39500 279.000
3.41000 266.000
3.42500 260.000
3.44000 299.000
3.45500 305.000
3.47000 303.000
3.48500 285.000
3.50000 321.000
3.51500 309.000
3.53000 297.000
3.54500 307.000
3.56000 294.000
3.57500 299.000
3.59000 290.000
3.60500 314.000
3.62000 334.000
3.63500 324.000
3.65000 300.000
3.66500 313.000
3.68000 312.000
3.69500 320.000
3.71000 329.000
3.72500 304.000
3.74000 312.000
3.75500 296.000
3.77000 322.000
3.78500 325.000
3.80000 301.000
3.81500 283.000
3.83000 295.000
3.84500 290.000
3.86000 312.000
3.87500 322.000
3.89000 308.000
3.90500 335.000
3.92000 324.000
3.93500 317.000
3.95000 343.000
3.96500 339.000
3.98000 371.000
3.99500 351.000
4.01000 329.000
4.02500 335.000
4.04000 323.000
4.05500 319.000
4.07000 367.000
4.08500 349.000
4.10000 327.000
4.11500 300.000
4.13000 317.000
4.14500 345.000
4.16000 337.000
4.17500 348.000
4.19000 343.000
4.20500 346.000
4.22000 331.000
4.23500 363.000
4.25000 343.000
4.26500 362.000
4.28000 344.000
4.29500 342.000
4.31000 323.000
4.32500 352.000
4.34000 350.000
4.35500 349.000
4.37000 346.000
4.38500 359.000
4.40000 383.000
4.41500 341.000
4.43000 365.000
4.44500 338.000
4.46000 331.000
4.47500 342.000
4.49000 361.000
4.50500 375.000
4.52000 358.000
4.53500 361.000
4.55000 347.000
4.56500 359.000
4.58000 349.000
4.59500 370.000
4.61000 366.000
4.62500 374.000
4.64000 354.000
4.65500 352.000
4.67000 361.000
4.68500 343.000
4.70000 356.000
4.71500 351.000
4.73000 350.000
4.74500 374.000
4.76000 379.000
4.77500 390.000
4.79000 370.000
4.80500 375.000
4.82000 365.000
4.83500 380.000
4.85000 367.000
4.86500 378.000
4.88000 381.000
4.89500 380.000
4.91000 380.000
4.92500 366.000
4.94000 400.000
4.95500 371.000
4.97000 382.000
4.98500 411.000
5.00000 386.000
5.01500 393.000
5.03000 379.000
5.04500 366.000
5.06000 358.000
5.07500 338.000
5.09000 368.000
5.10500 373.000
5.12000 375.000
5.13500 385.000
5.15000 412.000
5.16500 412.000
5.18000 407.000
5.19500 393.000
5.21000 399.000
5.22500 402.000
5.24000 394.000
5.25500 389.000
5.27000 410.000
5.28500 387.000
5.30000 389.000
5.31500 399.000
5.33000 367.000
5.34500 399.000
5.36000 376.000
5.37500 396.000
5.39000 391.000
5.40500 400.000
5.42000 424.000
5.43500 401.000
5.45000 375.000
5.46500 395.000
5.48000 398.000
5.49500 418.000
5.51000 422.000
5.52500 407.000
5.54000 398.000
5.55500 398.000
5.57000 414.000
5.58500 433.000
5.60000 415.000
5.61500 435.000
5.63000 413.000
5.64500 402.000
5.66000 412.000
5.67500 407.000
5.69000 402.000
5.70500 412.000
5.72000 400.000
5.73500 398.000
5.75000 402.000
5.76500 419.000
5.78000 419.000
5.79500 407.000
5.81000 438.000
5.82500 413.000
5.84000 414.000
5.85500 438.000
5.87000 407.000
5.88500 421.000
5.90000 425.000
5.91500 422.000
5.93000 432.000
5.94500 418.000
5.96000 435.000
5.97500 387.000
5.99000 396.000
6.00500 423.000
6.02000 425.000
6.03500 455.000
6.05000 459.000
6.06500 418.000
6.08000 413.000
6.09500 433.000
6.11000 460.000
6.12500 437.000
6.14000 426.000
6.15500 422.000
6.17000 434.000
6.18500 402.000
6.20000 409.000
6.21500 442.000
6.23000 448.000
6.24500 449.000
6.26000 446.000
6.27500 447.000
6.29000 442.000
6.30500 443.000
6.32000 458.000
6.33500 441.000
6.35000 437.000
6.36500 419.000
6.38000 421.000
6.39500 435.000
6.41000 425.000
6.42500 449.000
6.44000 437.000
6.45500 464.000
6.47000 466.000
6.48500 451.000
6.50000 445.000
6.51500 442.000
6.53000 452.000
6.54500 459.000
6.56000 444.000
6.57500 441.000
6.59000 448.000
6.60500 468.000
6.62000 462.000
6.63500 413.000
6.65000 444.000
6.66500 465.000
6.68000 484.000
6.69500 455.000
6.71000 447.000
6.72500 487.000
6.74000 451.000
6.75500 439.000
6.77000 459.000
6.78500 455.000
6.80000 465.000
6.81500 464.000
6.83000 454.000
6.84500 448.000
6.86000 456.000
6.87500 458.000
6.89000 462.000
6.90500 439.000
6.92000 467.000
6.93500 455.000
6.95000 425.000
6.96500 459.000
6.98000 440.000
6.99500 467.000
7.01000 469.000
7.02500 461.000
7.04000 474.000
7.05500 474.000
7.07000 471.000
7.08500 437.000
7.10000 472.000
7.11500 479.000
7.13000 451.000
7.14500 460.000
7.16000 443.000
7.17500 474.000
7.19000 475.000
7.20500 441.000
7.22000 476.000
7.23500 480.000
7.25000 451.000
7.26500 469.000
7.28000 433.000
7.29500 475.000
7.31000 467.000
7.32500 494.000
7.34000 462.000
7.35500 486.000
7.37000 476.000
7.38500 486.000
7.40000 484.000
7.41500 488.000
7.43000 505.000
7.44500 494.000
7.46000 514.000
7.47500 526.000
7.49000 497.000
7.50500 482.000
7.52000 530.000
7.53500 512.000
7.55000 511.000
7.56500 501.000
7.58000 504.000
7.59500 577.000
7.61000 577.000
7.62500 590.000
7.64000 583.000
7.65500 601.000
7.67000 585.000
7.68500 599.000
7.70000 604.000
7.71500 643.000
7.73000 666.000
7.74500 700.000
7.76000 785.000
7.77500 784.000
7.79000 792.000
7.80500 868.000
7.82000 913.000
7.83500 969.000
7.85000 1053.000
7.86500 1116.000
7.88000 1184.000
7.89500 1327.000
7.91000 1423.000
7.92500 1562.000
7.94000 1770.000
7.95500 1892.000
7.97000 1907.000
7.98500 1758.000
8.00000 1525.000
8.01500 1219.000
8.03000 1037.000
8.04500 996.000
8.06000 883.000
8.07500 840.000
8.09000 737.000
8.10500 776.000
8.12000 764.000
8.13500 733.000
8.15000 672.000
8.16500 635.000
8.18000 605.000
8.19500 579.000
8.21000 603.000
8.22500 644.000
8.24000 628.000
8.25500 621.000
8.27000 609.000
8.28500 577.000
8.30000 586.000
8.31500 599.000
8.33000 578.000
8.34500 587.000
8.36000 605.000
8.37500 562.000
8.39000 578.000
8.40500 611.000
8.42000 569.000
8.43500 550.000
8.45000 553.000
8.46500 536.000
8.48000 537.000
8.49500 567.000
8.51000 555.000
8.52500 544.000
8.54000 533.000
8.55500 509.000
8.57000 539.000
8.58500 565.000
8.60000 565.000
8.61500 567.000
8.63000 522.000
8.64500 541.000
8.66000 538.000
8.67500 534.000
8.69000 556.000
8.70500 534.000
8.72000 512.000
8.73500 521.000
8.75000 515.000
8.76500 539.000
8.78000 525.000
8.79500 550.000
8.81000 525.000
8.82500 552.000
8.84000 555.000
8.85500 571.000
8.87000 532.000
8.88500 525.000
8.90000 543.000
8.91500 522.000
8.93000 547.000
8.94500 525.000
8.96000 516.000
8.97500 551.000
8.99000 531.000
9.00500 512.000
9.02000 524.000
9.03500 538.000
9.05000 546.000
9.06500 533.000
9.08000 536.000
9.09500 563.000
9.11000 565.000
9.12500 507.000
9.14000 533.000
9.15500 527.000
9.17000 520.000
9.18500 531.000
9.20000 507.000
9.21500 529.000
9.23000 532.000
9.24500 540.000
9.26000 552.000
9.27500 536.000
9.29000 544.000
9.30500 549.000
9.32000 558.000
9.33500 553.000
9.35000 529.000
9.36500 522.000
9.38000 574.000
9.39500 578.000
9.41000 540.000
9.42500 553.000
9.44000 535.000
9.45500 559.000
9.47000 581.000
9.48500 541.000
9.50000 524.000
9.51500 577.000
9.53000 563.000
9.54500 577.000
9.56000 543.000
9.57500 553.000
9.59000 557.000
9.60500 576.000
9.62000 597.000
9.63500 543.000
9.65000 560.000
9.66500 610.000
9.68000 571.000
9.69500 571.000
9.71000 598.000
9.72500 645.000
9.74000 627.000
9.75500 591.000
9.77000 591.000
9.78500 597.000
9.80000 649.000
9.81500 674.000
9.83000 650.000
9.84500 640.000
9.86000 663.000
9.87500 675.000
9.89000 704.000
9.90500 718.000
9.92000 727.000
9.93500 763.000
9.95000 792.000
9.96500 813.000
9.98000 834.000
9.99500 874.000
10.01000 912.000
10.02500 951.000
10.04000 954.000
10.05500 966.000
10.07000 1038.000
10.08500 995.000
10.10000 988.000
10.11500 996.000
10.13000 930.000
10.14500 923.000
10.16000 904.000
10.17500 879.000
10.19000 775.000
10.20500 765.000
10.22000 747.000
10.23500 718.000
10.25000 734.000
10.26500 641.000
10.28000 661.000
10.29500 624.000
10.31000 624.000
10.32500 622.000
10.34000 628.000
10.35500 611.000
10.37000 590.000
10.38500 608.000
10.40000 598.000
10.41500 582.000
10.43000 586.000
10.44500 580.000
10.46000 590.000
10.47500 551.000
10.49000 561.000
10.50500 574.000
10.52000 571.000
10.53500 523.000
10.55000 506.000
10.56500 518.000
10.58000 532.000
10.59500 543.000
10.61000 518.000
10.62500 548.000
10.64000 512.000
10.65500 549.000
10.67000 558.000
10.68500 514.000
10.70000 526.000
10.71500 506.000
10.73000 530.000
10.74500 515.000
10.76000 511.000
10.77500 518.000
10.79000 529.000
10.80500 495.000
10.82000 502.000
10.83500 525.000
10.85000 525.000
10.86500 512.000
10.88000 547.000
10.89500 497.000
10.91000 501.000
10.92500 496.000
10.94000 528.000
10.95500 522.000
10.97000 513.000
10.98500 525.000
11.00000 490.000
11.01500 514.000
11.03000 535.000
11.04500 503.000
11.06000 508.000
11.07500 473.000
11.09000 502.000
11.10500 501.000
11.12000 510.000
11.13500 520.000
11.15000 555.000
11.16500 481.000
11.18000 516.000
11.19500 514.000
11.21000 507.000
11.22500 524.000
11.24000 528.000
11.25500 510.000
11.27000 512.000
11.28500 514.000
11.30000 492.000
11.31500 520.000
11.33000 517.000
11.34500 513.000
11.36000 532.000
11.37500 514.000
11.39000 509.000
11.40500 510.000
11.42000 510.000
11.43500 475.000
11.45000 511.000
11.46500 494.000
11.48000 522.000
11.49500 528.000
11.51000 546.000
11.52500 544.000
11.54000 508.000
11.55500 500.000
11.57000 517.000
11.58500 506.000
11.60000 493.000
11.61500 494.000
11.63000 511.000
11.64500 523.000
11.66000 527.000
11.67500 536.000
11.69000 525.000
11.70500 500.000
11.72000 477.000
11.73500 524.000
11.75000 503.000
11.76500 505.000
11.78000 513.000
11.79500 517.000
11.81000 503.000
11.82500 513.000
11.84000 488.000
11.85500 467.000
11.87000 488.000
11.88500 526.000
11.90000 533.000
11.91500 496.000
11.93000 531.000
11.94500 493.000
11.96000 463.000
11.97500 505.000
11.99000 503.000
12.00500 514.000
12.02000 528.000
12.03500 504.000
12.05000 515.000
12.06500 500.000
12.08000 508.000
12.09500 506.000
12.11000 524.000
12.12500 487.000
12.14000 477.000
12.15500 506.000
12.17000 504.000
12.18500 519.000
12.20000 512.000
12.21500 493.000
12.23000 525.000
12.24500 516.000
12.26000 504.000
12.27500 508.000
12.29000 506.000
12.30500 511.000
12.32000 495.000
12.33500 518.000
12.35000 485.000
12.36500 497.000
12.38000 493.000
12.39500 491.000
12.41000 495.000
12.42500 504.000
12.44000 520.000
12.45500 467.000
12.47000 505.000
12.48500 512.000
12.50000 521.000
12.51500 542.000
12.53000 491.000
12.54500 500.000
12.56000 511.000
12.57500 489.000
12.59000 513.000
12.60500 510.000
12.62000 510.000
12.63500 526.000
12.65000 541.000
12.66500 496.000
12.68000 535.000
12.69500 498.000
12.71000 487.000
12.72500 494.000
12.74000 499.000
12.75500 520.000
12.77000 462.000
12.78500 504.000
12.80000 509.000
12.81500 488.000
12.83000 522.000
12.84500 499.000
12.86000 491.000
12.87500 507.000
12.89000 507.000
12.90500 480.000
12.92000 512.000
12.93500 461.000
12.95000 469.000
12.96500 504.000
12.98000 501.000
12.99500 518.000
13.01000 487.000
13.02500 466.000
13.04000 460.000
13.05500 484.000
13.07000 495.000
13.08500 501.000
13.10000 501.000
13.11500 466.000
13.13000 473.000
13.14500 456.000
13.16000 473.000
13.17500 498.000
13.19000 498.000
13.20500 511.000
13.22000 500.000
13.23500 471.000
13.25000 504.000
13.26500 484.000
13.28000 505.000
13.29500 499.000
13.31000 469.000
13.32500 491.000
13.34000 484.000
13.35500 512.000
13.37000 482.000
13.38500 498.000
13.40000 482.000
13.41500 469.000
13.43000 470.000
13.44500 508.000
13.46000 523.000
13.47500 510.000
13.49000 499.000
13.50500 482.000
13.52000 490.000
13.53500 487.000
13.55000 508.000
13.56500 509.000
13.58000 483.000
13.59500 473.000
13.61000 474.000
13.62500 505.000
13.64000 489.000
13.65500 479.000
13.67000 505.000
13.68500 469.000
13.70000 498.000
13.71500 478.000
13.73000 500.000
13.74500 508.000
13.76000 518.000
13.77500 506.000
13.79000 518.000
13.80500 466.000
13.82000 483.000
13.83500 486.000
13.85000 515.000
13.86500 498.000
13.88000 499.000
13.89500 466.000
13.91000 491.000
13.92500 500.000
13.94000 500.000
13.95500 493.000
13.97000 499.000
13.98500 500.000
14.00000 476.000
14.01500 487.000
14.03000 527.000
14.04500 523.000
14.06000 516.000
14.07500 503.000
14.09000 471.000
14.10500 492.000
14.12000 500.000
14.13500 509.000
14.15000 520.000
14.16500 468.000
14.18000 484.000
14.19500 521.000
14.21000 503.000
14.22500 504.000
14.24000 520.000
14.25500 502.000
14.27000 492.000
14.28500 495.000
14.30000 495.000
14.31500 500.000
14.33000 482.000
14.34500 494.000
14.36000 490.000
14.37500 460.000
14.39000 485.000
14.40500 517.000
14.42000 471.000
14.43500 467.000
14.45000 493.000
14.46500 523.000
14.48000 478.000
14.49500 517.000
14.51000 519.000
14.52500 465.000
14.54000 459.000
14.55500 520.000
14.57000 532.000
14.58500 509.000
14.60000 491.000
14.61500 483.000
14.63000 463.000
14.64500 482.000
14.66000 543.000
14.67500 510.000
14.69000 480.000
14.70500 474.000
14.72000 494.000
14.73500 474.000
14.75000 526.000
14.76500 538.000
14.78000 503.000
14.79500 528.000
14.81000 512.000
14.82500 539.000
14.84000 503.000
14.85500 511.000
14.87000 510.000
14.88500 486.000
14.90000 517.000
14.91500 569.000
14.93000 513.000
14.94500 521.000
14.96000 566.000
14.97500 574.000
14.99000 561.000
15.00500 602.000
15.02000 571.000
15.03500 540.000
15.05000 591.000
15.06500 571.000
15.08000 567.000
15.09500 588.000
15.11000 637.000
15.12500 615.000
15.14000 614.000
15.15500 620.000
15.17000 623.000
15.18500 605.000
15.20000 603.000
15.21500 602.000
15.23000 570.000
15.24500 565.000
15.26000 595.000
15.27500 588.000
15.29000 554.000
15.30500 537.000
15.32000 567.000
15.33500 538.000
15.35000 526.000
15.36500 508.000
15.38000 529.000
15.39500 504.000
15.41000 517.000
15.42500 548.000
15.44000 497.000
15.45500 483.000
15.47000 515.000
15.48500 473.000
15.50000 517.000
15.51500 528.000
15.53000 489.000
15.54500 509.000
15.56000 539.000
15.57500 505.000
15.59000 529.000
15.60500 495.000
15.62000 499.000
15.63500 516.000
15.65000 501.000
15.66500 482.000
15.68000 482.000
15.69500 528.000
15.71000 529.000
15.72500 464.000
15.74000 498.000
15.75500 497.000
15.77000 494.000
15.78500 517.000
15.80000 491.000
15.81500 465.000
15.83000 506.000
15.84500 470.000
15.86000 472.000
15.87500 449.000
15.89000 472.000
15.90500 491.000
15.92000 497.000
15.93500 484.000
15.95000 494.000
15.96500 493.000
15.98000 473.000
15.99500 511.000
16.01000 497.000
16.02500 484.000
16.04000 506.000
16.05500 471.000
16.07000 505.000
16.08500 504.000
16.10000 491.000
16.11500 490.000
16.13000 501.000
16.14500 475.000
16.16000 494.000
16.17500 483.000
16.19000 492.000
16.20500 469.000
16.22000 469.000
16.23500 500.000
16.25000 483.000
16.26500 511.000
16.28000 481.000
16.29500 505.000
16.31000 521.000
16.32500 485.000
16.34000 456.000
16.35500 459.000
16.37000 483.000
16.38500 498.000
16.40000 472.000
16.41500 502.000
16.43000 517.000
16.44500 462.000
16.46000 504.000
16.47500 498.000
16.49000 456.000
16.50500 479.000
16.52000 510.000
16.53500 481.000
16.55000 484.000
16.56500 470.000
16.58000 498.000
16.59500 469.000
16.61000 490.000
16.62500 485.000
16.64000 464.000
16.65500 525.000
16.67000 497.000
16.68500 500.000
16.70000 491.000
16.71500 463.000
16.73000 485.000
16.74500 469.000
16.76000 509.000
16.77500 489.000
16.79000 480.000
16.80500 485.000
16.82000 524.000
16.83500 477.000
16.85000 473.000
16.86500 451.000
16.88000 472.000
16.89500 489.000
16.91000 512.000
16.92500 493.000
16.94000 489.000
16.95500 489.000
16.97000 508.000
16.98500 505.000
17.00000 510.000
17.01500 508.000
17.03000 511.000
17.04500 492.000
17.06000 511.000
17.07500 482.000
17.09000 500.000
17.10500 475.000
17.12000 494.000
17.13500 527.000
17.15000 516.000
17.16500 514.000
17.18000 530.000
17.19500 522.000
17.21000 508.000
17.22500 478.000
17.24000 495.000
17.25500 517.000
17.27000 507.000
17.28500 475.000
17.30000 484.000
17.31500 499.000
17.33000 493.000
17.34500 490.000
17.36000 469.000
17.37500 486.000
17.39000 484.000
17.40500 500.000
17.42000 462.000
17.43500 490.000
17.45000 509.000
17.46500 470.000
17.48000 493.000
17.49500 493.000
17.51000 502.000
17.52500 492.000
17.54000 477.000
17.55500 504.000
17.57000 472.000
17.58500 536.000
17.60000 503.000
17.61500 488.000
17.63000 478.000
17.64500 469.000
17.66000 498.000
17.67500 491.000
17.69000 461.000
17.70500 475.000
17.72000 488.000
17.73500 510.000
17.75000 504.000
17.76500 471.000
17.78000 501.000
17.79500 515.000
17.81000 478.000
17.82500 470.000
17.84000 500.000
17.85500 483.000
17.87000 473.000
17.88500 488.000
17.90000 523.000
17.91500 477.000
17.93000 519.000
17.94500 492.000
17.96000 485.000
17.97500 535.000
17.99000 535.000
18.00500 507.000
18.02000 494.000
18.03500 496.000
18.05000 521.000
18.06500 493.000
18.08000 516.000
18.09500 530.000
18.11000 541.000
18.12500 512.000
18.14000 488.000
18.15500 490.000
18.17000 531.000
18.18500 523.000
18.20000 511.000
18.21500 536.000
18.23000 538.000
18.24500 511.000
18.26000 517.000
18.27500 509.000
18.29000 500.000
18.30500 559.000
18.32000 546.000
18.33500 536.000
18.35000 571.000
18.36500 558.000
18.38000 553.000
18.39500 554.000
18.41000 577.000
18.42500 577.000
18.44000 559.000
18.45500 560.000
18.47000 587.000
18.48500 573.000
18.50000 559.000
18.51500 622.000
18.53000 628.000
18.54500 612.000
18.56000 648.000
18.57500 645.000
18.59000 652.000
18.60500 670.000
18.62000 754.000
18.63500 737.000
18.65000 692.000
18.66500 661.000
18.68000 683.000
18.69500 716.000
18.71000 621.000
18.72500 664.000
18.74000 634.000
18.75500 598.000
18.77000 596.000
18.78500 611.000
18.80000 601.000
18.81500 546.000
18.83000 584.000
18.84500 555.000
18.86000 536.000
18.87500 553.000
18.89000 564.000
18.90500 500.000
18.92000 552.000
18.93500 551.000
18.95000 539.000
18.96500 536.000
18.98000 553.000
18.99500 573.000
19.01000 556.000
19.02500 536.000
19.04000 533.000
19.05500 488.000
19.07000 501.000
19.08500 501.000
19.10000 527.000
19.11500 511.000
19.13000 535.000
19.14500 528.000
19.16000 526.000
19.17500 517.000
19.19000 512.000
19.20500 511.000
19.22000 514.000
19.23500 530.000
19.25000 507.000
19.26500 507.000
19.28000 507.000
19.29500 489.000
19.31000 493.000
19.32500 508.000
19.34000 529.000
19.35500 520.000
19.37000 526.000
19.38500 532.000
19.40000 537.000
19.41500 494.000
19.43000 510.000
19.44500 534.000
19.46000 544.000
19.47500 528.000
19.49000 526.000
19.50500 514.000
19.52000 506.000
19.53500 512.000
19.55000 509.000
19.56500 522.000
19.58000 512.000
19.59500 508.000
19.61000 536.000
19.62500 528.000
19.64000 489.000
19.65500 523.000
19.67000 507.000
19.68500 515.000
19.70000 503.000
19.71500 481.000
19.73000 502.000
19.74500 543.000
19.76000 536.000
19.77500 503.000
19.79000 516.000
19.80500 488.000
19.82000 507.000
19.83500 534.000
19.85000 514.000
19.86500 540.000
19.88000 510.000
19.89500 502.000
19.91000 545.000
19.92500 522.000
19.94000 519.000
19.95500 511.000
19.97000 520.000
19.98500 539.000
20.00000 538.000
20.01500 530.000
20.03000 566.000
20.04500 560.000
20.06000 529.000
20.07500 518.000
20.09000 511.000
20.10500 518.000
20.12000 559.000
20.13500 528.000
20.15000 557.000
20.16500 517.000
20.18000 532.000
20.19500 537.000
20.21000 549.000
20.22500 512.000
20.24000 519.000
20.25500 512.000
20.27000 514.000
20.28500 517.000
20.30000 531.000
20.31500 560.000
20.33000 525.000
20.34500 501.000
20.36000 535.000
20.37500 554.000
20.39000 538.000
20.40500 554.000
20.42000 526.000
20.43500 527.000
20.45000 536.000
20.46500 551.000
20.48000 565.000
20.49500 544.000
20.51000 555.000
20.52500 584.000
20.54000 553.000
20.55500 548.000
20.57000 534.000
20.58500 538.000
20.60000 541.000
20.61500 534.000
20.63000 565.000
20.64500 543.000
20.66000 510.000
20.67500 552.000
20.69000 541.000
20.70500 519.000
20.72000 497.000
20.73500 564.000
20.75000 523.000
20.76500 512.000
20.78000 524.000
20.79500 549.000
20.81000 572.000
20.82500 582.000
20.84000 542.000
20.85500 547.000
20.87000 547.000
20.88500 544.000
20.90000 546.000
20.91500 552.000
20.93000 558.000
20.94500 551.000
20.96000 557.000
20.97500 555.000
20.99000 560.000
21.00500 561.000
21.02000 521.000
21.03500 559.000
21.05000 537.000
21.06500 555.000
21.08000 563.000
21.09500 540.000
21.11000 595.000
21.12500 569.000
21.14000 568.000
21.15500 538.000
21.17000 551.000
21.18500 541.000
21.20000 581.000
21.21500 578.000
21.23000 563.000
21.24500 591.000
21.26000 594.000
21.27500 587.000
21.29000 589.000
21.30500 579.000
21.32000 575.000
21.33500 568.000
21.35000 595.000
21.36500 570.000
21.38000 586.000
21.39500 605.000
21.41000 602.000
21.42500 553.000
21.44000 578.000
21.45500 528.000
21.47000 541.000
21.48500 561.000
21.50000 568.000
21.51500 597.000
21.53000 594.000
21.54500 600.000
21.56000 570.000
21.57500 574.000
21.59000 613.000
21.60500 601.000
21.62000 581.000
21.63500 592.000
21.65000 605.000
21.66500 606.000
21.68000 593.000
21.69500 616.000
21.71000 598.000
21.72500 611.000
21.74000 610.000
21.75500 616.000
21.77000 592.000
21.78500 604.000
21.80000 636.000
21.81500 645.000
21.83000 646.000
21.84500 662.000
21.86000 672.000
21.87500 660.000
21.89000 647.000
21.90500 655.000
21.92000 691.000
21.93500 687.000
21.95000 686.000
21.96500 721.000
21.98000 700.000
21.99500 712.000
22.01000 722.000
22.02500 681.000
22.04000 701.000
22.05500 734.000
22.07000 766.000
22.08500 762.000
22.10000 754.000
22.11500 724.000
22.13000 735.000
22.14500 750.000
22.16000 698.000
22.17500 711.000
22.19000 697.000
22.20500 680.000
22.22000 696.000
22.23500 731.000
22.25000 676.000
22.26500 702.000
22.28000 691.000
22.29500 672.000
22.31000 680.000
22.32500 643.000
22.34000 663.000
22.35500 669.000
22.37000 687.000
22.38500 624.000
22.40000 624.000
22.41500 651.000
22.43000 658.000
22.44500 629.000
22.46000 691.000
22.47500 672.000
22.49000 627.000
22.50500 666.000
22.52000 631.000
22.53500 647.000
22.55000 664.000
22.56500 681.000
22.58000 675.000
22.59500 660.000
22.61000 672.000
22.62500 662.000
22.64000 656.000
22.65500 674.000
22.67000 716.000
22.68500 696.000
22.70000 680.000
22.71500 689.000
22.73000 725.000
22.74500 754.000
22.76000 775.000
22.77500 781.000
22.79000 778.000
22.80500 829.000
22.82000 827.000
22.83500 818.000
22.85000 869.000
22.86500 876.000
22.88000 848.000
22.89500 897.000
22.91000 879.000
22.92500 867.000
22.94000 899.000
22.95500 913.000
22.97000 936.000
22.98500 899.000
23.00000 882.000
23.01500 887.000
23.03000 810.000
23.04500 860.000
23.06000 852.000
23.07500 846.000
23.09000 822.000
23.10500 811.000
23.12000 814.000
23.13500 803.000
23.15000 793.000
23.16500 821.000
23.18000 776.000
23.19500 751.000
23.21000 731.000
23.22500 752.000
23.24000 719.000
23.25500 673.000
23.27000 681.000
23.28500 705.000
23.30000 700.000
23.31500 696.000
23.33000 715.000
23.34500 712.000
23.36000 696.000
23.37500 701.000
23.39000 746.000
23.40500 734.000
23.42000 683.000
23.43500 691.000
23.45000 669.000
23.46500 639.000
23.48000 676.000
23.49500 663.000
23.51000 652.000
23.52500 605.000
23.54000 679.000
23.55500 682.000
23.57000 696.000
23.58500 697.000
23.60000 670.000
23.61500 712.000
23.63000 679.000
23.64500 709.000
23.66000 664.000
23.67500 688.000
23.69000 668.000
23.70500 636.000
23.72000 653.000
23.73500 662.000
23.75000 673.000
23.76500 661.000
23.78000 673.000
23.79500 676.000
23.81000 638.000
23.82500 664.000
23.84000 659.000
23.85500 651.000
23.87000 663.000
23.88500 657.000
23.90000 692.000
23.91500 659.000
23.93000 682.000
23.94500 676.000
23.96000 658.000
23.97500 676.000
23.99000 675.000
24.00500 658.000
24.02000 689.000
24.03500 745.000
24.05000 716.000
24.06500 700.000
24.08000 737.000
24.09500 694.000
24.11000 699.000
24.12500 700.000
24.14000 696.000
24.15500 706.000
24.17000 660.000
24.18500 671.000
24.20000 719.000
24.21500 709.000
24.23000 695.000
24.24500 712.000
24.26000 649.000
24.27500 749.000
24.29000 699.000
24.30500 719.000
24.32000 702.000
24.33500 760.000
24.35000 741.000
24.36500 756.000
24.38000 781.000
24.39500 767.000
24.41000 749.000
24.42500 721.000
24.44000 759.000
24.45500 749.000
24.47000 765.000
24.48500 774.000
24.50000 781.000
24.51500 748.000
24.53000 782.000
24.54500 751.000
24.56000 770.000
24.57500 728.000
24.59000 798.000
24.60500 815.000
24.62000 763.000
24.63500 748.000
24.65000 755.000
24.66500 793.000
24.68000 793.000
24.69500 806.000
24.71000 793.000
24.72500 787.000
24.74000 789.000
24.75500 765.000
24.77000 805.000
24.78500 796.000
24.80000 786.000
24.81500 773.000
24.83000 740.000
24.84500 759.000
24.86000 759.000
24.87500 763.000
24.89000 777.000
24.90500 767.000
24.92000 760.000
24.93500 786.000
24.95000 745.000
24.96500 778.000
24.98000 764.000
24.99500 780.000
25.01000 764.000
25.02500 799.000
25.04000 752.000
25.05500 766.000
25.07000 743.000
25.08500 750.000
25.10000 797.000
25.11500 781.000
25.13000 744.000
25.14500 751.000
25.16000 768.000
25.17500 747.000
25.19000 770.000
25.20500 783.000
25.22000 775.000
25.23500 767.000
25.25000 819.000
25.26500 758.000
25.28000 770.000
25.29500 832.000
25.31000 846.000
25.32500 833.000
25.34000 776.000
25.35500 811.000
25.37000 772.000
25.38500 800.000
25.40000 813.000
25.41500 793.000
25.43000 814.000
25.44500 847.000
25.46000 844.000
25.47500 843.000
25.49000 875.000
25.50500 817.000
25.52000 833.000
25.53500 859.000
25.55000 853.000
25.56500 856.000
25.58000 848.000
25.59500 875.000
25.61000 873.000
25.62500 936.000
25.64000 898.000
25.65500 894.000
25.67000 889.000
25.68500 900.000
25.70000 884.000
25.71500 917.000
25.73000 910.000
25.74500 903.000
25.76000 879.000
25.77500 920.000
25.79000 937.000
25.80500 910.000
25.82000 883.000
25.83500 886.000
25.85000 847.000
25.86500 846.000
25.88000 863.000
25.89500 829.000
25.91000 846.000
25.92500 816.000
25.94000 820.000
25.95500 867.000
25.97000 856.000
25.98500 884.000
26.00000 860.000
26.01500 824.000
26.03000 804.000
26.04500 792.000
26.06000 819.000
26.07500 842.000
26.09000 841.000
26.10500 801.000
26.12000 805.000
26.13500 833.000
26.15000 845.000
26.16500 807.000
26.18000 824.000
26.19500 859.000
26.21000 841.000
26.22500 869.000
26.24000 836.000
26.25500 849.000
26.27000 860.000
26.28500 890.000
26.30000 865.000
26.31500 835.000
26.33000 857.000
26.34500 861.000
26.36000 863.000
26.37500 843.000
26.39000 877.000
26.40500 863.000
26.42000 873.000
26.43500 898.000
26.45000 844.000
26.46500 870.000
26.48000 843.000
26.49500 859.000
26.51000 874.000
26.52500 888.000
26.54000 884.000
26.55500 841.000
26.57000 864.000
26.58500 878.000
26.60000 886.000
26.61500 889.000
26.63000 880.000
26.64500 857.000
26.66000 859.000
26.67500 886.000
26.69000 897.000
26.70500 852.000
26.72000 850.000
26.73500 938.000
26.75000 914.000
26.76500 901.000
26.78000 882.000
26.79500 911.000
26.81000 940.000
26.82500 949.000
26.84000 928.000
26.85500 920.000
26.87000 913.000
26.88500 912.000
26.90000 941.000
26.91500 913.000
26.93000 948.000
26.94500 891.000
26.96000 953.000
26.97500 973.000
26.99000 959.000
27.00500 1005.000
27.02000 971.000
27.03500 1012.000
27.05000 992.000
27.06500 965.000
27.08000 986.000
27.09500 1011.000
27.11000 1026.000
27.12500 982.000
27.14000 1018.000
27.15500 1052.000
27.17000 1066.000
27.18500 1050.000
27.20000 1016.000
27.21500 1093.000
27.23000 1078.000
27.24500 1076.000
27.26000 1110.000
27.27500 1105.000
27.29000 1152.000
27.30500 1178.000
27.32000 1243.000
27.33500 1159.000
27.35000 1204.000
27.36500 1273.000
27.38000 1293.000
27.39500 1310.000
27.41000 1297.000
27.42500 1323.000
27.44000 1361.000
27.45500 1408.000
27.47000 1444.000
27.48500 1600.000
27.50000 1601.000
27.51500 1665.000
27.53000 1705.000
27.54500 1823.000
27.56000 1930.000
27.57500 2112.000
27.59000 2315.000
27.60500 2430.000
27.62000 2602.000
27.63500 2796.000
27.65000 2902.000
27.66500 3165.000
27.68000 3334.000
27.69500 3564.000
27.71000 3605.000
27.72500 3783.000
27.74000 3831.000
27.75500 3736.000
27.77000 3675.000
27.78500 3728.000
27.80000 3643.000
27.81500 3445.000
27.83000 3367.000
27.84500 3203.000
27.86000 3078.000
27.87500 2961.000
27.89000 2953.000
27.90500 2910.000
27.92000 2873.000
27.93500 2825.000
27.95000 2739.000
27.96500 2711.000
27.98000 2697.000
27.99500 2688.000
28.01000 2619.000
28.02500 2500.000
28.04000 2485.000
28.05500 2441.000
28.07000 2353.000
28.08500 2313.000
28.10000 2259.000
28.11500 2088.000
28.13000 2063.000
28.14500 2017.000
28.16000 1985.000
28.17500 1921.000
28.19000 1917.000
28.20500 1846.000
28.22000 1814.000
28.23500 1789.000
28.25000 1739.000
28.26500 1709.000
28.28000 1736.000
28.29500 1671.000
28.31000 1575.000
28.32500 1587.000
28.34000 1462.000
28.35500 1456.000
28.37000 1432.000
28.38500 1411.000
28.40000 1389.000
28.41500 1359.000
28.43000 1357.000
28.44500 1291.000
28.46000 1304.000
28.47500 1298.000
28.49000 1277.000
28.50500 1189.000
28.52000 1180.000
28.53500 1204.000
28.55000 1199.000
28.56500 1150.000
28.58000 1115.000
28.59500 1100.000
28.61000 1145.000
28.62500 1070.000
28.64000 1039.000
28.65500 1071.000
28.67000 1053.000
28.68500 1064.000
28.70000 1036.000
28.71500 1011.000
28.73000 1020.000
28.74500 951.000
28.76000 992.000
28.77500 1003.000
28.79000 973.000
28.80500 973.000
28.82000 996.000
28.83500 939.000
28.85000 963.000
28.86500 950.000
28.88000 943.000
28.89500 904.000
28.91000 908.000
28.92500 938.000
28.94000 979.000
28.95500 982.000
28.97000 953.000
28.98500 929.000
29.00000 952.000
29.01500 951.000
29.03000 927.000
29.04500 952.000
29.06000 965.000
29.07500 962.000
29.09000 974.000
29.10500 970.000
29.12000 1004.000
29.13500 994.000
29.15000 1044.000
29.16500 1020.000
29.18000 986.000
29.19500 929.000
29.21000 980.000
29.22500 926.000
29.24000 929.000
29.25500 890.000
29.27000 854.000
29.28500 796.000
29.30000 793.000
29.31500 827.000
29.33000 771.000
29.34500 798.000
29.36000 805.000
29.37500 809.000
29.39000 782.000
29.40500 798.000
29.42000 779.000
29.43500 826.000
29.45000 767.000
29.46500 764.000
29.48000 766.000
29.49500 784.000
29.51000 793.000
29.52500 758.000
29.54000 737.000
29.55500 747.000
29.57000 769.000
29.58500 802.000
29.60000 791.000
29.61500 737.000
29.63000 761.000
29.64500 748.000
29.66000 798.000
29.67500 822.000
29.69000 791.000
29.70500 808.000
29.72000 801.000
29.73500 754.000
29.75000 750.000
29.76500 762.000
29.78000 762.000
29.79500 804.000
29.81000 771.000
29.82500 805.000
29.84000 773.000
29.85500 765.000
29.87000 764.000
29.88500 761.000
29.90000 795.000
29.91500 769.000
29.93000 787.000
29.94500 750.000
29.96000 784.000
29.97500 730.000
29.99000 738.000
30.00500 756.000
30.02000 741.000
30.03500 758.000
30.05000 718.000
30.06500 737.000
30.08000 736.000
30.09500 726.000
30.11000 732.000
30.12500 743.000
30.14000 755.000
30.15500 811.000
30.17000 799.000
30.18500 784.000
30.20000 789.000
30.21500 806.000
30.23000 765.000
30.24500 767.000
30.26000 767.000
30.27500 821.000
30.29000 783.000
30.30500 805.000
30.32000 814.000
30.33500 818.000
30.35000 806.000
30.36500 801.000
30.38000 814.000
30.39500 801.000
30.41000 797.000
30.42500 798.000
30.44000 844.000
30.45500 843.000
30.47000 788.000
30.48500 810.000
30.50000 822.000
30.51500 781.000
30.53000 789.000
30.54500 794.000
30.56000 806.000
30.57500 789.000
30.59000 775.000
30.60500 771.000
30.62000 803.000
30.63500 778.000
30.65000 783.000
30.66500 778.000
30.68000 797.000
30.69500 812.000
30.71000 780.000
30.72500 765.000
30.74000 790.000
30.75500 740.000
30.77000 733.000
30.78500 742.000
30.80000 722.000
30.81500 731.000
30.83000 697.000
30.84500 737.000
30.86000 718.000
30.87500 691.000
30.89000 703.000
30.90500 707.000
30.92000 664.000
30.93500 680.000
30.95000 666.000
30.96500 661.000
30.98000 660.000
30.99500 696.000
31.01000 678.000
31.02500 691.000
31.04000 681.000
31.05500 631.000
31.07000 615.000
31.08500 648.000
31.10000 665.000
31.11500 647.000
31.13000 623.000
31.14500 607.000
31.16000 654.000
31.17500 605.000
31.19000 642.000
31.20500 639.000
31.22000 637.000
31.23500 631.000
31.25000 626.000
31.26500 625.000
31.28000 616.000
31.29500 610.000
31.31000 634.000
31.32500 657.000
31.34000 665.000
31.35500 682.000
31.37000 650.000
31.38500 669.000
31.40000 636.000
31.41500 650.000
31.43000 634.000
31.44500 649.000
31.46000 607.000
31.47500 679.000
31.49000 658.000
31.50500 660.000
31.52000 673.000
31.53500 668.000
31.55000 680.000
31.56500 635.000
31.58000 637.000
31.59500 651.000
31.61000 663.000
31.62500 649.000
31.64000 618.000
31.65500 625.000
31.67000 692.000
31.68500 629.000
31.70000 604.000
31.71500 633.000
31.73000 635.000
31.74500 636.000
31.76000 639.000
31.77500 653.000
31.79000 632.000
31.80500 621.000
31.82000 669.000
31.83500 651.000
31.85000 647.000
31.86500 611.000
31.88000 650.000
31.89500 657.000
31.91000 652.000
31.92500 659.000
31.94000 683.000
31.95500 627.000
31.97000 626.000
31.98500 641.000
32.00000 637.000
32.01500 655.000
32.03000 619.000
32.04500 619.000
32.06000 619.000
32.07500 641.000
32.09000 623.000
32.10500 606.000
32.12000 649.000
32.13500 679.000
32.15000 655.000
32.16500 666.000
32.18000 680.000
32.19500 651.000
32.21000 639.000
32.22500 686.000
32.24000 701.000
32.25500 734.000
32.27000 752.000
32.28500 767.000
32.30000 748.000
32.31500 789.000
32.33000 776.000
32.34500 800.000
32.36000 814.000
32.37500 813.000
32.39000 810.000
32.40500 810.000
32.42000 803.000
32.43500 812.000
32.45000 723.000
32.46500 711.000
32.48000 692.000
32.49500 715.000
32.51000 651.000
32.52500 622.000
32.54000 598.000
32.55500 545.000
32.57000 574.000
32.58500 590.000
32.60000 612.000
32.61500 566.000
32.63000 534.000
32.64500 530.000
32.66000 539.000
32.67500 529.000
32.69000 541.000
32.70500 513.000
32.72000 532.000
32.73500 548.000
32.75000 522.000
32.76500 534.000
32.78000 493.000
32.79500 501.000
32.81000 502.000
32.82500 522.000
32.84000 510.000
32.85500 526.000
32.87000 534.000
32.88500 529.000
32.90000 512.000
32.91500 495.000
32.93000 501.000
32.94500 511.000
32.96000 496.000
32.97500 448.000
32.99000 487.000
33.00500 484.000
33.02000 454.000
33.03500 462.000
33.05000 455.000
33.06500 456.000
33.08000 513.000
33.09500 524.000
33.11000 505.000
33.12500 475.000
33.14000 452.000
33.15500 467.000
33.17000 483.000
33.18500 474.000
33.20000 484.000
33.21500 450.000
33.23000 456.000
33.24500 485.000
33.26000 458.000
33.27500 467.000
33.29000 470.000
33.30500 460.000
33.32000 463.000
33.33500 469.000
33.35000 498.000
33.36500 438.000
33.38000 454.000
33.39500 482.000
33.41000 452.000
33.42500 464.000
33.44000 497.000
33.45500 482.000
33.47000 469.000
33.48500 502.000
33.50000 467.000
33.51500 427.000
33.53000 448.000
33.54500 481.000
33.56000 477.000
33.57500 426.000
33.59000 447.000
33.60500 455.000
33.62000 451.000
33.63500 483.000
33.65000 463.000
33.66500 528.000
33.68000 480.000
33.69500 447.000
33.71000 441.000
33.72500 494.000
33.74000 466.000
33.75500 464.000
33.77000 471.000
33.78500 456.000
33.80000 417.000
33.81500 446.000
33.83000 452.000
33.84500 445.000
33.86000 470.000
33.87500 445.000
33.89000 467.000
33.90500 469.000
33.92000 445.000
33.93500 438.000
33.95000 476.000
33.96500 451.000
33.98000 451.000
33.99500 478.000
34.01000 456.000
34.02500 441.000
34.04000 431.000
34.05500 453.000
34.07000 446.000
34.08500 437.000
34.10000 471.000
34.11500 439.000
34.13000 476.000
34.14500 453.000
34.16000 473.000
34.17500 478.000
34.19000 460.000
34.20500 422.000
34.22000 420.000
34.23500 453.000
34.25000 461.000
34.26500 451.000
34.28000 446.000
34.29500 442.000
34.31000 438.000
34.32500 463.000
34.34000 459.000
34.35500 466.000
34.37000 483.000
34.38500 433.000
34.40000 431.000
34.41500 449.000
34.43000 460.000
34.44500 453.000
34.46000 425.000
34.47500 440.000
34.49000 463.000
34.50500 438.000
34.52000 473.000
34.53500 454.000
34.55000 454.000
34.56500 444.000
34.58000 448.000
34.59500 464.000
34.61000 478.000
34.62500 454.000
34.64000 418.000
34.65500 430.000
34.67000 463.000
34.68500 462.000
34.70000 457.000
34.71500 448.000
34.73000 415.000
34.74500 433.000
34.76000 460.000
34.77500 468.000
34.79000 474.000
34.80500 428.000
34.82000 449.000
34.83500 458.000
34.85000 481.000
34.86500 431.000
34.88000 435.000
34.89500 464.000
34.91000 438.000
34.92500 464.000
34.94000 480.000
34.95500 470.000
34.97000 463.000
34.98500 485.000
35.00000 474.000
35.01500 472.000
35.03000 479.000
35.04500 481.000
35.06000 470.000
35.07500 482.000
35.09000 499.000
35.10500 489.000
35.12000 518.000
35.13500 520.000
35.15000 531.000
35.16500 504.000
35.18000 503.000
35.19500 495.000
35.21000 516.000
35.22500 524.000
35.24000 517.000
35.25500 534.000
35.27000 574.000
35.28500 579.000
35.30000 604.000
35.31500 565.000
35.33000 578.000
35.34500 577.000
35.36000 658.000
35.37500 678.000
35.39000 742.000
35.40500 790.000
35.42000 802.000
35.43500 890.000
35.45000 976.000
35.46500 975.000
35.48000 987.000
35.49500 989.000
35.51000 973.000
35.52500 907.000
35.54000 822.000
35.55500 749.000
35.57000 728.000
35.58500 678.000
35.60000 675.000
35.61500 623.000
35.63000 591.000
35.64500 585.000
35.66000 592.000
35.67500 551.000
35.69000 538.000
35.70500 516.000
35.72000 502.000
35.73500 511.000
35.75000 514.000
35.76500 498.000
35.78000 505.000
35.79500 527.000
35.81000 513.000
35.82500 504.000
35.84000 489.000
35.85500 463.000
35.87000 456.000
35.88500 469.000
35.90000 481.000
35.91500 485.000
35.93000 509.000
35.94500 505.000
35.96000 482.000
35.97500 444.000
35.99000 513.000
36.00500 526.000
36.02000 488.000
36.03500 506.000
36.05000 496.000
36.06500 510.000
36.08000 518.000
36.09500 491.000
36.11000 489.000
36.12500 548.000
36.14000 524.000
36.15500 555.000
36.17000 548.000
36.18500 502.000
36.20000 529.000
36.21500 534.000
36.23000 559.000
36.24500 535.000
36.26000 529.000
36.27500 538.000
36.29000 527.000
36.30500 559.000
36.32000 553.000
36.33500 536.000
36.35000 517.000
36.36500 540.000
36.38000 546.000
36.39500 562.000
36.41000 551.000
36.42500 551.000
36.44000 575.000
36.45500 618.000
36.47000 553.000
36.48500 543.000
36.50000 572.000
36.51500 588.000
36.53000 563.000
36.54500 575.000
36.56000 560.000
36.57500 563.000
36.59000 548.000
36.60500 528.000
36.62000 538.000
36.63500 555.000
36.65000 512.000
36.66500 534.000
36.68000 550.000
36.69500 548.000
36.71000 536.000
36.72500 513.000
36.74000 497.000
36.75500 478.000
36.77000 501.000
36.78500 466.000
36.80000 474.000
36.81500 454.000
36.83000 452.000
36.84500 462.000
36.86000 444.000
36.87500 451.000
36.89000 460.000
36.90500 478.000
36.92000 472.000
36.93500 468.000
36.95000 466.000
36.96500 469.000
36.98000 454.000
36.99500 460.000
37.01000 463.000
37.02500 437.000
37.04000 461.000
37.05500 480.000
37.07000 502.000
37.08500 497.000
37.10000 488.000
37.11500 500.000
37.13000 498.000
37.14500 498.000
37.16000 477.000
37.17500 494.000
37.19000 473.000
37.20500 503.000
37.22000 510.000
37.23500 533.000
37.25000 490.000
37.26500 502.000
37.28000 506.000
37.29500 517.000
37.31000 515.000
37.32500 527.000
37.34000 542.000
37.35500 552.000
37.37000 563.000
37.38500 530.000
37.40000 525.000
37.41500 535.000
37.43000 567.000
37.44500 559.000
37.46000 489.000
37.47500 509.000
37.49000 511.000
37.50500 576.000
37.52000 523.000
37.53500 525.000
37.55000 521.000
37.56500 495.000
37.58000 498.000
37.59500 520.000
37.61000 495.000
37.62500 484.000
37.64000 513.000
37.65500 511.000
37.67000 495.000
37.68500 513.000
37.70000 514.000
37.71500 510.000
37.73000 529.000
37.74500 531.000
37.76000 520.000
37.77500 499.000
37.79000 488.000
37.80500 482.000
37.82000 535.000
37.83500 480.000
37.85000 500.000
37.86500 499.000
37.88000 474.000
37.89500 496.000
37.91000 485.000
37.92500 463.000
37.94000 494.000
37.95500 458.000
37.97000 470.000
37.98500 461.000
38.00000 452.000
38.01500 466.000
38.03000 448.000
38.04500 472.000
38.06000 476.000
38.07500 472.000
38.09000 481.000
38.10500 473.000
38.12000 442.000
38.13500 450.000
38.15000 464.000
38.16500 456.000
38.18000 447.000
38.19500 477.000
38.21000 475.000
38.22500 468.000
38.24000 469.000
38.25500 484.000
38.27000 462.000
38.28500 455.000
38.30000 468.000
38.31500 460.000
38.33000 464.000
38.34500 465.000
38.36000 430.000
38.37500 442.000
38.39000 465.000
38.40500 432.000
38.42000 463.000
38.43500 482.000
38.45000 476.000
38.46500 484.000
38.48000 458.000
38.49500 494.000
38.51000 490.000
38.52500 502.000
38.54000 476.000
38.55500 498.000
38.57000 530.000
38.58500 513.000
38.60000 468.000
38.61500 478.000
38.63000 467.000
38.64500 445.000
38.66000 504.000
38.67500 505.000
38.69000 490.000
38.70500 487.000
38.72000 463.000
38.73500 451.000
38.75000 476.000
38.76500 477.000
38.78000 463.000
38.79500 447.000
38.81000 462.000
38.82500 465.000
38.84000 488.000
38.85500 469.000
38.87000 445.000
38.88500 455.000
38.90000 455.000
38.91500 447.000
38.93000 449.000
38.94500 435.000
38.96000 463.000
38.97500 458.000
38.99000 490.000
39.00500 441.000
39.02000 409.000
39.03500 388.000
39.05000 425.000
39.06500 437.000
39.08000 419.000
39.09500 408.000
39.11000 419.000
39.12500 426.000
39.14000 414.000
39.15500 372.000
39.17000 416.000
39.18500 415.000
39.20000 404.000
39.21500 410.000
39.23000 379.000
39.24500 397.000
39.26000 368.000
39.27500 388.000
39.29000 399.000
39.30500 386.000
39.32000 397.000
39.33500 415.000
39.35000 396.000
39.36500 398.000
39.38000 367.000
39.39500 393.000
39.41000 400.000
39.42500 378.000
39.44000 374.000
39.45500 397.000
39.47000 379.000
39.48500 398.000
39.50000 394.000
39.51500 394.000
39.53000 374.000
39.54500 379.000
39.56000 394.000
39.57500 413.000
39.59000 407.000
39.60500 393.000
39.62000 399.000
39.63500 379.000
39.65000 405.000
39.66500 420.000
39.68000 441.000
39.69500 418.000
39.71000 407.000
39.72500 418.000
39.74000 415.000
39.75500 400.000
39.77000 434.000
39.78500 423.000
39.80000 442.000
39.81500 458.000
39.83000 416.000
39.84500 412.000
39.86000 454.000
39.87500 391.000
39.89000 439.000
39.90500 451.000
39.92000 423.000
39.93500 481.000
39.95000 452.000
39.96500 463.000
39.98000 436.000
39.99500 437.000
40.01000 420.000
40.02500 418.000
40.04000 412.000
40.05500 411.000
40.07000 417.000
40.08500 438.000
40.10000 436.000
40.11500 441.000
40.13000 421.000
40.14500 440.000
40.16000 429.000
40.17500 434.000
40.19000 452.000
40.20500 460.000
40.22000 426.000
40.23500 427.000
40.25000 433.000
40.26500 439.000
40.28000 445.000
40.29500 442.000
40.31000 446.000
40.32500 453.000
40.34000 448.000
40.35500 477.000
40.37000 401.000
40.38500 416.000
40.40000 426.000
40.41500 397.000
40.43000 433.000
40.44500 420.000
40.46000 414.000
40.47500 434.000
40.49000 416.000
40.50500 428.000
40.52000 400.000
40.53500 414.000
40.55000 428.000
40.56500 434.000
40.58000 427.000
40.59500 455.000
40.61000 409.000
40.62500 401.000
40.64000 416.000
40.65500 404.000
40.67000 403.000
40.68500 420.000
40.70000 419.000
40.71500 433.000
40.73000 443.000
40.74500 400.000
40.76000 404.000
40.77500 389.000
40.79000 404.000
40.80500 411.000
40.82000 421.000
40.83500 414.000
40.85000 399.000
40.86500 413.000
40.88000 366.000
40.89500 386.000
40.91000 402.000
40.92500 395.000
40.94000 370.000
40.95500 372.000
40.97000 390.000
40.98500 384.000
41.00000 370.000
41.01500 364.000
41.03000 376.000
41.04500 358.000
41.06000 379.000
41.07500 380.000
41.09000 388.000
41.10500 396.000
41.12000 410.000
41.13500 399.000
41.15000 399.000
41.16500 371.000
41.18000 352.000
41.19500 357.000
41.21000 387.000
41.22500 376.000
41.24000 355.000
41.25500 368.000
41.27000 384.000
41.28500 382.000
41.30000 385.000
41.31500 364.000
41.33000 364.000
41.34500 379.000
41.36000 392.000
41.37500 356.000
41.39000 363.000
41.40500 371.000
41.42000 356.000
41.43500 390.000
41.45000 361.000
41.46500 344.000
41.48000 376.000
41.49500 381.000
41.51000 338.000
41.52500 368.000
41.54000 360.000
41.55500 359.000
41.57000 340.000
41.58500 378.000
41.60000 386.000
41.61500 364.000
41.63000 361.000
41.64500 340.000
41.66000 356.000
41.67500 369.000
41.69000 389.000
41.70500 397.000
41.72000 351.000
41.73500 353.000
41.75000 364.000
41.76500 376.000
41.78000 394.000
41.79500 402.000
41.81000 381.000
41.82500 373.000
41.84000 380.000
41.85500 348.000
41.87000 345.000
41.88500 337.000
41.90000 343.000
41.91500 360.000
41.93000 349.000
41.94500 382.000
41.96000 379.000
41.97500 369.000
41.99000 365.000
42.00500 333.000
42.02000 347.000
42.03500 339.000
42.05000 353.000
42.06500 345.000
42.08000 331.000
42.09500 343.000
42.11000 344.000
42.12500 365.000
42.14000 355.000
42.15500 366.000
42.17000 344.000
42.18500 362.000
42.20000 380.000
42.21500 372.000
42.23000 363.000
42.24500 374.000
42.26000 355.000
42.27500 356.000
42.29000 364.000
42.30500 382.000
42.32000 360.000
42.33500 321.000
42.35000 359.000
42.36500 367.000
42.38000 373.000
42.39500 388.000
42.41000 394.000
42.42500 370.000
42.44000 353.000
42.45500 349.000
42.47000 376.000
42.48500 391.000
42.50000 369.000
42.51500 372.000
42.53000 365.000
42.54500 392.000
42.56000 396.000
42.57500 383.000
42.59000 380.000
42.60500 380.000
42.62000 344.000
42.63500 393.000
42.65000 413.000
42.66500 408.000
42.68000 400.000
42.69500 373.000
42.71000 389.000
42.72500 382.000
42.74000 377.000
42.75500 382.000
42.77000 373.000
42.78500 354.000
42.80000 379.000
42.81500 356.000
42.83000 363.000
42.84500 385.000
42.86000 385.000
42.87500 405.000
42.89000 387.000
42.90500 388.000
42.92000 420.000
42.93500 414.000
42.95000 393.000
42.96500 415.000
42.98000 440.000
42.99500 445.000
43.01000 435.000
43.02500 434.000
43.04000 446.000
43.05500 446.000
43.07000 443.000
43.08500 454.000
43.10000 459.000
43.11500 457.000
43.13000 515.000
43.14500 537.000
43.16000 557.000
43.17500 559.000
43.19000 610.000
43.20500 575.000
43.22000 579.000
43.23500 626.000
43.25000 642.000
43.26500 621.000
43.28000 629.000
43.29500 629.000
43.31000 630.000
43.32500 621.000
43.34000 664.000
43.35500 607.000
43.37000 563.000
43.38500 557.000
43.40000 562.000
43.41500 537.000
43.43000 561.000
43.44500 528.000
43.46000 479.000
43.47500 478.000
43.49000 468.000
43.50500 480.000
43.52000 496.000
43.53500 475.000
43.55000 430.000
43.56500 427.000
43.58000 434.000
43.59500 432.000
43.61000 449.000
43.62500 451.000
43.64000 424.000
43.65500 447.000
43.67000 454.000
43.68500 414.000
43.70000 414.000
43.71500 411.000
43.73000 379.000
43.74500 393.000
43.76000 410.000
43.77500 410.000
43.79000 392.000
43.80500 389.000
43.82000 402.000
43.83500 386.000
43.85000 404.000
43.86500 374.000
43.88000 387.000
43.89500 408.000
43.91000 400.000
43.92500 382.000
43.94000 386.000
43.95500 368.000
43.97000 372.000
43.98500 387.000
44.00000 392.000
44.01500 400.000
44.03000 404.000
44.04500 389.000
44.06000 365.000
44.07500 385.000
44.09000 393.000
44.10500 400.000
44.12000 378.000
44.13500 420.000
44.15000 385.000
44.16500 432.000
44.18000 412.000
44.19500 390.000
44.21000 433.000
44.22500 431.000
44.24000 394.000
44.25500 389.000
44.27000 410.000
44.28500 461.000
44.30000 467.000
44.31500 469.000
44.33000 437.000
44.34500 488.000
44.36000 492.000
44.37500 482.000
44.39000 503.000
44.40500 466.000
44.42000 453.000
44.43500 441.000
44.45000 456.000
44.46500 460.000
44.48000 460.000
44.49500 460.000
44.51000 440.000
44.52500 441.000
44.54000 417.000
44.55500 420.000
44.57000 425.000
44.58500 437.000
44.60000 413.000
44.61500 418.000
44.63000 423.000
44.64500 393.000
44.66000 414.000
44.67500 418.000
44.69000 432.000
44.70500 429.000
44.72000 427.000
44.73500 416.000
44.75000 384.000
44.76500 401.000
44.78000 406.000
44.79500 390.000
44.81000 402.000
44.82500 398.000
44.84000 403.000
44.85500 387.000
44.87000 377.000
44.88500 412.000
44.90000 431.000
44.91500 412.000
44.93000 412.000
44.94500 407.000
44.96000 398.000
44.97500 409.000
44.99000 429.000
45.00500 405.000
45.02000 393.000
45.03500 403.000
45.05000 420.000
45.06500 411.000
45.08000 372.000
45.09500 403.000
45.11000 407.000
45.12500 443.000
45.14000 378.000
45.15500 420.000
45.17000 444.000
45.18500 437.000
45.20000 388.000
45.21500 375.000
45.23000 398.000
45.24500 404.000
45.26000 407.000
45.27500 380.000
45.29000 417.000
45.30500 386.000
45.32000 375.000
45.33500 393.000
45.35000 378.000
45.36500 377.000
45.38000 388.000
45.39500 395.000
45.41000 365.000
45.42500 373.000
45.44000 400.000
45.45500 384.000
45.47000 369.000
45.48500 402.000
45.50000 401.000
45.51500 393.000
45.53000 389.000
45.54500 380.000
45.56000 377.000
45.57500 390.000
45.59000 398.000
45.60500 365.000
45.62000 384.000
45.63500 386.000
45.65000 401.000
45.66500 383.000
45.68000 407.000
45.69500 398.000
45.71000 365.000
45.72500 359.000
45.74000 385.000
45.75500 373.000
45.77000 375.000
45.78500 397.000
45.80000 406.000
45.81500 390.000
45.83000 410.000
45.84500 411.000
45.86000 403.000
45.87500 387.000
45.89000 416.000
45.90500 391.000
45.92000 367.000
45.93500 365.000
45.95000 360.000
45.96500 372.000
45.98000 377.000
45.99500 358.000
46.01000 366.000
46.02500 374.000
46.04000 340.000
46.05500 356.000
46.07000 397.000
46.08500 384.000
46.10000 405.000
46.11500 406.000
46.13000 386.000
46.14500 410.000
46.16000 390.000
46.17500 382.000
46.19000 368.000
46.20500 394.000
46.22000 380.000
46.23500 348.000
46.25000 400.000
46.26500 406.000
46.28000 371.000
46.29500 381.000
46.31000 404.000
46.32500 419.000
46.34000 392.000
46.35500 375.000
46.37000 376.000
46.38500 364.000
46.40000 364.000
46.41500 359.000
46.43000 365.000
46.44500 365.000
46.46000 377.000
46.47500 383.000
46.49000 357.000
46.50500 400.000
46.52000 395.000
46.53500 372.000
46.55000 357.000
46.56500 365.000
46.58000 359.000
46.59500 369.000
46.61000 367.000
46.62500 362.000
46.64000 373.000
46.65500 347.000
46.67000 349.000
46.68500 350.000
46.70000 347.000
46.71500 369.000
46.73000 379.000
46.74500 349.000
46.76000 341.000
46.77500 323.000
46.79000 304.000
46.80500 328.000
46.82000 333.000
46.83500 327.000
46.85000 367.000
46.86500 338.000
46.88000 343.000
46.89500 339.000
46.91000 328.000
46.92500 357.000
46.94000 336.000
46.95500 332.000
46.97000 346.000
46.98500 342.000
47.00000 342.000
47.01500 362.000
47.03000 354.000
47.04500 351.000
47.06000 333.000
47.07500 352.000
47.09000 336.000
47.10500 336.000
47.12000 338.000
47.13500 345.000
47.15000 330.000
47.16500 333.000
47.18000 333.000
47.19500 335.000
47.21000 345.000
47.22500 309.000
47.24000 337.000
47.25500 317.000
47.27000 312.000
47.28500 304.000
47.30000 329.000
47.31500 315.000
47.33000 313.000
47.34500 319.000
47.36000 319.000
47.37500 310.000
47.39000 328.000
47.40500 316.000
47.42000 307.000
47.43500 289.000
47.45000 328.000
47.46500 286.000
47.48000 286.000
47.49500 291.000
47.51000 298.000
47.52500 305.000
47.54000 320.000
47.55500 283.000
47.57000 287.000
47.58500 294.000
47.60000 302.000
47.61500 291.000
47.63000 303.000
47.64500 304.000
47.66000 320.000
47.67500 316.000
47.69000 292.000
47.70500 327.000
47.72000 329.000
47.73500 306.000
47.75000 299.000
47.76500 303.000
47.78000 300.000
47.79500 311.000
47.81000 299.000
47.82500 299.000
47.84000 308.000
47.85500 290.000
47.87000 293.000
47.88500 281.000
47.90000 292.000
47.91500 277.000
47.93000 301.000
47.94500 309.000
47.96000 313.000
47.97500 298.000
47.99000 317.000
48.00500 296.000
48.02000 325.000
48.03500 309.000
48.05000 291.000
48.06500 288.000
48.08000 284.000
48.09500 308.000
48.11000 285.000
48.12500 325.000
48.14000 313.000
48.15500 302.000
48.17000 250.000
48.18500 282.000
48.20000 270.000
48.21500 296.000
48.23000 294.000
48.24500 300.000
48.26000 291.000
48.27500 298.000
48.29000 293.000
48.30500 285.000
48.32000 304.000
48.33500 298.000
48.35000 294.000
48.36500 285.000
48.38000 306.000
48.39500 281.000
48.41000 285.000
48.42500 269.000
48.44000 267.000
48.45500 273.000
48.47000 293.000
48.48500 300.000
48.50000 311.000
48.51500 300.000
48.53000 277.000
48.54500 274.000
48.56000 273.000
48.57500 273.000
48.59000 279.000
48.60500 274.000
48.62000 284.000
48.63500 270.000
48.65000 272.000
48.66500 284.000
48.68000 292.000
48.69500 267.000
48.71000 269.000
48.72500 278.000
48.74000 278.000
48.75500 258.000
48.77000 262.000
48.78500 278.000
48.80000 281.000
48.81500 275.000
48.83000 271.000
48.84500 275.000
48.86000 267.000
48.87500 256.000
48.89000 256.000
48.90500 271.000
48.92000 273.000
48.93500 274.000
48.95000 267.000
48.96500 252.000
48.98000 266.000
48.99500 265.000
49.01000 268.000
49.02500 268.000
49.04000 277.000
49.05500 286.000
49.07000 292.000
49.08500 273.000
49.10000 248.000
49.11500 278.000
49.13000 288.000
49.14500 268.000
49.16000 262.000
49.17500 276.000
49.19000 275.000
49.20500 285.000
49.22000 293.000
49.23500 286.000
49.25000 296.000
49.26500 283.000
49.28000 291.000
49.29500 275.000
49.31000 282.000
49.32500 281.000
49.34000 273.000
49.35500 284.000
49.37000 288.000
49.38500 297.000
49.40000 261.000
49.41500 290.000
49.43000 303.000
49.44500 269.000
49.46000 259.000
49.47500 287.000
49.49000 300.000
49.50500 277.000
49.52000 270.000
49.53500 277.000
49.55000 276.000
49.56500 283.000
49.58000 269.000
49.59500 288.000
49.61000 279.000
49.62500 281.000
49.64000 294.000
49.65500 266.000
49.67000 271.000
49.68500 260.000
49.70000 270.000
49.71500 278.000
49.73000 297.000
49.74500 248.000
49.76000 253.000
49.77500 257.000
49.79000 307.000
49.80500 288.000
49.82000 272.000
49.83500 271.000
49.85000 292.000
49.86500 286.000
49.88000 268.000
49.89500 277.000
49.91000 251.000
49.92500 259.000
49.94000 294.000
49.95500 282.000
49.97000 273.000
49.98500 293.000
50.00000 278.000
50.01500 275.000
50.03000 290.000
50.04500 328.000
50.06000 293.000
50.07500 339.000
50.09000 340.000
50.10500 328.000
50.12000 328.000
50.13500 315.000
50.15000 341.000
50.16500 339.000
50.18000 337.000
50.19500 317.000
50.21000 326.000
50.22500 291.000
50.24000 305.000
50.25500 291.000
50.27000 297.000
50.28500 269.000
50.30000 276.000
50.31500 282.000
50.33000 306.000
50.34500 291.000
50.36000 282.000
50.37500 294.000
50.39000 284.000
50.40500 251.000
50.42000 283.000
50.43500 301.000
50.45000 289.000
50.46500 276.000
50.48000 281.000
50.49500 287.000
50.51000 286.000
50.52500 270.000
50.54000 292.000
50.55500 295.000
50.57000 300.000
50.58500 300.000
50.60000 286.000
50.61500 276.000
50.63000 280.000
50.64500 293.000
50.66000 288.000
50.67500 298.000
50.69000 285.000
50.70500 273.000
50.72000 299.000
50.73500 286.000
50.75000 289.000
50.76500 288.000
50.78000 299.000
50.79500 298.000
50.81000 280.000
50.82500 275.000
50.84000 309.000
50.85500 315.000
50.87000 300.000
50.88500 307.000
50.90000 304.000
50.91500 297.000
50.93000 315.000
50.94500 308.000
50.96000 295.000
50.97500 310.000
50.99000 301.000
51.00500 293.000
51.02000 306.000
51.03500 273.000
51.05000 299.000
51.06500 298.000
51.08000 289.000
51.09500 272.000
51.11000 307.000
51.12500 302.000
51.14000 292.000
51.15500 313.000
51.17000 303.000
51.18500 319.000
51.20000 318.000
51.21500 287.000
51.23000 296.000
51.24500 259.000
51.26000 289.000
51.27500 304.000
51.29000 289.000
51.30500 286.000
51.32000 284.000
51.33500 286.000
51.35000 303.000
51.36500 276.000
51.38000 279.000
51.39500 290.000
51.41000 324.000
51.42500 301.000
51.44000 306.000
51.45500 301.000
51.47000 289.000
51.48500 303.000
51.50000 285.000
51.51500 288.000
51.53000 283.000
51.54500 295.000
51.56000 310.000
51.57500 295.000
51.59000 312.000
51.60500 308.000
51.62000 277.000
51.63500 301.000
51.65000 305.000
51.66500 303.000
51.68000 300.000
51.69500 297.000
51.71000 298.000
51.72500 269.000
51.74000 255.000
51.75500 278.000
51.77000 296.000
51.78500 302.000
51.80000 286.000
51.81500 278.000
51.83000 269.000
51.84500 267.000
51.86000 306.000
51.87500 287.000
51.89000 258.000
51.90500 276.000
51.92000 275.000
51.93500 285.000
51.95000 264.000
51.96500 268.000
51.98000 249.000
51.99500 274.000
52.01000 266.000
52.02500 279.000
52.04000 269.000
52.05500 257.000
52.07000 274.000
52.08500 298.000
52.10000 274.000
52.11500 268.000
52.13000 280.000
52.14500 259.000
52.16000 277.000
52.17500 271.000
52.19000 279.000
52.20500 264.000
52.22000 256.000
52.23500 271.000
52.25000 279.000
52.26500 277.000
52.28000 259.000
52.29500 263.000
52.31000 258.000
52.32500 260.000
52.34000 280.000
52.35500 267.000
52.37000 263.000
52.38500 277.000
52.40000 282.000
52.41500 282.000
52.43000 269.000
52.44500 299.000
52.46000 289.000
52.47500 285.000
52.49000 275.000
52.50500 276.000
52.52000 265.000
52.53500 279.000
52.55000 264.000
52.56500 300.000
52.58000 288.000
52.59500 274.000
52.61000 274.000
52.62500 257.000
52.64000 282.000
52.65500 293.000
52.67000 277.000
52.68500 246.000
52.70000 276.000
52.71500 278.000
52.73000 291.000
52.74500 291.000
52.76000 293.000
52.77500 300.000
52.79000 290.000
52.80500 273.000
52.82000 302.000
52.83500 312.000
52.85000 290.000
52.86500 293.000
52.88000 286.000
52.89500 266.000
52.91000 281.000
52.92500 299.000
52.94000 319.000
52.95500 282.000
52.97000 285.000
52.98500 306.000
53.00000 289.000
53.01500 322.000
53.03000 296.000
53.04500 307.000
53.06000 295.000
53.07500 300.000
53.09000 307.000
53.10500 285.000
53.12000 256.000
53.13500 285.000
53.15000 285.000
53.16500 272.000
53.18000 290.000
53.19500 286.000
53.21000 289.000
53.22500 296.000
53.24000 294.000
53.25500 296.000
53.27000 299.000
53.28500 291.000
53.30000 303.000
53.31500 294.000
53.33000 277.000
53.34500 262.000
53.36000 280.000
53.37500 265.000
53.39000 290.000
53.40500 283.000
53.42000 270.000
53.43500 258.000
53.45000 275.000
53.46500 286.000
53.48000 286.000
53.49500 268.000
53.51000 265.000
53.52500 277.000
53.54000 253.000
53.55500 259.000
53.57000 261.000
53.58500 280.000
53.60000 282.000
53.61500 255.000
53.63000 273.000
53.64500 271.000
53.66000 267.000
53.67500 294.000
53.69000 293.000
53.70500 281.000
53.72000 266.000
53.73500 287.000
53.75000 303.000
53.76500 268.000
53.78000 289.000
53.79500 321.000
53.81000 283.000
53.82500 266.000
53.84000 253.000
53.85500 277.000
53.87000 259.000
53.88500 251.000
53.90000 264.000
53.91500 268.000
53.93000 272.000
53.94500 256.000
53.96000 283.000
53.97500 260.000
53.99000 271.000
54.00500 288.000
54.02000 294.000
54.03500 295.000
54.05000 284.000
54.06500 283.000
54.08000 263.000
54.09500 255.000
54.11000 293.000
54.12500 295.000
54.14000 277.000
54.15500 296.000
54.17000 268.000
54.18500 270.000
54.20000 268.000
54.21500 278.000
54.23000 288.000
54.24500 268.000
54.26000 280.000
54.27500 265.000
54.29000 286.000
54.30500 271.000
54.32000 298.000
54.33500 281.000
54.35000 246.000
54.36500 284.000
54.38000 289.000
54.39500 269.000
54.41000 271.000
54.42500 282.000
54.44000 260.000
54.45500 269.000
54.47000 269.000
54.48500 241.000
54.50000 254.000
54.51500 278.000
54.53000 271.000
54.54500 265.000
54.56000 258.000
54.57500 246.000
54.59000 283.000
54.60500 265.000
54.62000 279.000
54.63500 278.000
54.65000 261.000
54.66500 249.000
54.68000 277.000
54.69500 249.000
54.71000 245.000
54.72500 291.000
54.74000 264.000
54.75500 283.000
54.77000 285.000
54.78500 272.000
54.80000 252.000
54.81500 257.000
54.83000 243.000
54.84500 285.000
54.86000 266.000
54.87500 255.000
54.89000 251.000
54.90500 266.000
54.92000 221.000
54.93500 245.000
54.95000 257.000
54.96500 242.000
54.98000 242.000
54.99500 248.000
55.01000 255.000
55.02500 271.000
55.04000 245.000
55.05500 245.000
55.07000 232.000
55.08500 248.000
55.10000 245.000
55.11500 255.000
55.13000 254.000
55.14500 250.000
55.16000 261.000
55.17500 261.000
55.19000 256.000
55.20500 258.000
55.22000 249.000
55.23500 262.000
55.25000 274.000
55.26500 257.000
55.28000 241.000
55.29500 261.000
55.31000 239.000
55.32500 243.000
55.34000 238.000
55.35500 239.000
55.37000 241.000
55.38500 233.000
55.40000 246.000
55.41500 253.000
55.43000 243.000
55.44500 250.000
55.46000 271.000
55.47500 252.000
55.49000 286.000
55.50500 274.000
55.52000 256.000
55.53500 260.000
55.55000 258.000
55.56500 244.000
55.58000 267.000
55.59500 259.000
55.61000 259.000
55.62500 258.000
55.64000 232.000
55.65500 234.000
55.67000 240.000
55.68500 258.000
55.70000 246.000
55.71500 259.000
55.73000 234.000
55.74500 241.000
55.76000 214.000
55.77500 229.000
55.79000 228.000
55.80500 242.000
55.82000 253.000
55.83500 257.000
55.85000 258.000
55.86500 250.000
55.88000 242.000
55.89500 247.000
55.91000 238.000
55.92500 269.000
55.94000 272.000
55.95500 279.000
55.97000 261.000
55.98500 258.000
56.00000 254.000
56.01500 264.000
56.03000 272.000
56.04500 291.000
56.06000 246.000
56.07500 245.000
56.09000 239.000
56.10500 235.000
56.12000 234.000
56.13500 232.000
56.15000 282.000
56.16500 279.000
56.18000 248.000
56.19500 261.000
56.21000 253.000
56.22500 241.000
56.24000 272.000
56.25500 267.000
56.27000 232.000
56.28500 270.000
56.30000 259.000
56.31500 251.000
56.33000 257.000
56.34500 269.000
56.36000 264.000
56.37500 262.000
56.39000 263.000
56.40500 264.000
56.42000 251.000
56.43500 263.000
56.45000 267.000
56.46500 271.000
56.48000 247.000
56.49500 250.000
56.51000 244.000
56.52500 229.000
56.54000 249.000
56.55500 252.000
56.57000 255.000
56.58500 250.000
56.60000 269.000
56.61500 266.000
56.63000 243.000
56.64500 241.000
56.66000 253.000
56.67500 253.000
56.69000 260.000
56.70500 267.000
56.72000 239.000
56.73500 264.000
56.75000 259.000
56.76500 262.000
56.78000 261.000
56.79500 258.000
56.81000 257.000
56.82500 255.000
56.84000 261.000
56.85500 264.000
56.87000 287.000
56.88500 283.000
56.90000 258.000
56.91500 247.000
56.93000 256.000
56.94500 254.000
56.96000 243.000
56.97500 279.000
56.99000 279.000
57.00500 282.000
57.02000 282.000
57.03500 295.000
57.05000 275.000
57.06500 296.000
57.08000 277.000
57.09500 253.000
57.11000 269.000
57.12500 293.000
57.14000 298.000
57.15500 286.000
57.17000 298.000
57.18500 300.000
57.20000 283.000
57.21500 287.000
57.23000 311.000
57.24500 301.000
57.26000 287.000
57.27500 289.000
57.29000 299.000
57.30500 274.000
57.32000 288.000
57.33500 297.000
57.35000 279.000
57.36500 268.000
57.38000 317.000
57.39500 294.000
57.41000 280.000
57.42500 302.000
57.44000 320.000
57.45500 292.000
57.47000 284.000
57.48500 301.000
57.50000 299.000
57.51500 292.000
57.53000 288.000
57.54500 290.000
57.56000 286.000
57.57500 299.000
57.59000 283.000
57.60500 274.000
57.62000 264.000
57.63500 277.000
57.65000 272.000
57.66500 305.000
57.68000 303.000
57.69500 262.000
57.71000 261.000
57.72500 281.000
57.74000 266.000
57.75500 272.000
57.77000 284.000
57.78500 276.000
57.80000 314.000
57.81500 301.000
57.83000 309.000
57.84500 275.000
57.86000 270.000
57.87500 276.000
57.89000 257.000
57.90500 281.000
57.92000 287.000
57.93500 289.000
57.95000 268.000
57.96500 277.000
57.98000 270.000
57.99500 288.000
58.01000 294.000
58.02500 289.000
58.04000 291.000
58.05500 275.000
58.07000 272.000
58.08500 246.000
58.10000 256.000
58.11500 262.000
58.13000 270.000
58.14500 285.000
58.16000 291.000
58.17500 282.000
58.19000 287.000
58.20500 268.000
58.22000 260.000
58.23500 301.000
58.25000 277.000
58.26500 279.000
58.28000 270.000
58.29500 286.000
58.31000 329.000
58.32500 288.000
58.34000 300.000
58.35500 297.000
58.37000 257.000
58.38500 264.000
58.40000 267.000
58.41500 268.000
58.43000 285.000
58.44500 289.000
58.46000 269.000
58.47500 259.000
58.49000 269.000
58.50500 272.000
58.52000 253.000
58.53500 274.000
58.55000 283.000
58.56500 240.000
58.58000 257.000
58.59500 287.000
58.61000 260.000
58.62500 262.000
58.64000 267.000
58.65500 262.000
58.67000 258.000
58.68500 263.000
58.70000 268.000
58.71500 266.000
58.73000 252.000
58.74500 251.000
58.76000 244.000
58.77500 250.000
58.79000 258.000
58.80500 250.000
58.82000 245.000
58.83500 257.000
58.85000 257.000
58.86500 269.000
58.88000 236.000
58.89500 227.000
58.91000 239.000
58.92500 268.000
58.94000 266.000
58.95500 238.000
58.97000 240.000
58.98500 240.000
59.00000 249.000
59.01500 250.000
59.03000 260.000
59.04500 267.000
59.06000 234.000
59.07500 232.000
59.09000 263.000
59.10500 261.000
59.12000 286.000
59.13500 265.000
59.15000 265.000
59.16500 257.000
59.18000 266.000
59.19500 250.000
59.21000 259.000
59.22500 244.000
59.24000 253.000
59.25500 242.000
59.27000 245.000
59.28500 248.000
59.30000 242.000
59.31500 255.000
59.33000 250.000
59.34500 238.000
59.36000 251.000
59.37500 239.000
59.39000 249.000
59.40500 252.000
59.42000 263.000
59.43500 253.000
59.45000 233.000
59.46500 250.000
59.48000 232.000
59.49500 250.000
59.51000 251.000
59.52500 262.000
59.54000 273.000
59.55500 247.000
59.57000 242.000
59.58500 260.000
59.60000 256.000
59.61500 247.000
59.63000 246.000
59.64500 237.000
59.66000 264.000
59.67500 228.000
59.69000 229.000
59.70500 242.000
59.72000 256.000
59.73500 256.000
59.75000 224.000
59.76500 235.000
59.78000 255.000
59.79500 264.000
59.81000 257.000
59.82500 249.000
59.84000 226.000
59.85500 253.000
59.87000 244.000
59.88500 262.000
59.90000 258.000
59.91500 252.000
59.93000 250.000
59.94500 237.000
59.96000 223.000
59.97500 236.000
59.99000 228.000
60.00500 220.000
60.02000 231.000
60.03500 239.000
60.05000 226.000
60.06500 249.000
60.08000 245.000
60.09500 230.000
60.11000 211.000
60.12500 251.000
60.14000 242.000
60.15500 229.000
60.17000 235.000
60.18500 245.000
60.20000 227.000
60.21500 234.000
60.23000 216.000
60.24500 238.000
60.26000 221.000
60.27500 225.000
60.29000 241.000
60.30500 232.000
60.32000 235.000
60.33500 238.000
60.35000 258.000
60.36500 243.000
60.38000 243.000
60.39500 241.000
60.41000 263.000
60.42500 245.000
60.44000 258.000
60.45500 254.000
60.47000 255.000
60.48500 233.000
60.50000 238.000
60.51500 230.000
60.53000 239.000
60.54500 249.000
60.56000 216.000
60.57500 229.000
60.59000 235.000
60.60500 234.000
60.62000 237.000
60.63500 263.000
60.65000 237.000
60.66500 224.000
60.68000 242.000
60.69500 257.000
60.71000 248.000
60.72500 217.000
60.74000 223.000
60.75500 240.000
60.77000 253.000
60.78500 230.000
60.80000 258.000
60.81500 233.000
60.83000 244.000
60.84500 238.000
60.86000 238.000
60.87500 234.000
60.89000 231.000
60.90500 236.000
60.92000 228.000
60.93500 245.000
60.95000 244.000
60.96500 239.000
60.98000 249.000
60.99500 240.000
61.01000 218.000
61.02500 224.000
61.04000 245.000
61.05500 247.000
61.07000 255.000
61.08500 244.000
61.10000 219.000
61.11500 242.000
61.13000 254.000
61.14500 261.000
61.16000 269.000
61.17500 233.000
61.19000 237.000
61.20500 249.000
61.22000 227.000
61.23500 236.000
61.25000 239.000
61.26500 233.000
61.28000 251.000
61.29500 239.000
61.31000 240.000
61.32500 231.000
61.34000 209.000
61.35500 215.000
61.37000 236.000
61.38500 234.000
61.40000 226.000
61.41500 219.000
61.43000 222.000
61.44500 247.000
61.46000 236.000
61.47500 243.000
61.49000 222.000
61.50500 216.000
61.52000 225.000
61.53500 222.000
61.55000 227.000
61.56500 235.000
61.58000 247.000
61.59500 237.000
61.61000 219.000
61.62500 224.000
61.64000 206.000
61.65500 229.000
61.67000 241.000
61.68500 214.000
61.70000 234.000
61.71500 220.000
61.73000 226.000
61.74500 225.000
61.76000 229.000
61.77500 234.000
61.79000 250.000
61.80500 252.000
61.82000 240.000
61.83500 216.000
61.85000 221.000
61.86500 209.000
61.88000 216.000
61.89500 219.000
61.91000 227.000
61.92500 202.000
61.94000 221.000
61.95500 206.000
61.97000 220.000
61.98500 209.000
