2.00000 2.000
2.01500 1.000
2.03000 1.000
2.04500 1.000
2.06000 2.000
2.07500 4.000
2.09000 3.000
2.10500 2.000
2.12000 1.000
2.13500 0.000
2.15000 1.000
2.16500 0.000
2.18000 2.000
2.19500 2.000
2.21000 3.000
2.22500 2.000
2.24000 2.000
2.25500 2.000
2.27000 2.000
2.28500 2.000
2.30000 1.000
2.31500 0.000
2.33000 2.000
2.34500 1.000
2.36000 1.000
2.37500 2.000
2.39000 1.000
2.40500 1.000
2.42000 1.000
2.43500 2.000
2.45000 1.000
2.46500 2.000
2.48000 5.000
2.49500 1.000
2.51000 1.000
2.52500 1.000
2.54000 2.000
2.55500 0.000
2.57000 2.000
2.58500 1.000
2.60000 2.000
2.61500 1.000
2.63000 2.000
2.64500 3.000
2.66000 2.000
2.67500 7.000
2.69000 8.000
2.70500 6.000
2.72000 8.000
2.73500 21.000
2.75000 29.000
2.76500 44.000
2.78000 59.000
2.79500 71.000
2.81000 90.000
2.82500 99.000
2.84000 129.000
2.85500 162.000
2.87000 134.000
2.88500 143.000
2.90000 153.000
2.91500 148.000
2.93000 153.000
2.94500 155.000
2.96000 165.000
2.97500 156.000
2.99000 148.000
3.00500 160.000
3.02000 147.000
3.03500 136.000
3.05000 140.000
3.06500 148.000
3.08000 136.000
3.09500 145.000
3.11000 145.000
3.12500 154.000
3.14000 138.000
3.15500 139.000
3.17000 144.000
3.18500 147.000
3.20000 135.000
3.21500 137.000
3.23000 144.000
3.24500 130.000
3.26000 140.000
3.27500 139.000
3.29000 141.000
3.30500 133.000
3.32000 153.000
3.33500 148.000
3.35000 145.000
3.36500 153.000
3.38000 138.000
3.39500 144.000
3.41000 133.000
3.42500 133.000
3.44000 128.000
3.45500 132.000
3.47000 125.000
3.48500 143.000
3.50000 164.000
3.51500 160.000
3.53000 151.000
3.54500 163.000
3.56000 145.000
3.57500 153.000
3.59000 153.000
3.60500 152.000
3.62000 145.000
3.63500 152.000
3.65000 139.000
3.66500 137.000
3.68000 140.000
3.69500 167.000
3.71000 144.000
3.72500 138.000
3.74000 138.000
3.75500 151.000
3.77000 170.000
3.78500 168.000
3.80000 174.000
3.81500 147.000
3.83000 149.000
3.84500 161.000
3.86000 138.000
3.87500 165.000
3.89000 171.000
3.90500 161.000
3.92000 150.000
3.93500 152.000
3.95000 148.000
3.96500 137.000
3.98000 156.000
3.99500 136.000
4.01000 149.000
4.02500 154.000
4.04000 159.000
4.05500 149.000
4.07000 156.000
4.08500 165.000
4.10000 152.000
4.11500 156.000
4.13000 157.000
4.14500 181.000
4.16000 151.000
4.17500 150.000
4.19000 158.000
4.20500 164.000
4.22000 161.000
4.23500 151.000
4.25000 147.000
4.26500 151.000
4.28000 149.000
4.29500 150.000
4.31000 153.000
4.32500 146.000
4.34000 142.000
4.35500 152.000
4.37000 158.000
4.38500 160.000
4.40000 181.000
4.41500 159.000
4.43000 148.000
4.44500 163.000
4.46000 160.000
4.47500 158.000
4.49000 172.000
4.50500 160.000
4.52000 156.000
4.53500 158.000
4.55000 165.000
4.56500 155.000
4.58000 149.000
4.59500 147.000
4.61000 168.000
4.62500 166.000
4.64000 170.000
4.65500 151.000
4.67000 159.000
4.68500 155.000
4.70000 145.000
4.71500 165.000
4.73000 169.000
4.74500 176.000
4.76000 160.000
4.77500 170.000
4.79000 141.000
4.80500 173.000
4.82000 186.000
4.83500 165.000
4.85000 172.000
4.86500 172.000
4.88000 161.000
4.89500 145.000
4.91000 157.000
4.92500 158.000
4.94000 177.000
4.95500 172.000
4.97000 171.000
4.98500 162.000
5.00000 173.000
5.01500 179.000
5.03000 167.000
5.04500 188.000
5.06000 207.000
5.07500 186.000
5.09000 171.000
5.10500 174.000
5.12000 167.000
5.13500 170.000
5.15000 185.000
5.16500 179.000
5.18000 175.000
5.19500 183.000
5.21000 170.000
5.22500 177.000
5.24000 162.000
5.25500 184.000
5.27000 173.000
5.28500 169.000
5.30000 168.000
5.31500 188.000
5.33000 169.000
5.34500 179.000
5.36000 182.000
5.37500 170.000
5.39000 171.000
5.40500 180.000
5.42000 170.000
5.43500 184.000
5.45000 188.000
5.46500 164.000
5.48000 182.000
5.49500 203.000
5.51000 189.000
5.52500 177.000
5.54000 172.000
5.55500 185.000
5.57000 192.000
5.58500 201.000
5.60000 191.000
5.61500 163.000
5.63000 188.000
5.64500 191.000
5.66000 167.000
5.67500 163.000
5.69000 191.000
5.70500 172.000
5.72000 169.000
5.73500 190.000
5.75000 192.000
5.76500 174.000
5.78000 184.000
5.79500 197.000
5.81000 193.000
5.82500 178.000
5.84000 183.000
5.85500 205.000
5.87000 171.000
5.88500 203.000
5.90000 197.000
5.91500 196.000
5.93000 187.000
5.94500 189.000
5.96000 189.000
5.97500 199.000
5.99000 200.000
6.00500 168.000
6.02000 161.000
6.03500 171.000
6.05000 193.000
6.06500 185.000
6.08000 173.000
6.09500 158.000
6.11000 184.000
6.12500 190.000
6.14000 187.000
6.15500 186.000
6.17000 190.000
6.18500 169.000
6.20000 195.000
6.21500 201.000
6.23000 181.000
6.24500 196.000
6.26000 194.000
6.27500 201.000
6.29000 184.000
6.30500 198.000
6.32000 180.000
6.33500 178.000
6.35000 185.000
6.36500 179.000
6.38000 166.000
6.39500 178.000
6.41000 198.000
6.42500 207.000
6.44000 221.000
6.45500 190.000
6.47000 189.000
6.48500 189.000
6.50000 195.000
6.51500 185.000
6.53000 201.000
6.54500 210.000
6.56000 217.000
6.57500 191.000
6.59000 191.000
6.60500 215.000
6.62000 199.000
6.63500 206.000
6.65000 197.000
6.66500 208.000
6.68000 195.000
6.69500 183.000
6.71000 191.000
6.72500 196.000
6.74000 195.000
6.75500 187.000
6.77000 222.000
6.78500 208.000
6.80000 213.000
6.81500 199.000
6.83000 202.000
6.84500 211.000
6.86000 194.000
6.87500 182.000
6.89000 184.000
6.90500 179.000
6.92000 167.000
6.93500 175.000
6.95000 188.000
6.96500 202.000
6.98000 204.000
6.99500 193.000
7.01000 183.000
7.02500 206.000
7.04000 190.000
7.05500 197.000
7.07000 202.000
7.08500 214.000
7.10000 192.000
7.11500 208.000
7.13000 208.000
7.14500 208.000
7.16000 191.000
7.17500 209.000
7.19000 201.000
7.20500 198.000
7.22000 212.000
7.23500 204.000
7.25000 204.000
7.26500 199.000
7.28000 213.000
7.29500 207.000
7.31000 197.000
7.32500 195.000
7.34000 212.000
7.35500 204.000
7.37000 230.000
7.38500 213.000
7.40000 224.000
7.41500 229.000
7.43000 233.000
7.44500 218.000
7.46000 217.000
7.47500 231.000
7.49000 248.000
7.50500 230.000
7.52000 202.000
7.53500 219.000
7.55000 203.000
7.56500 231.000
7.58000 239.000
7.59500 277.000
7.61000 237.000
7.62500 217.000
7.64000 236.000
7.65500 251.000
7.67000 266.000
7.68500 254.000
7.70000 266.000
7.71500 297.000
7.73000 299.000
7.74500 278.000
7.76000 314.000
7.77500 303.000
7.79000 336.000
7.80500 362.000
7.82000 382.000
7.83500 399.000
7.85000 410.000
7.86500 456.000
7.88000 483.000
7.89500 522.000
7.91000 536.000
7.92500 595.000
7.94000 677.000
7.95500 762.000
7.97000 773.000
7.98500 729.000
8.00000 656.000
8.01500 566.000
8.03000 508.000
8.04500 439.000
8.06000 415.000
8.07500 433.000
8.09000 375.000
8.10500 344.000
8.12000 329.000
8.13500 334.000
8.15000 327.000
8.16500 343.000
8.18000 336.000
8.19500 307.000
8.21000 328.000
8.22500 307.000
8.24000 312.000
8.25500 323.000
8.27000 295.000
8.28500 301.000
8.30000 296.000
8.31500 280.000
8.33000 263.000
8.34500 280.000
8.36000 263.000
8.37500 264.000
8.39000 282.000
8.40500 269.000
8.42000 283.000
8.43500 275.000
8.45000 288.000
8.46500 293.000
8.48000 256.000
8.49500 264.000
8.51000 236.000
8.52500 271.000
8.54000 275.000
8.55500 265.000
8.57000 257.000
8.58500 271.000
8.60000 254.000
8.61500 259.000
8.63000 268.000
8.64500 271.000
8.66000 250.000
8.67500 245.000
8.69000 255.000
8.70500 271.000
8.72000 244.000
8.73500 259.000
8.75000 260.000
8.76500 275.000
8.78000 249.000
8.79500 257.000
8.81000 254.000
8.82500 214.000
8.84000 226.000
8.85500 221.000
8.87000 228.000
8.88500 250.000
8.90000 248.000
8.91500 263.000
8.93000 233.000
8.94500 244.000
8.96000 237.000
8.97500 239.000
8.99000 260.000
9.00500 237.000
9.02000 245.000
9.03500 274.000
9.05000 264.000
9.06500 255.000
9.08000 244.000
9.09500 236.000
9.11000 242.000
9.12500 244.000
9.14000 251.000
9.15500 237.000
9.17000 229.000
9.18500 250.000
9.20000 247.000
9.21500 234.000
9.23000 239.000
9.24500 220.000
9.26000 225.000
9.27500 223.000
9.29000 249.000
9.30500 252.000
9.32000 253.000
9.33500 237.000
9.35000 231.000
9.36500 240.000
9.38000 251.000
9.39500 243.000
9.41000 253.000
9.42500 247.000
9.44000 232.000
9.45500 240.000
9.47000 228.000
9.48500 234.000
9.50000 244.000
9.51500 249.000
9.53000 238.000
9.54500 246.000
9.56000 261.000
9.57500 261.000
9.59000 257.000
9.60500 250.000
9.62000 269.000
9.63500 253.000
9.65000 251.000
9.66500 235.000
9.68000 246.000
9.69500 264.000
9.71000 278.000
9.72500 266.000
9.74000 281.000
9.75500 284.000
9.77000 282.000
9.78500 262.000
9.80000 269.000
9.81500 279.000
9.83000 289.000
9.84500 296.000
9.86000 289.000
9.87500 297.000
9.89000 316.000
9.90500 299.000
9.92000 309.000
9.93500 317.000
9.95000 327.000
9.96500 350.000
9.98000 345.000
9.99500 357.000
10.01000 389.000
10.02500 377.000
10.04000 395.000
10.05500 368.000
10.07000 396.000
10.08500 397.000
10.10000 365.000
10.11500 373.000
10.13000 354.000
10.14500 350.000
10.16000 328.000
10.17500 309.000
10.19000 329.000
10.20500 293.000
10.22000 317.000
10.23500 294.000
10.25000 277.000
10.26500 271.000
10.28000 266.000
10.29500 277.000
10.31000 260.000
10.32500 269.000
10.34000 248.000
10.35500 244.000
10.37000 249.000
10.38500 270.000
10.40000 263.000
10.41500 242.000
10.43000 250.000
10.44500 240.000
10.46000 235.000
10.47500 243.000
10.49000 234.000
10.50500 221.000
10.52000 234.000
10.53500 254.000
10.55000 219.000
10.56500 219.000
10.58000 228.000
10.59500 233.000
10.61000 232.000
10.62500 218.000
10.64000 239.000
10.65500 222.000
10.67000 214.000
10.68500 205.000
10.70000 232.000
10.71500 225.000
10.73000 215.000
10.74500 218.000
10.76000 240.000
10.77500 238.000
10.79000 239.000
10.80500 245.000
10.82000 236.000
10.83500 216.000
10.85000 216.000
10.86500 188.000
10.88000 191.000
10.89500 205.000
10.91000 234.000
10.92500 235.000
10.94000 200.000
10.95500 210.000
10.97000 218.000
10.98500 218.000
11.00000 231.000
11.01500 226.000
11.03000 202.000
11.04500 222.000
11.06000 221.000
11.07500 224.000
11.09000 223.000
11.10500 215.000
11.12000 223.000
11.13500 213.000
11.15000 226.000
11.16500 237.000
11.18000 219.000
11.19500 227.000
11.21000 208.000
11.22500 217.000
11.24000 229.000
11.25500 227.000
11.27000 230.000
11.28500 236.000
11.30000 218.000
11.31500 210.000
11.33000 208.000
11.34500 226.000
11.36000 215.000
11.37500 229.000
11.39000 237.000
11.40500 259.000
11.42000 226.000
11.43500 233.000
11.45000 221.000
11.46500 255.000
11.48000 222.000
11.49500 211.000
11.51000 242.000
11.52500 237.000
11.54000 229.000
11.55500 206.000
11.57000 212.000
11.58500 236.000
11.60000 224.000
11.61500 220.000
11.63000 227.000
11.64500 229.000
11.66000 228.000
11.67500 216.000
11.69000 233.000
11.70500 213.000
11.72000 199.000
11.73500 196.000
11.75000 218.000
11.76500 209.000
11.78000 223.000
11.79500 211.000
11.81000 213.000
11.82500 228.000
11.84000 220.000
11.85500 206.000
11.87000 202.000
11.88500 223.000
11.90000 236.000
11.91500 218.000
11.93000 202.000
11.94500 214.000
11.96000 216.000
11.97500 214.000
11.99000 220.000
12.00500 204.000
12.02000 212.000
12.03500 212.000
12.05000 232.000
12.06500 212.000
12.08000 193.000
12.09500 201.000
12.11000 189.000
12.12500 233.000
12.14000 203.000
12.15500 213.000
12.17000 219.000
12.18500 209.000
12.20000 227.000
12.21500 210.000
12.23000 209.000
12.24500 224.000
12.26000 208.000
12.27500 219.000
12.29000 219.000
12.30500 199.000
12.32000 214.000
12.33500 210.000
12.35000 217.000
12.36500 200.000
12.38000 215.000
12.39500 209.000
12.41000 212.000
12.42500 219.000
12.44000 207.000
12.45500 207.000
12.47000 211.000
12.48500 220.000
12.50000 224.000
12.51500 218.000
12.53000 233.000
12.54500 219.000
12.56000 223.000
12.57500 220.000
12.59000 229.000
12.60500 225.000
12.62000 205.000
12.63500 198.000
12.65000 226.000
12.66500 212.000
12.68000 227.000
12.69500 218.000
12.71000 235.000
12.72500 199.000
12.74000 202.000
12.75500 219.000
12.77000 215.000
12.78500 209.000
12.80000 208.000
12.81500 226.000
12.83000 206.000
12.84500 199.000
12.86000 203.000
12.87500 200.000
12.89000 212.000
12.90500 220.000
12.92000 206.000
12.93500 198.000
12.95000 192.000
12.96500 201.000
12.98000 210.000
12.99500 194.000
13.01000 196.000
13.02500 213.000
13.04000 190.000
13.05500 209.000
13.07000 212.000
13.08500 227.000
13.10000 207.000
13.11500 213.000
13.13000 221.000
13.14500 214.000
13.16000 212.000
13.17500 228.000
13.19000 227.000
13.20500 216.000
13.22000 217.000
13.23500 209.000
13.25000 204.000
13.26500 197.000
13.28000 214.000
13.29500 215.000
13.31000 200.000
13.32500 212.000
13.34000 199.000
13.35500 216.000
13.37000 213.000
13.38500 221.000
13.40000 209.000
13.41500 199.000
13.43000 209.000
13.44500 216.000
13.46000 209.000
13.47500 226.000
13.49000 206.000
13.50500 210.000
13.52000 212.000
13.53500 216.000
13.55000 201.000
13.56500 199.000
13.58000 187.000
13.59500 200.000
13.61000 200.000
13.62500 205.000
13.64000 228.000
13.65500 211.000
13.67000 199.000
13.68500 212.000
13.70000 200.000
13.71500 201.000
13.73000 201.000
13.74500 200.000
13.76000 197.000
13.77500 204.000
13.79000 204.000
13.80500 211.000
13.82000 195.000
13.83500 207.000
13.85000 200.000
13.86500 205.000
13.88000 223.000
13.89500 217.000
13.91000 215.000
13.92500 196.000
13.94000 222.000
13.95500 207.000
13.97000 224.000
13.98500 235.000
14.00000 223.000
14.01500 222.000
14.03000 229.000
14.04500 234.000
14.06000 233.000
14.07500 217.000
14.09000 217.000
14.10500 211.000
14.12000 220.000
14.13500 215.000
14.15000 222.000
14.16500 207.000
14.18000 199.000
14.19500 187.000
14.21000 202.000
14.22500 205.000
14.24000 233.000
14.25500 229.000
14.27000 181.000
14.28500 207.000
14.30000 206.000
14.31500 213.000
14.33000 228.000
14.34500 234.000
14.36000 203.000
14.37500 202.000
14.39000 217.000
14.40500 228.000
14.42000 226.000
14.43500 231.000
14.45000 223.000
14.46500 213.000
14.48000 213.000
14.49500 211.000
14.51000 218.000
14.52500 218.000
14.54000 217.000
14.55500 201.000
14.57000 219.000
14.58500 219.000
14.60000 201.000
14.61500 193.000
14.63000 211.000
14.64500 207.000
14.66000 208.000
14.67500 197.000
14.69000 212.000
14.70500 214.000
14.72000 208.000
14.73500 216.000
14.75000 218.000
14.76500 208.000
14.78000 217.000
14.79500 200.000
14.81000 225.000
14.82500 208.000
14.84000 214.000
14.85500 230.000
14.87000 247.000
14.88500 220.000
14.90000 242.000
14.91500 239.000
14.93000 243.000
14.94500 243.000
14.96000 201.000
14.97500 223.000
14.99000 230.000
15.00500 242.000
15.02000 258.000
15.03500 254.000
15.05000 250.000
15.06500 244.000
15.08000 275.000
15.09500 238.000
15.11000 224.000
15.12500 246.000
15.14000 244.000
15.15500 285.000
15.17000 255.000
15.18500 255.000
15.20000 275.000
15.21500 242.000
15.23000 237.000
15.24500 229.000
15.26000 233.000
15.27500 246.000
15.29000 268.000
15.30500 238.000
15.32000 243.000
15.33500 235.000
15.35000 238.000
15.36500 228.000
15.38000 203.000
15.39500 224.000
15.41000 231.000
15.42500 232.000
15.44000 220.000
15.45500 215.000
15.47000 226.000
15.48500 215.000
15.50000 225.000
15.51500 230.000
15.53000 228.000
15.54500 209.000
15.56000 231.000
15.57500 212.000
15.59000 209.000
15.60500 222.000
15.62000 228.000
15.63500 223.000
15.65000 234.000
15.66500 222.000
15.68000 189.000
15.69500 202.000
15.71000 199.000
15.72500 211.000
15.74000 212.000
15.75500 209.000
15.77000 213.000
15.78500 217.000
15.80000 195.000
15.81500 217.000
15.83000 213.000
15.84500 211.000
15.86000 208.000
15.87500 232.000
15.89000 212.000
15.90500 198.000
15.92000 214.000
15.93500 209.000
15.95000 213.000
15.96500 215.000
15.98000 208.000
15.99500 199.000
16.01000 191.000
16.02500 221.000
16.04000 211.000
16.05500 219.000
16.07000 230.000
16.08500 231.000
16.10000 208.000
16.11500 215.000
16.13000 216.000
16.14500 198.000
16.16000 216.000
16.17500 203.000
16.19000 216.000
16.20500 212.000
16.22000 210.000
16.23500 205.000
16.25000 202.000
16.26500 211.000
16.28000 217.000
16.29500 227.000
16.31000 205.000
16.32500 209.000
16.34000 201.000
16.35500 186.000
16.37000 191.000
16.38500 206.000
16.40000 213.000
16.41500 223.000
16.43000 221.000
16.44500 212.000
16.46000 225.000
16.47500 219.000
16.49000 227.000
16.50500 220.000
16.52000 199.000
16.53500 180.000
16.55000 206.000
16.56500 217.000
16.58000 218.000
16.59500 210.000
16.61000 194.000
16.62500 218.000
16.64000 212.000
16.65500 212.000
16.67000 206.000
16.68500 204.000
16.70000 213.000
16.71500 232.000
16.73000 220.000
16.74500 210.000
16.76000 199.000
16.77500 215.000
16.79000 224.000
16.80500 236.000
16.82000 218.000
16.83500 214.000
16.85000 191.000
16.86500 218.000
16.88000 197.000
16.89500 200.000
16.91000 216.000
16.92500 204.000
16.94000 219.000
16.95500 225.000
16.97000 225.000
16.98500 218.000
17.00000 207.000
17.01500 213.000
17.03000 207.000
17.04500 225.000
17.06000 228.000
17.07500 228.000
17.09000 198.000
17.10500 221.000
17.12000 213.000
17.13500 231.000
17.15000 215.000
17.16500 196.000
17.18000 200.000
17.19500 222.000
17.21000 236.000
17.22500 232.000
17.24000 219.000
17.25500 201.000
17.27000 190.000
17.28500 216.000
17.30000 202.000
17.31500 228.000
17.33000 214.000
17.34500 203.000
17.36000 202.000
17.37500 223.000
17.39000 223.000
17.40500 225.000
17.42000 222.000
17.43500 197.000
17.45000 222.000
17.46500 229.000
17.48000 229.000
17.49500 217.000
17.51000 215.000
17.52500 220.000
17.54000 227.000
17.55500 230.000
17.57000 228.000
17.58500 200.000
17.60000 210.000
17.61500 214.000
17.63000 210.000
17.64500 254.000
17.66000 201.000
17.67500 204.000
17.69000 190.000
17.70500 219.000
17.72000 221.000
17.73500 208.000
17.75000 227.000
17.76500 218.000
17.78000 227.000
17.79500 232.000
17.81000 202.000
17.82500 224.000
17.84000 244.000
17.85500 200.000
17.87000 188.000
17.88500 226.000
17.90000 215.000
17.91500 231.000
17.93000 223.000
17.94500 226.000
17.96000 209.000
17.97500 193.000
17.99000 202.000
18.00500 226.000
18.02000 208.000
18.03500 212.000
18.05000 194.000
18.06500 210.000
18.08000 223.000
18.09500 249.000
18.11000 243.000
18.12500 228.000
18.14000 211.000
18.15500 223.000
18.17000 213.000
18.18500 221.000
18.20000 211.000
18.21500 222.000
18.23000 249.000
18.24500 233.000
18.26000 214.000
18.27500 217.000
18.29000 225.000
18.30500 227.000
18.32000 219.000
18.33500 211.000
18.35000 250.000
18.36500 238.000
18.38000 244.000
18.39500 225.000
18.41000 233.000
18.42500 237.000
18.44000 226.000
18.45500 239.000
18.47000 242.000
18.48500 253.000
18.50000 254.000
18.51500 246.000
18.53000 246.000
18.54500 264.000
18.56000 267.000
18.57500 249.000
18.59000 253.000
18.60500 245.000
18.62000 242.000
18.63500 250.000
18.65000 266.000
18.66500 257.000
18.68000 269.000
18.69500 258.000
18.71000 245.000
18.72500 251.000
18.74000 254.000
18.75500 238.000
18.77000 233.000
18.78500 221.000
18.80000 214.000
18.81500 220.000
18.83000 224.000
18.84500 242.000
18.86000 226.000
18.87500 242.000
18.89000 260.000
18.90500 241.000
18.92000 227.000
18.93500 238.000
18.95000 222.000
18.96500 222.000
18.98000 224.000
18.99500 210.000
19.01000 223.000
19.02500 225.000
19.04000 219.000
19.05500 228.000
19.07000 238.000
19.08500 245.000
19.10000 246.000
19.11500 211.000
19.13000 218.000
19.14500 218.000
19.16000 230.000
19.17500 208.000
19.19000 221.000
19.20500 203.000
19.22000 208.000
19.23500 246.000
19.25000 241.000
19.26500 240.000
19.28000 230.000
19.29500 238.000
19.31000 241.000
19.32500 238.000
19.34000 219.000
19.35500 208.000
19.37000 201.000
19.38500 226.000
19.40000 231.000
19.41500 221.000
19.43000 211.000
19.44500 210.000
19.46000 243.000
19.47500 228.000
19.49000 227.000
19.50500 217.000
19.52000 221.000
19.53500 223.000
19.55000 243.000
19.56500 224.000
19.58000 213.000
19.59500 235.000
19.61000 237.000
19.62500 235.000
19.64000 232.000
19.65500 226.000
19.67000 228.000
19.68500 227.000
19.70000 237.000
19.71500 243.000
19.73000 204.000
19.74500 209.000
19.76000 200.000
19.77500 219.000
19.79000 235.000
19.80500 233.000
19.82000 207.000
19.83500 211.000
19.85000 226.000
19.86500 235.000
19.88000 227.000
19.89500 228.000
19.91000 215.000
19.92500 239.000
19.94000 242.000
19.95500 219.000
19.97000 261.000
19.98500 225.000
20.00000 235.000
20.01500 260.000
20.03000 256.000
20.04500 247.000
20.06000 236.000
20.07500 221.000
20.09000 219.000
20.10500 237.000
20.12000 254.000
20.13500 245.000
20.15000 240.000
20.16500 238.000
20.18000 243.000
20.19500 245.000
20.21000 256.000
20.22500 258.000
20.24000 242.000
20.25500 258.000
20.27000 242.000
20.28500 247.000
20.30000 217.000
20.31500 252.000
20.33000 240.000
20.34500 232.000
20.36000 238.000
20.37500 238.000
20.39000 237.000
20.40500 246.000
20.42000 238.000
20.43500 243.000
20.45000 229.000
20.46500 226.000
20.48000 240.000
20.49500 252.000
20.51000 245.000
20.52500 232.000
20.54000 225.000
20.55500 225.000
20.57000 219.000
20.58500 238.000
20.60000 232.000
20.61500 234.000
20.63000 244.000
20.64500 237.000
20.66000 251.000
20.67500 231.000
20.69000 231.000
20.70500 217.000
20.72000 229.000
20.73500 237.000
20.75000 222.000
20.76500 238.000
20.78000 298.000
20.79500 255.000
20.81000 252.000
20.82500 251.000
20.84000 247.000
20.85500 234.000
20.87000 242.000
20.88500 223.000
20.90000 245.000
20.91500 262.000
20.93000 230.000
20.94500 229.000
20.96000 247.000
20.97500 242.000
20.99000 234.000
21.00500 258.000
21.02000 236.000
21.03500 268.000
21.05000 284.000
21.06500 267.000
21.08000 259.000
21.09500 259.000
21.11000 242.000
21.12500 238.000
21.14000 273.000
21.15500 251.000
21.17000 256.000
21.18500 245.000
21.20000 253.000
21.21500 268.000
21.23000 247.000
21.24500 267.000
21.26000 257.000
21.27500 267.000
21.29000 256.000
21.30500 252.000
21.32000 255.000
21.33500 264.000
21.35000 290.000
21.36500 250.000
21.38000 270.000
21.39500 259.000
21.41000 277.000
21.42500 265.000
21.44000 277.000
21.45500 272.000
21.47000 263.000
21.48500 237.000
21.50000 265.000
21.51500 271.000
21.53000 256.000
21.54500 276.000
21.56000 245.000
21.57500 274.000
21.59000 280.000
21.60500 275.000
21.62000 254.000
21.63500 299.000
21.65000 278.000
21.66500 281.000
21.68000 281.000
21.69500 256.000
21.71000 281.000
21.72500 287.000
21.74000 283.000
21.75500 248.000
21.77000 266.000
21.78500 268.000
21.80000 270.000
21.81500 272.000
21.83000 255.000
21.84500 266.000
21.86000 262.000
21.87500 262.000
21.89000 297.000
21.90500 288.000
21.92000 289.000
21.93500 287.000
21.95000 292.000
21.96500 305.000
21.98000 292.000
21.99500 294.000
22.01000 310.000
22.02500 322.000
22.04000 299.000
22.05500 357.000
22.07000 348.000
22.08500 333.000
22.10000 322.000
22.11500 312.000
22.13000 335.000
22.14500 284.000
22.16000 316.000
22.17500 313.000
22.19000 326.000
22.20500 317.000
22.22000 311.000
22.23500 305.000
22.25000 309.000
22.26500 314.000
22.28000 317.000
22.29500 305.000
22.31000 281.000
22.32500 263.000
22.34000 282.000
22.35500 242.000
22.37000 281.000
22.38500 278.000
22.40000 311.000
22.41500 298.000
22.43000 296.000
22.44500 301.000
22.46000 287.000
22.47500 277.000
22.49000 300.000
22.50500 291.000
22.52000 296.000
22.53500 285.000
22.55000 263.000
22.56500 264.000
22.58000 260.000
22.59500 272.000
22.61000 275.000
22.62500 294.000
22.64000 262.000
22.65500 283.000
22.67000 301.000
22.68500 324.000
22.70000 302.000
22.71500 285.000
22.73000 293.000
22.74500 295.000
22.76000 319.000
22.77500 305.000
22.79000 328.000
22.80500 317.000
22.82000 323.000
22.83500 316.000
22.85000 314.000
22.86500 328.000
22.88000 330.000
22.89500 314.000
22.91000 347.000
22.92500 334.000
22.94000 349.000
22.95500 347.000
22.97000 340.000
22.98500 345.000
23.00000 366.000
23.01500 383.000
23.03000 343.000
23.04500 323.000
23.06000 344.000
23.07500 351.000
23.09000 338.000
23.10500 344.000
23.12000 351.000
23.13500 365.000
23.15000 331.000
23.16500 317.000
23.18000 353.000
23.19500 318.000
23.21000 321.000
23.22500 340.000
23.24000 326.000
23.25500 316.000
23.27000 322.000
23.28500 332.000
23.30000 319.000
23.31500 300.000
23.33000 313.000
23.34500 321.000
23.36000 309.000
23.37500 297.000
23.39000 300.000
23.40500 304.000
23.42000 313.000
23.43500 339.000
23.45000 306.000
23.46500 314.000
23.48000 313.000
23.49500 289.000
23.51000 316.000
23.52500 318.000
23.54000 272.000
23.55500 305.000
23.57000 302.000
23.58500 309.000
23.60000 289.000
23.61500 313.000
23.63000 322.000
23.64500 319.000
23.66000 337.000
23.67500 323.000
23.69000 308.000
23.70500 290.000
23.72000 317.000
23.73500 295.000
23.75000 292.000
23.76500 281.000
23.78000 296.000
23.79500 301.000
23.81000 295.000
23.82500 334.000
23.84000 329.000
23.85500 290.000
23.87000 279.000
23.88500 298.000
23.90000 309.000
23.91500 302.000
23.93000 309.000
23.94500 309.000
23.96000 303.000
23.97500 300.000
23.99000 306.000
24.00500 306.000
24.02000 318.000
24.03500 312.000
24.05000 323.000
24.06500 327.000
24.08000 306.000
24.09500 301.000
24.11000 327.000
24.12500 316.000
24.14000 294.000
24.15500 327.000
24.17000 326.000
24.18500 307.000
24.20000 338.000
24.21500 319.000
24.23000 325.000
24.24500 329.000
24.26000 330.000
24.27500 327.000
24.29000 318.000
24.30500 321.000
24.32000 323.000
24.33500 327.000
24.35000 335.000
24.36500 343.000
24.38000 336.000
24.39500 319.000
24.41000 308.000
24.42500 331.000
24.44000 328.000
24.45500 355.000
24.47000 350.000
24.48500 340.000
24.50000 327.000
24.51500 361.000
24.53000 361.000
24.54500 357.000
24.56000 360.000
24.57500 363.000
24.59000 366.000
24.60500 347.000
24.62000 358.000
24.63500 358.000
24.65000 358.000
24.66500 366.000
24.68000 371.000
24.69500 353.000
24.71000 350.000
24.72500 375.000
24.74000 355.000
24.75500 347.000
24.77000 332.000
24.78500 343.000
24.80000 340.000
24.81500 352.000
24.83000 336.000
24.84500 307.000
24.86000 322.000
24.87500 335.000
24.89000 324.000
24.90500 329.000
24.92000 338.000
24.93500 324.000
24.95000 343.000
24.96500 325.000
24.98000 334.000
24.99500 341.000
25.01000 328.000
25.02500 334.000
25.04000 327.000
25.05500 333.000
25.07000 319.000
25.08500 331.000
25.10000 334.000
25.11500 330.000
25.13000 339.000
25.14500 330.000
25.16000 352.000
25.17500 337.000
25.19000 331.000
25.20500 319.000
25.22000 343.000
25.23500 339.000
25.25000 328.000
25.26500 305.000
25.28000 323.000
25.29500 329.000
25.31000 342.000
25.32500 350.000
25.34000 366.000
25.35500 362.000
25.37000 354.000
25.38500 337.000
25.40000 324.000
25.41500 346.000
25.43000 369.000
25.44500 375.000
25.46000 362.000
25.47500 356.000
25.49000 353.000
25.50500 349.000
25.52000 362.000
25.53500 358.000
25.55000 358.000
25.56500 392.000
25.58000 357.000
25.59500 346.000
25.61000 371.000
25.62500 409.000
25.64000 386.000
25.65500 392.000
25.67000 374.000
25.68500 343.000
25.70000 356.000
25.71500 384.000
25.73000 356.000
25.74500 413.000
25.76000 349.000
25.77500 362.000
25.79000 379.000
25.80500 373.000
25.82000 362.000
25.83500 388.000
25.85000 386.000
25.86500 377.000
25.88000 400.000
25.89500 378.000
25.91000 372.000
25.92500 390.000
25.94000 401.000
25.95500 385.000
25.97000 361.000
25.98500 381.000
26.00000 356.000
26.01500 369.000
26.03000 357.000
26.04500 384.000
26.06000 386.000
26.07500 425.000
26.09000 395.000
26.10500 405.000
26.12000 386.000
26.13500 388.000
26.15000 368.000
26.16500 390.000
26.18000 343.000
26.19500 352.000
26.21000 337.000
26.22500 369.000
26.24000 411.000
26.25500 376.000
26.27000 398.000
26.28500 420.000
26.30000 381.000
26.31500 392.000
26.33000 352.000
26.34500 357.000
26.36000 393.000
26.37500 358.000
26.39000 399.000
26.40500 405.000
26.42000 398.000
26.43500 397.000
26.45000 414.000
26.46500 374.000
26.48000 355.000
26.49500 394.000
26.51000 397.000
26.52500 382.000
26.54000 405.000
26.55500 409.000
26.57000 385.000
26.58500 383.000
26.60000 418.000
26.61500 390.000
26.63000 419.000
26.64500 430.000
26.66000 430.000
26.67500 418.000
26.69000 427.000
26.70500 415.000
26.72000 391.000
26.73500 407.000
26.75000 428.000
26.76500 402.000
26.78000 411.000
26.79500 415.000
26.81000 423.000
26.82500 416.000
26.84000 443.000
26.85500 469.000
26.87000 456.000
26.88500 440.000
26.90000 431.000
26.91500 417.000
26.93000 418.000
26.94500 432.000
26.96000 444.000
26.97500 408.000
26.99000 447.000
27.00500 459.000
27.02000 439.000
27.03500 456.000
27.05000 494.000
27.06500 482.000
27.08000 496.000
27.09500 485.000
27.11000 454.000
27.12500 477.000
27.14000 470.000
27.15500 465.000
27.17000 492.000
27.18500 461.000
27.20000 479.000
27.21500 492.000
27.23000 512.000
27.24500 498.000
27.26000 506.000
27.27500 501.000
27.29000 490.000
27.30500 531.000
27.32000 515.000
27.33500 545.000
27.35000 542.000
27.36500 513.000
27.38000 541.000
27.39500 556.000
27.41000 569.000
27.42500 580.000
27.44000 578.000
27.45500 573.000
27.47000 597.000
27.48500 630.000
27.50000 655.000
27.51500 664.000
27.53000 639.000
27.54500 703.000
27.56000 692.000
27.57500 702.000
27.59000 766.000
27.60500 772.000
27.62000 851.000
27.63500 862.000
27.65000 882.000
27.66500 878.000
27.68000 896.000
27.69500 917.000
27.71000 984.000
27.72500 1043.000
27.74000 1036.000
27.75500 1025.000
27.77000 1035.000
27.78500 1051.000
27.80000 1060.000
27.81500 1070.000
27.83000 1021.000
27.84500 1055.000
27.86000 1056.000
27.87500 1090.000
27.89000 1045.000
27.90500 1087.000
27.92000 1078.000
27.93500 1071.000
27.95000 1106.000
27.96500 1095.000
27.98000 1083.000
27.99500 1086.000
28.01000 1046.000
28.02500 1054.000
28.04000 1054.000
28.05500 1074.000
28.07000 1028.000
28.08500 1013.000
28.10000 985.000
28.11500 1007.000
28.13000 1002.000
28.14500 988.000
28.16000 1001.000
28.17500 953.000
28.19000 916.000
28.20500 908.000
28.22000 876.000
28.23500 834.000
28.25000 832.000
28.26500 799.000
28.28000 796.000
28.29500 801.000
28.31000 818.000
28.32500 791.000
28.34000 731.000
28.35500 725.000
28.37000 712.000
28.38500 696.000
28.40000 698.000
28.41500 647.000
28.43000 643.000
28.44500 624.000
28.46000 640.000
28.47500 617.000
28.49000 594.000
28.50500 575.000
28.52000 545.000
28.53500 576.000
28.55000 555.000
28.56500 536.000
28.58000 500.000
28.59500 490.000
28.61000 535.000
28.62500 520.000
28.64000 508.000
28.65500 504.000
28.67000 502.000
28.68500 500.000
28.70000 501.000
28.71500 489.000
28.73000 494.000
28.74500 498.000
28.76000 470.000
28.77500 477.000
28.79000 490.000
28.80500 471.000
28.82000 495.000
28.83500 480.000
28.85000 448.000
28.86500 434.000
28.88000 459.000
28.89500 485.000
28.91000 454.000
28.92500 443.000
28.94000 466.000
28.95500 441.000
28.97000 460.000
28.98500 452.000
29.00000 461.000
29.01500 463.000
29.03000 459.000
29.04500 458.000
29.06000 454.000
29.07500 466.000
29.09000 487.000
29.10500 468.000
29.12000 451.000
29.13500 449.000
29.15000 463.000
29.16500 442.000
29.18000 469.000
29.19500 468.000
29.21000 436.000
29.22500 431.000
29.24000 442.000
29.25500 436.000
29.27000 411.000
29.28500 416.000
29.30000 419.000
29.31500 413.000
29.33000 428.000
29.34500 422.000
29.36000 412.000
29.37500 380.000
29.39000 403.000
29.40500 398.000
29.42000 401.000
29.43500 390.000
29.45000 396.000
29.46500 389.000
29.48000 372.000
29.49500 398.000
29.51000 398.000
29.52500 402.000
29.54000 412.000
29.55500 399.000
29.57000 379.000
29.58500 379.000
29.60000 383.000
29.61500 395.000
29.63000 387.000
29.64500 377.000
29.66000 369.000
29.67500 377.000
29.69000 381.000
29.70500 369.000
29.72000 374.000
29.73500 411.000
29.75000 370.000
29.76500 389.000
29.78000 369.000
29.79500 402.000
29.81000 372.000
29.82500 365.000
29.84000 358.000
29.85500 352.000
29.87000 351.000
29.88500 356.000
29.90000 339.000
29.91500 352.000
29.93000 367.000
29.94500 368.000
29.96000 369.000
29.97500 374.000
29.99000 375.000
30.00500 354.000
30.02000 345.000
30.03500 345.000
30.05000 350.000
30.06500 355.000
30.08000 361.000
30.09500 374.000
30.11000 375.000
30.12500 339.000
30.14000 331.000
30.15500 365.000
30.17000 369.000
30.18500 336.000
30.20000 344.000
30.21500 352.000
30.23000 336.000
30.24500 358.000
30.26000 348.000
30.27500 354.000
30.29000 360.000
30.30500 348.000
30.32000 328.000
30.33500 354.000
30.35000 356.000
30.36500 374.000
30.38000 359.000
30.39500 358.000
30.41000 387.000
30.42500 391.000
30.44000 364.000
30.45500 345.000
30.47000 373.000
30.48500 355.000
30.50000 352.000
30.51500 343.000
30.53000 366.000
30.54500 351.000
30.56000 350.000
30.57500 344.000
30.59000 365.000
30.60500 376.000
30.62000 364.000
30.63500 358.000
30.65000 367.000
30.66500 351.000
30.68000 354.000
30.69500 344.000
30.71000 332.000
30.72500 329.000
30.74000 328.000
30.75500 349.000
30.77000 314.000
30.78500 348.000
30.80000 317.000
30.81500 338.000
30.83000 347.000
30.84500 305.000
30.86000 342.000
30.87500 356.000
30.89000 342.000
30.90500 326.000
30.92000 326.000
30.93500 311.000
30.95000 293.000
30.96500 306.000
30.98000 314.000
30.99500 304.000
31.01000 305.000
31.02500 299.000
31.04000 286.000
31.05500 290.000
31.07000 329.000
31.08500 294.000
31.10000 303.000
31.11500 290.000
31.13000 300.000
31.14500 299.000
31.16000 315.000
31.17500 295.000
31.19000 284.000
31.20500 305.000
31.22000 321.000
31.23500 329.000
31.25000 302.000
31.26500 306.000
31.28000 292.000
31.29500 281.000
31.31000 286.000
31.32500 274.000
31.34000 303.000
31.35500 297.000
31.37000 280.000
31.38500 281.000
31.40000 302.000
31.41500 302.000
31.43000 290.000
31.44500 290.000
31.46000 284.000
31.47500 287.000
31.49000 286.000
31.50500 271.000
31.52000 290.000
31.53500 287.000
31.55000 282.000
31.56500 279.000
31.58000 284.000
31.59500 276.000
31.61000 280.000
31.62500 284.000
31.64000 287.000
31.65500 285.000
31.67000 294.000
31.68500 297.000
31.70000 295.000
31.71500 302.000
31.73000 268.000
31.74500 279.000
31.76000 321.000
31.77500 322.000
31.79000 289.000
31.80500 294.000
31.82000 317.000
31.83500 320.000
31.85000 306.000
31.86500 279.000
31.88000 298.000
31.89500 283.000
31.91000 294.000
31.92500 301.000
31.94000 306.000
31.95500 310.000
31.97000 292.000
31.98500 274.000
32.00000 306.000
32.01500 303.000
32.03000 300.000
32.04500 311.000
32.06000 308.000
32.07500 285.000
32.09000 297.000
32.10500 267.000
32.12000 291.000
32.13500 282.000
32.15000 275.000
32.16500 304.000
32.18000 300.000
32.19500 312.000
32.21000 311.000
32.22500 306.000
32.24000 278.000
32.25500 310.000
32.27000 311.000
32.28500 336.000
32.30000 336.000
32.31500 328.000
32.33000 323.000
32.34500 327.000
32.36000 336.000
32.37500 331.000
32.39000 316.000
32.40500 320.000
32.42000 306.000
32.43500 317.000
32.45000 327.000
32.46500 304.000
32.48000 307.000
32.49500 303.000
32.51000 273.000
32.52500 310.000
32.54000 307.000
32.55500 286.000
32.57000 297.000
32.58500 286.000
32.60000 303.000
32.61500 271.000
32.63000 273.000
32.64500 286.000
32.66000 286.000
32.67500 252.000
32.69000 269.000
32.70500 277.000
32.72000 264.000
32.73500 247.000
32.75000 254.000
32.76500 245.000
32.78000 253.000
32.79500 232.000
32.81000 229.000
32.82500 250.000
32.84000 237.000
32.85500 231.000
32.87000 236.000
32.88500 243.000
32.90000 261.000
32.91500 245.000
32.93000 219.000
32.94500 238.000
32.96000 240.000
32.97500 249.000
32.99000 250.000
33.00500 242.000
33.02000 245.000
33.03500 238.000
33.05000 221.000
33.06500 246.000
33.08000 230.000
33.09500 243.000
33.11000 229.000
33.12500 204.000
33.14000 238.000
33.15500 255.000
33.17000 226.000
33.18500 213.000
33.20000 238.000
33.21500 238.000
33.23000 234.000
33.24500 212.000
33.26000 228.000
33.27500 220.000
33.29000 227.000
33.30500 243.000
33.32000 230.000
33.33500 222.000
33.35000 241.000
33.36500 206.000
33.38000 224.000
33.39500 257.000
33.41000 240.000
33.42500 198.000
33.44000 230.000
33.45500 214.000
33.47000 222.000
33.48500 233.000
33.50000 216.000
33.51500 201.000
33.53000 213.000
33.54500 208.000
33.56000 201.000
33.57500 210.000
33.59000 241.000
33.60500 214.000
33.62000 203.000
33.63500 209.000
33.65000 222.000
33.66500 214.000
33.68000 217.000
33.69500 206.000
33.71000 222.000
33.72500 254.000
33.74000 236.000
33.75500 239.000
33.77000 218.000
33.78500 215.000
33.80000 218.000
33.81500 211.000
33.83000 219.000
33.84500 217.000
33.86000 200.000
33.87500 211.000
33.89000 211.000
33.90500 210.000
33.92000 210.000
33.93500 223.000
33.95000 211.000
33.96500 212.000
33.98000 204.000
33.99500 211.000
34.01000 228.000
34.02500 248.000
34.04000 225.000
34.05500 223.000
34.07000 219.000
34.08500 214.000
34.10000 216.000
34.11500 190.000
34.13000 190.000
34.14500 203.000
34.16000 224.000
34.17500 212.000
34.19000 199.000
34.20500 219.000
34.22000 228.000
34.23500 218.000
34.25000 223.000
34.26500 214.000
34.28000 196.000
34.29500 224.000
34.31000 231.000
34.32500 222.000
34.34000 238.000
34.35500 217.000
34.37000 223.000
34.38500 209.000
34.40000 199.000
34.41500 214.000
34.43000 217.000
34.44500 229.000
34.46000 220.000
34.47500 218.000
34.49000 204.000
34.50500 233.000
34.52000 211.000
34.53500 200.000
34.55000 205.000
34.56500 219.000
34.58000 234.000
34.59500 233.000
34.61000 221.000
34.62500 196.000
34.64000 205.000
34.65500 220.000
34.67000 207.000
34.68500 217.000
34.70000 242.000
34.71500 250.000
34.73000 225.000
34.74500 207.000
34.76000 195.000
34.77500 220.000
34.79000 211.000
34.80500 216.000
34.82000 228.000
34.83500 204.000
34.85000 198.000
34.86500 206.000
34.88000 214.000
34.89500 207.000
34.91000 227.000
34.92500 215.000
34.94000 216.000
34.95500 251.000
34.97000 239.000
34.98500 231.000
35.00000 246.000
35.01500 222.000
35.03000 231.000
35.04500 214.000
35.06000 234.000
35.07500 216.000
35.09000 223.000
35.10500 240.000
35.12000 242.000
35.13500 239.000
35.15000 248.000
35.16500 266.000
35.18000 254.000
35.19500 241.000
35.21000 223.000
35.22500 261.000
35.24000 271.000
35.25500 223.000
35.27000 269.000
35.28500 277.000
35.30000 289.000
35.31500 283.000
35.33000 257.000
35.34500 292.000
35.36000 296.000
35.37500 305.000
35.39000 325.000
35.40500 345.000
35.42000 364.000
35.43500 380.000
35.45000 367.000
35.46500 354.000
35.48000 356.000
35.49500 352.000
35.51000 321.000
35.52500 317.000
35.54000 298.000
35.55500 297.000
35.57000 295.000
35.58500 307.000
35.60000 292.000
35.61500 280.000
35.63000 260.000
35.64500 279.000
35.66000 281.000
35.67500 291.000
35.69000 266.000
35.70500 209.000
35.72000 243.000
35.73500 259.000
35.75000 245.000
35.76500 254.000
35.78000 229.000
35.79500 230.000
35.81000 229.000
35.82500 237.000
35.84000 249.000
35.85500 243.000
35.87000 240.000
35.88500 245.000
35.90000 241.000
35.91500 238.000
35.93000 250.000
35.94500 228.000
35.96000 237.000
35.97500 248.000
35.99000 226.000
36.00500 259.000
36.02000 226.000
36.03500 250.000
36.05000 236.000
36.06500 249.000
36.08000 237.000
36.09500 227.000
36.11000 234.000
36.12500 229.000
36.14000 223.000
36.15500 235.000
36.17000 224.000
36.18500 241.000
36.20000 241.000
36.21500 250.000
36.23000 250.000
36.24500 248.000
36.26000 235.000
36.27500 257.000
36.29000 245.000
36.30500 250.000
36.32000 255.000
36.33500 259.000
36.35000 230.000
36.36500 260.000
36.38000 238.000
36.39500 255.000
36.41000 259.000
36.42500 284.000
36.44000 254.000
36.45500 234.000
36.47000 235.000
36.48500 250.000
36.50000 266.000
36.51500 276.000
36.53000 256.000
36.54500 236.000
36.56000 251.000
36.57500 265.000
36.59000 263.000
36.60500 266.000
36.62000 251.000
36.63500 269.000
36.65000 256.000
36.66500 231.000
36.68000 226.000
36.69500 231.000
36.71000 242.000
36.72500 237.000
36.74000 252.000
36.75500 243.000
36.77000 226.000
36.78500 246.000
36.80000 243.000
36.81500 225.000
36.83000 226.000
36.84500 236.000
36.86000 245.000
36.87500 236.000
36.89000 221.000
36.90500 221.000
36.92000 242.000
36.93500 235.000
36.95000 210.000
36.96500 225.000
36.98000 237.000
36.99500 237.000
37.01000 216.000
37.02500 221.000
37.04000 238.000
37.05500 244.000
37.07000 217.000
37.08500 225.000
37.10000 241.000
37.11500 231.000
37.13000 253.000
37.14500 223.000
37.16000 235.000
37.17500 221.000
37.19000 230.000
37.20500 222.000
37.22000 254.000
37.23500 247.000
37.25000 235.000
37.26500 245.000
37.28000 243.000
37.29500 289.000
37.31000 272.000
37.32500 263.000
37.34000 246.000
37.35500 260.000
37.37000 251.000
37.38500 248.000
37.40000 262.000
37.41500 257.000
37.43000 236.000
37.44500 228.000
37.46000 237.000
37.47500 222.000
37.49000 232.000
37.50500 224.000
37.52000 239.000
37.53500 237.000
37.55000 236.000
37.56500 247.000
37.58000 254.000
37.59500 262.000
37.61000 276.000
37.62500 245.000
37.64000 246.000
37.65500 221.000
37.67000 226.000
37.68500 247.000
37.70000 247.000
37.71500 233.000
37.73000 235.000
37.74500 242.000
37.76000 239.000
37.77500 254.000
37.79000 244.000
37.80500 218.000
37.82000 229.000
37.83500 210.000
37.85000 213.000
37.86500 218.000
37.88000 216.000
37.89500 229.000
37.91000 226.000
37.92500 231.000
37.94000 221.000
37.95500 233.000
37.97000 209.000
37.98500 207.000
38.00000 217.000
38.01500 200.000
38.03000 197.000
38.04500 218.000
38.06000 211.000
38.07500 209.000
38.09000 234.000
38.10500 217.000
38.12000 188.000
38.13500 202.000
38.15000 234.000
38.16500 219.000
38.18000 210.000
38.19500 224.000
38.21000 214.000
38.22500 228.000
38.24000 212.000
38.25500 210.000
38.27000 229.000
38.28500 224.000
38.30000 213.000
38.31500 229.000
38.33000 210.000
38.34500 214.000
38.36000 227.000
38.37500 230.000
38.39000 241.000
38.40500 214.000
38.42000 222.000
38.43500 212.000
38.45000 226.000
38.46500 233.000
38.48000 221.000
38.49500 235.000
38.51000 227.000
38.52500 227.000
38.54000 211.000
38.55500 208.000
38.57000 220.000
38.58500 214.000
38.60000 229.000
38.61500 232.000
38.63000 250.000
38.64500 228.000
38.66000 217.000
38.67500 211.000
38.69000 220.000
38.70500 229.000
38.72000 212.000
38.73500 210.000
38.75000 233.000
38.76500 216.000
38.78000 213.000
38.79500 220.000
38.81000 213.000
38.82500 211.000
38.84000 219.000
38.85500 221.000
38.87000 212.000
38.88500 217.000
38.90000 185.000
38.91500 196.000
38.93000 213.000
38.94500 187.000
38.96000 204.000
38.97500 190.000
38.99000 220.000
39.00500 210.000
39.02000 209.000
39.03500 208.000
39.05000 207.000
39.06500 203.000
39.08000 209.000
39.09500 192.000
39.11000 187.000
39.12500 194.000
39.14000 216.000
39.15500 221.000
39.17000 215.000
39.18500 186.000
39.20000 189.000
39.21500 195.000
39.23000 196.000
39.24500 202.000
39.26000 208.000
39.27500 205.000
39.29000 202.000
39.30500 216.000
39.32000 223.000
39.33500 198.000
39.35000 193.000
39.36500 176.000
39.38000 193.000
39.39500 205.000
39.41000 222.000
39.42500 179.000
39.44000 186.000
39.45500 189.000
39.47000 176.000
39.48500 182.000
39.50000 194.000
39.51500 195.000
39.53000 189.000
39.54500 191.000
39.56000 190.000
39.57500 198.000
39.59000 193.000
39.60500 200.000
39.62000 229.000
39.63500 187.000
39.65000 208.000
39.66500 197.000
39.68000 202.000
39.69500 194.000
39.71000 193.000
39.72500 200.000
39.74000 186.000
39.75500 180.000
39.77000 199.000
39.78500 199.000
39.80000 180.000
39.81500 216.000
39.83000 203.000
39.84500 178.000
39.86000 177.000
39.87500 194.000
39.89000 220.000
39.90500 212.000
39.92000 204.000
39.93500 215.000
39.95000 196.000
39.96500 193.000
39.98000 201.000
39.99500 208.000
40.01000 210.000
40.02500 202.000
40.04000 208.000
40.05500 205.000
40.07000 222.000
40.08500 227.000
40.10000 231.000
40.11500 200.000
40.13000 196.000
40.14500 217.000
40.16000 218.000
40.17500 188.000
40.19000 202.000
40.20500 205.000
40.22000 214.000
40.23500 211.000
40.25000 192.000
40.26500 180.000
40.28000 203.000
40.29500 219.000
40.31000 200.000
40.32500 200.000
40.34000 195.000
40.35500 221.000
40.37000 207.000
40.38500 195.000
40.40000 198.000
40.41500 184.000
40.43000 193.000
40.44500 190.000
40.46000 193.000
40.47500 205.000
40.49000 217.000
40.50500 200.000
40.52000 186.000
40.53500 172.000
40.55000 176.000
40.56500 200.000
40.58000 186.000
40.59500 207.000
40.61000 198.000
40.62500 198.000
40.64000 194.000
40.65500 176.000
40.67000 187.000
40.68500 184.000
40.70000 167.000
40.71500 189.000
40.73000 205.000
40.74500 176.000
40.76000 177.000
40.77500 208.000
40.79000 200.000
40.80500 206.000
40.82000 190.000
40.83500 200.000
40.85000 188.000
40.86500 176.000
40.88000 194.000
40.89500 182.000
40.91000 186.000
40.92500 164.000
40.94000 169.000
40.95500 182.000
40.97000 192.000
40.98500 176.000
41.00000 186.000
41.01500 173.000
41.03000 172.000
41.04500 183.000
41.06000 168.000
41.07500 196.000
41.09000 185.000
41.10500 185.000
41.12000 181.000
41.13500 189.000
41.15000 184.000
41.16500 159.000
41.18000 186.000
41.19500 190.000
41.21000 187.000
41.22500 164.000
41.24000 169.000
41.25500 180.000
41.27000 180.000
41.28500 181.000
41.30000 171.000
41.31500 179.000
41.33000 178.000
41.34500 181.000
41.36000 164.000
41.37500 165.000
41.39000 179.000
41.40500 178.000
41.42000 182.000
41.43500 188.000
41.45000 197.000
41.46500 203.000
41.48000 190.000
41.49500 188.000
41.51000 184.000
41.52500 200.000
41.54000 172.000
41.55500 172.000
41.57000 175.000
41.58500 185.000
41.60000 165.000
41.61500 181.000
41.63000 171.000
41.64500 189.000
41.66000 175.000
41.67500 198.000
41.69000 169.000
41.70500 163.000
41.72000 174.000
41.73500 159.000
41.75000 166.000
41.76500 176.000
41.78000 164.000
41.79500 157.000
41.81000 157.000
41.82500 167.000
41.84000 176.000
41.85500 175.000
41.87000 166.000
41.88500 162.000
41.90000 151.000
41.91500 163.000
41.93000 190.000
41.94500 180.000
41.96000 152.000
41.97500 190.000
41.99000 174.000
42.00500 168.000
42.02000 183.000
42.03500 164.000
42.05000 157.000
42.06500 159.000
42.08000 174.000
42.09500 178.000
42.11000 183.000
42.12500 183.000
42.14000 154.000
42.15500 178.000
42.17000 175.000
42.18500 167.000
42.20000 171.000
42.21500 177.000
42.23000 163.000
42.24500 156.000
42.26000 166.000
42.27500 167.000
42.29000 177.000
42.30500 182.000
42.32000 170.000
42.33500 165.000
42.35000 186.000
42.36500 172.000
42.38000 181.000
42.39500 180.000
42.41000 177.000
42.42500 154.000
42.44000 181.000
42.45500 180.000
42.47000 181.000
42.48500 171.000
42.50000 173.000
42.51500 184.000
42.53000 194.000
42.54500 187.000
42.56000 178.000
42.57500 189.000
42.59000 191.000
42.60500 175.000
42.62000 169.000
42.63500 185.000
42.65000 170.000
42.66500 197.000
42.68000 184.000
42.69500 207.000
42.71000 189.000
42.72500 202.000
42.74000 196.000
42.75500 196.000
42.77000 176.000
42.78500 194.000
42.80000 197.000
42.81500 211.000
42.83000 184.000
42.84500 189.000
42.86000 180.000
42.87500 193.000
42.89000 191.000
42.90500 181.000
42.92000 198.000
42.93500 191.000
42.95000 191.000
42.96500 170.000
42.98000 200.000
42.99500 198.000
43.01000 186.000
43.02500 205.000
43.04000 204.000
43.05500 203.000
43.07000 223.000
43.08500 221.000
43.10000 219.000
43.11500 201.000
43.13000 227.000
43.14500 228.000
43.16000 229.000
43.17500 214.000
43.19000 220.000
43.20500 238.000
43.22000 247.000
43.23500 257.000
43.25000 250.000
43.26500 273.000
43.28000 273.000
43.29500 263.000
43.31000 283.000
43.32500 262.000
43.34000 257.000
43.35500 254.000
43.37000 260.000
43.38500 267.000
43.40000 224.000
43.41500 212.000
43.43000 235.000
43.44500 218.000
43.46000 215.000
43.47500 236.000
43.49000 227.000
43.50500 198.000
43.52000 228.000
43.53500 212.000
43.55000 219.000
43.56500 222.000
43.58000 213.000
43.59500 207.000
43.61000 201.000
43.62500 206.000
43.64000 190.000
43.65500 182.000
43.67000 182.000
43.68500 195.000
43.70000 214.000
43.71500 192.000
43.73000 178.000
43.74500 192.000
43.76000 206.000
43.77500 193.000
43.79000 195.000
43.80500 202.000
43.82000 200.000
43.83500 175.000
43.85000 179.000
43.86500 198.000
43.88000 213.000
43.89500 187.000
43.91000 185.000
43.92500 182.000
43.94000 176.000
43.95500 194.000
43.97000 170.000
43.98500 163.000
44.00000 176.000
44.01500 207.000
44.03000 195.000
44.04500 183.000
44.06000 190.000
44.07500 203.000
44.09000 177.000
44.10500 188.000
44.12000 219.000
44.13500 218.000
44.15000 197.000
44.16500 201.000
44.18000 193.000
44.19500 194.000
44.21000 187.000
44.22500 203.000
44.24000 203.000
44.25500 195.000
44.27000 197.000
44.28500 200.000
44.30000 207.000
44.31500 196.000
44.33000 195.000
44.34500 207.000
44.36000 203.000
44.37500 209.000
44.39000 219.000
44.40500 223.000
44.42000 217.000
44.43500 203.000
44.45000 191.000
44.46500 194.000
44.48000 187.000
44.49500 190.000
44.51000 185.000
44.52500 193.000
44.54000 195.000
44.55500 198.000
44.57000 189.000
44.58500 201.000
44.60000 191.000
44.61500 201.000
44.63000 200.000
44.64500 200.000
44.66000 190.000
44.67500 197.000
44.69000 190.000
44.70500 184.000
44.72000 171.000
44.73500 174.000
44.75000 192.000
44.76500 191.000
44.78000 190.000
44.79500 179.000
44.81000 188.000
44.82500 179.000
44.84000 176.000
44.85500 166.000
44.87000 182.000
44.88500 190.000
44.90000 188.000
44.91500 193.000
44.93000 191.000
44.94500 223.000
44.96000 193.000
44.97500 175.000
44.99000 181.000
45.00500 170.000
45.02000 180.000
45.03500 208.000
45.05000 196.000
45.06500 194.000
45.08000 202.000
45.09500 183.000
45.11000 193.000
45.12500 215.000
45.14000 198.000
45.15500 203.000
45.17000 196.000
45.18500 185.000
45.20000 193.000
45.21500 181.000
45.23000 185.000
45.24500 184.000
45.26000 177.000
45.27500 183.000
45.29000 179.000
45.30500 193.000
45.32000 197.000
45.33500 187.000
45.35000 182.000
45.36500 190.000
45.38000 181.000
45.39500 180.000
45.41000 164.000
45.42500 181.000
45.44000 172.000
45.45500 162.000
45.47000 159.000
45.48500 177.000
45.50000 162.000
45.51500 196.000
45.53000 168.000
45.54500 174.000
45.56000 179.000
45.57500 181.000
45.59000 169.000
45.60500 179.000
45.62000 177.000
45.63500 180.000
45.65000 177.000
45.66500 180.000
45.68000 180.000
45.69500 154.000
45.71000 143.000
45.72500 165.000
45.74000 164.000
45.75500 169.000
45.77000 186.000
45.78500 180.000
45.80000 171.000
45.81500 160.000
45.83000 147.000
45.84500 155.000
45.86000 175.000
45.87500 162.000
45.89000 162.000
45.90500 178.000
45.92000 162.000
45.93500 174.000
45.95000 175.000
45.96500 182.000
45.98000 202.000
45.99500 176.000
46.01000 172.000
46.02500 166.000
46.04000 162.000
46.05500 169.000
46.07000 168.000
46.08500 178.000
46.10000 163.000
46.11500 170.000
46.13000 165.000
46.14500 183.000
46.16000 187.000
46.17500 180.000
46.19000 186.000
46.20500 166.000
46.22000 164.000
46.23500 162.000
46.25000 162.000
46.26500 172.000
46.28000 194.000
46.29500 162.000
46.31000 150.000
46.32500 152.000
46.34000 173.000
46.35500 182.000
46.37000 173.000
46.38500 201.000
46.40000 195.000
46.41500 177.000
46.43000 161.000
46.44500 161.000
46.46000 154.000
46.47500 166.000
46.49000 173.000
46.50500 169.000
46.52000 165.000
46.53500 149.000
46.55000 182.000
46.56500 180.000
46.58000 160.000
46.59500 155.000
46.61000 139.000
46.62500 149.000
46.64000 156.000
46.65500 162.000
46.67000 196.000
46.68500 161.000
46.70000 147.000
46.71500 147.000
46.73000 157.000
46.74500 174.000
46.76000 154.000
46.77500 160.000
46.79000 181.000
46.80500 159.000
46.82000 138.000
46.83500 155.000
46.85000 180.000
46.86500 154.000
46.88000 157.000
46.89500 155.000
46.91000 143.000
46.92500 147.000
46.94000 163.000
46.95500 159.000
46.97000 150.000
46.98500 132.000
47.00000 154.000
47.01500 171.000
47.03000 152.000
47.04500 164.000
47.06000 159.000
47.07500 161.000
47.09000 147.000
47.10500 147.000
47.12000 151.000
47.13500 154.000
47.15000 143.000
47.16500 159.000
47.18000 165.000
47.19500 170.000
47.21000 158.000
47.22500 165.000
47.24000 156.000
47.25500 162.000
47.27000 163.000
47.28500 149.000
47.30000 139.000
47.31500 148.000
47.33000 139.000
47.34500 135.000
47.36000 160.000
47.37500 150.000
47.39000 140.000
47.40500 137.000
47.42000 131.000
47.43500 150.000
47.45000 162.000
47.46500 154.000
47.48000 158.000
47.49500 157.000
47.51000 154.000
47.52500 147.000
47.54000 140.000
47.55500 128.000
47.57000 138.000
47.58500 142.000
47.60000 142.000
47.61500 120.000
47.63000 139.000
47.64500 144.000
47.66000 144.000
47.67500 142.000
47.69000 141.000
47.70500 136.000
47.72000 127.000
47.73500 136.000
47.75000 139.000
47.76500 152.000
47.78000 155.000
47.79500 128.000
47.81000 132.000
47.82500 157.000
47.84000 148.000
47.85500 130.000
47.87000 135.000
47.88500 136.000
47.90000 139.000
47.91500 156.000
47.93000 149.000
47.94500 139.000
47.96000 137.000
47.97500 146.000
47.99000 149.000
48.00500 144.000
48.02000 129.000
48.03500 145.000
48.05000 138.000
48.06500 128.000
48.08000 129.000
48.09500 136.000
48.11000 150.000
48.12500 142.000
48.14000 134.000
48.15500 143.000
48.17000 137.000
48.18500 143.000
48.20000 143.000
48.21500 147.000
48.23000 127.000
48.24500 137.000
48.26000 120.000
48.27500 122.000
48.29000 138.000
48.30500 129.000
48.32000 121.000
48.33500 138.000
48.35000 159.000
48.36500 146.000
48.38000 150.000
48.39500 150.000
48.41000 125.000
48.42500 136.000
48.44000 130.000
48.45500 147.000
48.47000 146.000
48.48500 130.000
48.50000 123.000
48.51500 137.000
48.53000 134.000
48.54500 130.000
48.56000 126.000
48.57500 135.000
48.59000 150.000
48.60500 133.000
48.62000 144.000
48.63500 134.000
48.65000 124.000
48.66500 135.000
48.68000 131.000
48.69500 141.000
48.71000 122.000
48.72500 130.000
48.74000 125.000
48.75500 131.000
48.77000 132.000
48.78500 139.000
48.80000 143.000
48.81500 140.000
48.83000 135.000
48.84500 155.000
48.86000 126.000
48.87500 128.000
48.89000 143.000
48.90500 135.000
48.92000 147.000
48.93500 125.000
48.95000 138.000
48.96500 148.000
48.98000 143.000
48.99500 130.000
49.01000 130.000
49.02500 130.000
49.04000 125.000
49.05500 136.000
49.07000 146.000
49.08500 125.000
49.10000 117.000
49.11500 128.000
49.13000 119.000
49.14500 127.000
49.16000 126.000
49.17500 125.000
49.19000 138.000
49.20500 133.000
49.22000 139.000
49.23500 128.000
49.25000 135.000
49.26500 131.000
49.28000 112.000
49.29500 126.000
49.31000 132.000
49.32500 140.000
49.34000 146.000
49.35500 140.000
49.37000 126.000
49.38500 123.000
49.40000 107.000
49.41500 129.000
49.43000 144.000
49.44500 143.000
49.46000 132.000
49.47500 140.000
49.49000 144.000
49.50500 134.000
49.52000 143.000
49.53500 148.000
49.55000 153.000
49.56500 140.000
49.58000 129.000
49.59500 137.000
49.61000 149.000
49.62500 142.000
49.64000 137.000
49.65500 139.000
49.67000 126.000
49.68500 129.000
49.70000 137.000
49.71500 137.000
49.73000 125.000
49.74500 143.000
49.76000 129.000
49.77500 129.000
49.79000 135.000
49.80500 130.000
49.82000 131.000
49.83500 125.000
49.85000 152.000
49.86500 119.000
49.88000 132.000
49.89500 127.000
49.91000 135.000
49.92500 127.000
49.94000 119.000
49.95500 124.000
49.97000 123.000
49.98500 115.000
50.00000 129.000
50.01500 135.000
50.03000 135.000
50.04500 133.000
50.06000 157.000
50.07500 132.000
50.09000 138.000
50.10500 139.000
50.12000 131.000
50.13500 126.000
50.15000 155.000
50.16500 150.000
50.18000 127.000
50.19500 141.000
50.21000 134.000
50.22500 149.000
50.24000 140.000
50.25500 134.000
50.27000 125.000
50.28500 118.000
50.30000 130.000
50.31500 131.000
50.33000 119.000
50.34500 140.000
50.36000 133.000
50.37500 139.000
50.39000 140.000
50.40500 128.000
50.42000 143.000
50.43500 144.000
50.45000 118.000
50.46500 128.000
50.48000 132.000
50.49500 138.000
50.51000 135.000
50.52500 114.000
50.54000 128.000
50.55500 134.000
50.57000 124.000
50.58500 124.000
50.60000 130.000
50.61500 136.000
50.63000 132.000
50.64500 149.000
50.66000 127.000
50.67500 130.000
50.69000 129.000
50.70500 135.000
50.72000 145.000
50.73500 130.000
50.75000 134.000
50.76500 140.000
50.78000 128.000
50.79500 125.000
50.81000 121.000
50.82500 127.000
50.84000 145.000
50.85500 148.000
50.87000 127.000
50.88500 133.000
50.90000 133.000
50.91500 130.000
50.93000 153.000
50.94500 146.000
50.96000 136.000
50.97500 126.000
50.99000 134.000
51.00500 137.000
51.02000 151.000
51.03500 139.000
51.05000 126.000
51.06500 137.000
51.08000 151.000
51.09500 145.000
51.11000 142.000
51.12500 135.000
51.14000 144.000
51.15500 124.000
51.17000 137.000
51.18500 124.000
51.20000 128.000
51.21500 139.000
51.23000 121.000
51.24500 135.000
51.26000 126.000
51.27500 122.000
51.29000 113.000
51.30500 128.000
51.32000 138.000
51.33500 131.000
51.35000 135.000
51.36500 124.000
51.38000 130.000
51.39500 132.000
51.41000 137.000
51.42500 133.000
51.44000 128.000
51.45500 126.000
51.47000 129.000
51.48500 141.000
51.50000 140.000
51.51500 135.000
51.53000 121.000
51.54500 123.000
51.56000 138.000
51.57500 129.000
51.59000 145.000
51.60500 130.000
51.62000 149.000
51.63500 146.000
51.65000 130.000
51.66500 145.000
51.68000 139.000
51.69500 152.000
51.71000 132.000
51.72500 144.000
51.74000 140.000
51.75500 145.000
51.77000 136.000
51.78500 134.000
51.80000 140.000
51.81500 132.000
51.83000 128.000
51.84500 125.000
51.86000 133.000
51.87500 128.000
51.89000 137.000
51.90500 142.000
51.92000 134.000
51.93500 138.000
51.95000 135.000
51.96500 136.000
51.98000 135.000
51.99500 129.000
52.01000 141.000
52.02500 125.000
52.04000 131.000
52.05500 139.000
52.07000 122.000
52.08500 119.000
52.10000 121.000
52.11500 134.000
52.13000 134.000
52.14500 129.000
52.16000 132.000
52.17500 137.000
52.19000 126.000
52.20500 121.000
52.22000 143.000
52.23500 121.000
52.25000 133.000
52.26500 131.000
52.28000 127.000
52.29500 141.000
52.31000 134.000
52.32500 149.000
52.34000 118.000
52.35500 132.000
52.37000 146.000
52.38500 131.000
52.40000 124.000
52.41500 144.000
52.43000 139.000
52.44500 139.000
52.46000 124.000
52.47500 124.000
52.49000 128.000
52.50500 146.000
52.52000 129.000
52.53500 128.000
52.55000 123.000
52.56500 128.000
52.58000 147.000
52.59500 142.000
52.61000 137.000
52.62500 140.000
52.64000 135.000
52.65500 125.000
52.67000 120.000
52.68500 132.000
52.70000 119.000
52.71500 140.000
52.73000 139.000
52.74500 139.000
52.76000 127.000
52.77500 149.000
52.79000 132.000
52.80500 121.000
52.82000 124.000
52.83500 126.000
52.85000 127.000
52.86500 140.000
52.88000 141.000
52.89500 139.000
52.91000 138.000
52.92500 114.000
52.94000 140.000
52.95500 152.000
52.97000 132.000
52.98500 150.000
53.00000 131.000
53.01500 130.000
53.03000 140.000
53.04500 136.000
53.06000 126.000
53.07500 139.000
53.09000 122.000
53.10500 139.000
53.12000 145.000
53.13500 140.000
53.15000 137.000
53.16500 132.000
53.18000 130.000
53.19500 128.000
53.21000 124.000
53.22500 128.000
53.24000 135.000
53.25500 129.000
53.27000 125.000
53.28500 122.000
53.30000 122.000
53.31500 134.000
53.33000 116.000
53.34500 144.000
53.36000 136.000
53.37500 124.000
53.39000 126.000
53.40500 135.000
53.42000 125.000
53.43500 133.000
53.45000 131.000
53.46500 134.000
53.48000 132.000
53.49500 140.000
53.51000 138.000
53.52500 137.000
53.54000 138.000
53.55500 137.000
53.57000 126.000
53.58500 140.000
53.60000 146.000
53.61500 132.000
53.63000 146.000
53.64500 137.000
53.66000 121.000
53.67500 127.000
53.69000 125.000
53.70500 123.000
53.72000 115.000
53.73500 116.000
53.75000 126.000
53.76500 133.000
53.78000 148.000
53.79500 131.000
53.81000 126.000
53.82500 119.000
53.84000 132.000
53.85500 130.000
53.87000 137.000
53.88500 115.000
53.90000 126.000
53.91500 115.000
53.93000 139.000
53.94500 119.000
53.96000 108.000
53.97500 134.000
53.99000 128.000
54.00500 119.000
54.02000 127.000
54.03500 116.000
54.05000 133.000
54.06500 125.000
54.08000 129.000
54.09500 123.000
54.11000 118.000
54.12500 122.000
54.14000 127.000
54.15500 125.000
54.17000 134.000
54.18500 138.000
54.20000 128.000
54.21500 119.000
54.23000 116.000
54.24500 117.000
54.26000 141.000
54.27500 141.000
54.29000 131.000
54.30500 146.000
54.32000 126.000
54.33500 128.000
54.35000 125.000
54.36500 128.000
54.38000 131.000
54.39500 134.000
54.41000 128.000
54.42500 130.000
54.44000 122.000
54.45500 126.000
54.47000 122.000
54.48500 126.000
54.50000 122.000
54.51500 124.000
54.53000 112.000
54.54500 132.000
54.56000 123.000
54.57500 130.000
54.59000 149.000
54.60500 131.000
54.62000 120.000
54.63500 110.000
54.65000 122.000
54.66500 124.000
54.68000 130.000
54.69500 127.000
54.71000 115.000
54.72500 121.000
54.74000 117.000
54.75500 130.000
54.77000 141.000
54.78500 126.000
54.80000 148.000
54.81500 121.000
54.83000 115.000
54.84500 113.000
54.86000 124.000
54.87500 118.000
54.89000 122.000
54.90500 107.000
54.92000 114.000
54.93500 130.000
54.95000 126.000
54.96500 131.000
54.98000 129.000
54.99500 124.000
55.01000 117.000
55.02500 134.000
55.04000 125.000
55.05500 114.000
55.07000 111.000
55.08500 121.000
55.10000 126.000
55.11500 111.000
55.13000 119.000
55.14500 104.000
55.16000 114.000
55.17500 129.000
55.19000 133.000
55.20500 129.000
55.22000 127.000
55.23500 144.000
55.25000 113.000
55.26500 123.000
55.28000 115.000
55.29500 109.000
55.31000 112.000
55.32500 108.000
55.34000 115.000
55.35500 127.000
55.37000 117.000
55.38500 118.000
55.40000 131.000
55.41500 131.000
55.43000 135.000
55.44500 144.000
55.46000 126.000
55.47500 122.000
55.49000 124.000
55.50500 127.000
55.52000 119.000
55.53500 102.000
55.55000 121.000
55.56500 126.000
55.58000 129.000
55.59500 116.000
55.61000 112.000
55.62500 108.000
55.64000 121.000
55.65500 140.000
55.67000 138.000
55.68500 119.000
55.70000 104.000
55.71500 113.000
55.73000 111.000
55.74500 119.000
55.76000 119.000
55.77500 111.000
55.79000 127.000
55.80500 114.000
55.82000 113.000
55.83500 108.000
55.85000 105.000
55.86500 108.000
55.88000 124.000
55.89500 108.000
55.91000 105.000
55.92500 127.000
55.94000 115.000
55.95500 121.000
55.97000 103.000
55.98500 128.000
56.00000 116.000
56.01500 113.000
56.03000 129.000
56.04500 127.000
56.06000 119.000
56.07500 115.000
56.09000 104.000
56.10500 107.000
56.12000 110.000
56.13500 114.000
56.15000 110.000
56.16500 113.000
56.18000 118.000
56.19500 126.000
56.21000 132.000
56.22500 125.000
56.24000 109.000
56.25500 117.000
56.27000 113.000
56.28500 126.000
56.30000 120.000
56.31500 127.000
56.33000 124.000
56.34500 116.000
56.36000 115.000
56.37500 138.000
56.39000 113.000
56.40500 113.000
56.42000 113.000
56.43500 116.000
56.45000 128.000
56.46500 108.000
56.48000 124.000
56.49500 122.000
56.51000 122.000
56.52500 125.000
56.54000 112.000
56.55500 122.000
56.57000 131.000
56.58500 136.000
56.60000 110.000
56.61500 112.000
56.63000 117.000
56.64500 109.000
56.66000 125.000
56.67500 121.000
56.69000 109.000
56.70500 105.000
56.72000 134.000
56.73500 139.000
56.75000 128.000
56.76500 127.000
56.78000 127.000
56.79500 114.000
56.81000 123.000
56.82500 117.000
56.84000 109.000
56.85500 123.000
56.87000 125.000
56.88500 114.000
56.90000 110.000
56.91500 121.000
56.93000 124.000
56.94500 114.000
56.96000 136.000
56.97500 129.000
56.99000 124.000
57.00500 120.000
57.02000 117.000
57.03500 121.000
57.05000 139.000
57.06500 122.000
57.08000 123.000
57.09500 108.000
57.11000 134.000
57.12500 139.000
57.14000 133.000
57.15500 121.000
57.17000 127.000
57.18500 133.000
57.20000 135.000
57.21500 139.000
57.23000 120.000
57.24500 112.000
57.26000 114.000
57.27500 136.000
57.29000 129.000
57.30500 119.000
57.32000 116.000
57.33500 129.000
57.35000 126.000
57.36500 117.000
57.38000 134.000
57.39500 129.000
57.41000 136.000
57.42500 114.000
57.44000 118.000
57.45500 136.000
57.47000 135.000
57.48500 117.000
57.50000 116.000
57.51500 117.000
57.53000 134.000
57.54500 139.000
57.56000 141.000
57.57500 146.000
57.59000 146.000
57.60500 138.000
57.62000 123.000
57.63500 143.000
57.65000 119.000
57.66500 119.000
57.68000 124.000
57.69500 127.000
57.71000 122.000
57.72500 133.000
57.74000 148.000
57.75500 143.000
57.77000 131.000
57.78500 125.000
57.80000 142.000
57.81500 152.000
57.83000 123.000
57.84500 137.000
57.86000 148.000
57.87500 118.000
57.89000 138.000
57.90500 139.000
57.92000 122.000
57.93500 131.000
57.95000 142.000
57.96500 119.000
57.98000 122.000
57.99500 123.000
58.01000 121.000
58.02500 139.000
58.04000 126.000
58.05500 128.000
58.07000 145.000
58.08500 137.000
58.10000 132.000
58.11500 146.000
58.13000 133.000
58.14500 134.000
58.16000 117.000
58.17500 134.000
58.19000 133.000
58.20500 137.000
58.22000 139.000
58.23500 124.000
58.25000 126.000
58.26500 135.000
58.28000 131.000
58.29500 125.000
58.31000 128.000
58.32500 135.000
58.34000 129.000
58.35500 141.000
58.37000 139.000
58.38500 122.000
58.40000 137.000
58.41500 114.000
58.43000 115.000
58.44500 104.000
58.46000 143.000
58.47500 134.000
58.49000 117.000
58.50500 124.000
58.52000 130.000
58.53500 124.000
58.55000 125.000
58.56500 134.000
58.58000 138.000
58.59500 132.000
58.61000 112.000
58.62500 122.000
58.64000 125.000
58.65500 133.000
58.67000 136.000
58.68500 133.000
58.70000 145.000
58.71500 124.000
58.73000 133.000
58.74500 128.000
58.76000 113.000
58.77500 125.000
58.79000 130.000
58.80500 126.000
58.82000 125.000
58.83500 121.000
58.85000 111.000
58.86500 134.000
58.88000 128.000
58.89500 118.000
58.91000 111.000
58.92500 129.000
58.94000 129.000
58.95500 129.000
58.97000 124.000
58.98500 102.000
59.00000 117.000
59.01500 123.000
59.03000 124.000
59.04500 111.000
59.06000 126.000
59.07500 124.000
59.09000 120.000
59.10500 120.000
59.12000 114.000
59.13500 121.000
59.15000 144.000
59.16500 125.000
59.18000 120.000
59.19500 122.000
59.21000 125.000
59.22500 119.000
59.24000 102.000
59.25500 112.000
59.27000 119.000
59.28500 111.000
59.30000 116.000
59.31500 117.000
59.33000 112.000
59.34500 104.000
59.36000 105.000
59.37500 112.000
59.39000 119.000
59.40500 116.000
59.42000 122.000
59.43500 111.000
59.45000 111.000
59.46500 114.000
59.48000 121.000
59.49500 106.000
59.51000 118.000
59.52500 124.000
59.54000 126.000
59.55500 114.000
59.57000 122.000
59.58500 108.000
59.60000 129.000
59.61500 133.000
59.63000 126.000
59.64500 115.000
59.66000 114.000
59.67500 119.000
59.69000 109.000
59.70500 122.000
59.72000 115.000
59.73500 99.000
59.75000 105.000
59.76500 99.000
59.78000 121.000
59.79500 110.000
59.81000 104.000
59.82500 112.000
59.84000 115.000
59.85500 115.000
59.87000 107.000
59.88500 96.000
59.90000 121.000
59.91500 119.000
59.93000 117.000
59.94500 115.000
59.96000 114.000
59.97500 128.000
59.99000 110.000
60.00500 111.000
60.02000 120.000
60.03500 115.000
60.05000 115.000
60.06500 105.000
60.08000 114.000
60.09500 110.000
60.11000 104.000
60.12500 121.000
60.14000 112.000
60.15500 105.000
60.17000 95.000
60.18500 102.000
60.20000 102.000
60.21500 111.000
60.23000 105.000
60.24500 103.000
60.26000 109.000
60.27500 99.000
60.29000 103.000
60.30500 108.000
60.32000 119.000
60.33500 128.000
60.35000 117.000
60.36500 114.000
60.38000 112.000
60.39500 139.000
60.41000 129.000
60.42500 117.000
60.44000 116.000
60.45500 133.000
60.47000 115.000
60.48500 115.000
60.50000 122.000
60.51500 98.000
60.53000 114.000
60.54500 121.000
60.56000 97.000
60.57500 103.000
60.59000 108.000
60.60500 103.000
60.62000 104.000
60.63500 116.000
60.65000 108.000
60.66500 102.000
60.68000 113.000
60.69500 110.000
60.71000 112.000
60.72500 95.000
60.74000 116.000
60.75500 126.000
60.77000 110.000
60.78500 94.000
60.80000 112.000
60.81500 109.000
60.83000 112.000
60.84500 111.000
60.86000 118.000
60.87500 108.000
60.89000 105.000
60.90500 104.000
60.92000 112.000
60.93500 110.000
60.95000 101.000
60.96500 106.000
60.98000 110.000
60.99500 106.000
61.01000 122.000
61.02500 118.000
61.04000 103.000
61.05500 98.000
61.07000 122.000
61.08500 109.000
61.10000 120.000
61.11500 110.000
61.13000 98.000
61.14500 100.000
61.16000 114.000
61.17500 112.000
61.19000 107.000
61.20500 109.000
61.22000 107.000
61.23500 105.000
61.25000 112.000
61.26500 107.000
61.28000 104.000
61.29500 118.000
61.31000 108.000
61.32500 106.000
61.34000 97.000
61.35500 106.000
61.37000 105.000
61.38500 97.000
61.40000 107.000
61.41500 97.000
61.43000 105.000
61.44500 110.000
61.46000 107.000
61.47500 116.000
61.49000 103.000
61.50500 124.000
61.52000 107.000
61.53500 102.000
61.55000 88.000
61.56500 92.000
61.58000 122.000
61.59500 116.000
61.61000 105.000
61.62500 110.000
61.64000 108.000
61.65500 103.000
61.67000 111.000
61.68500 95.000
61.70000 99.000
61.71500 102.000
61.73000 95.000
61.74500 88.000
61.76000 94.000
61.77500 100.000
61.79000 106.000
61.80500 117.000
61.82000 107.000
61.83500 90.000
61.85000 115.000
61.86500 107.000
61.88000 105.000
61.89500 107.000
61.91000 107.000
61.92500 97.000
61.94000 106.000
61.95500 88.000
61.97000 85.000
61.98500 102.000
