2.00000 2.000
2.01500 1.000
2.03000 2.000
2.04500 2.000
2.06000 1.000
2.07500 1.000
2.09000 3.000
2.10500 3.000
2.12000 2.000
2.13500 3.000
2.15000 2.000
2.16500 1.000
2.18000 1.000
2.19500 1.000
2.21000 3.000
2.22500 5.000
2.24000 2.000
2.25500 3.000
2.27000 2.000
2.28500 4.000
2.30000 2.000
2.31500 1.000
2.33000 1.000
2.34500 3.000
2.36000 0.000
2.37500 0.000
2.39000 3.000
2.40500 3.000
2.42000 4.000
2.43500 3.000
2.45000 2.000
2.46500 0.000
2.48000 3.000
2.49500 3.000
2.51000 2.000
2.52500 4.000
2.54000 3.000
2.55500 1.000
2.57000 5.000
2.58500 5.000
2.60000 3.000
2.61500 2.000
2.63000 2.000
2.64500 3.000
2.66000 4.000
2.67500 3.000
2.69000 3.000
2.70500 4.000
2.72000 3.000
2.73500 2.000
2.75000 1.000
2.76500 3.000
2.78000 4.000
2.79500 4.000
2.81000 2.000
2.82500 1.000
2.84000 0.000
2.85500 2.000
2.87000 3.000
2.88500 5.000
2.90000 8.000
2.91500 8.000
2.93000 5.000
2.94500 8.000
2.96000 9.000
2.97500 17.000
2.99000 27.000
3.00500 47.000
3.02000 81.000
3.03500 110.000
3.05000 157.000
3.06500 197.000
3.08000 235.000
3.09500 310.000
3.11000 321.000
3.12500 348.000
3.14000 361.000
3.15500 350.000
3.17000 355.000
3.18500 345.000
3.20000 326.000
3.21500 332.000
3.23000 333.000
3.24500 315.000
3.26000 336.000
3.27500 341.000
3.29000 352.000
3.30500 354.000
3.32000 334.000
3.33500 332.000
3.35000 300.000
3.36500 326.000
3.38000 300.000
3.39500 327.000
3.41000 326.000
3.42500 313.000
3.44000 325.000
3.45500 303.000
3.47000 300.000
3.48500 310.000
3.50000 308.000
3.51500 321.000
3.53000 298.000
3.54500 302.000
3.56000 302.000
3.57500 263.000
3.59000 302.000
3.60500 285.000
3.62000 272.000
3.63500 285.000
3.65000 289.000
3.66500 313.000
3.68000 303.000
3.69500 270.000
3.71000 282.000
3.72500 271.000
3.74000 265.000
3.75500 272.000
3.77000 288.000
3.78500 293.000
3.80000 302.000
3.81500 286.000
3.83000 287.000
3.84500 278.000
3.86000 297.000
3.87500 272.000
3.89000 261.000
3.90500 298.000
3.92000 262.000
3.93500 274.000
3.95000 256.000
3.96500 255.000
3.98000 270.000
3.99500 272.000
4.01000 280.000
4.02500 239.000
4.04000 264.000
4.05500 283.000
4.07000 266.000
4.08500 269.000
4.10000 263.000
4.11500 261.000
4.13000 268.000
4.14500 257.000
4.16000 248.000
4.17500 245.000
4.19000 260.000
4.20500 255.000
4.22000 280.000
4.23500 234.000
4.25000 250.000
4.26500 240.000
4.28000 260.000
4.29500 272.000
4.31000 262.000
4.32500 269.000
4.34000 273.000
4.35500 268.000
4.37000 267.000
4.38500 259.000
4.40000 269.000
4.41500 290.000
4.43000 282.000
4.44500 258.000
4.46000 267.000
4.47500 255.000
4.49000 247.000
4.50500 246.000
4.52000 232.000
4.53500 248.000
4.55000 249.000
4.56500 276.000
4.58000 238.000
4.59500 272.000
4.61000 292.000
4.62500 263.000
4.64000 236.000
4.65500 265.000
4.67000 264.000
4.68500 264.000
4.70000 264.000
4.71500 258.000
4.73000 265.000
4.74500 257.000
4.76000 238.000
4.77500 243.000
4.79000 251.000
4.80500 264.000
4.82000 254.000
4.83500 258.000
4.85000 255.000
4.86500 234.000
4.88000 228.000
4.89500 231.000
4.91000 241.000
4.92500 253.000
4.94000 251.000
4.95500 255.000
4.97000 259.000
4.98500 241.000
5.00000 231.000
5.01500 245.000
5.03000 231.000
5.04500 261.000
5.06000 259.000
5.07500 266.000
5.09000 243.000
5.10500 251.000
5.12000 268.000
5.13500 234.000
5.15000 241.000
5.16500 252.000
5.18000 268.000
5.19500 261.000
5.21000 255.000
5.22500 262.000
5.24000 232.000
5.25500 205.000
5.27000 222.000
5.28500 262.000
5.30000 240.000
5.31500 246.000
5.33000 247.000
5.34500 226.000
5.36000 229.000
5.37500 240.000
5.39000 252.000
5.40500 241.000
5.42000 251.000
5.43500 236.000
5.45000 230.000
5.46500 230.000
5.48000 226.000
5.49500 250.000
5.51000 245.000
5.52500 230.000
5.54000 247.000
5.55500 238.000
5.57000 236.000
5.58500 246.000
5.60000 258.000
5.61500 258.000
5.63000 244.000
5.64500 245.000
5.66000 245.000
5.67500 239.000
5.69000 227.000
5.70500 221.000
5.72000 242.000
5.73500 245.000
5.75000 254.000
5.76500 259.000
5.78000 278.000
5.79500 261.000
5.81000 253.000
5.82500 258.000
5.84000 262.000
5.85500 242.000
5.87000 250.000
5.88500 240.000
5.90000 240.000
5.91500 238.000
5.93000 263.000
5.94500 237.000
5.96000 264.000
5.97500 250.000
5.99000 243.000
6.00500 265.000
6.02000 229.000
6.03500 243.000
6.05000 259.000
6.06500 256.000
6.08000 273.000
6.09500 240.000
6.11000 258.000
6.12500 235.000
6.14000 248.000
6.15500 256.000
6.17000 255.000
6.18500 264.000
6.20000 236.000
6.21500 251.000
6.23000 235.000
6.24500 214.000
6.26000 260.000
6.27500 253.000
6.29000 251.000
6.30500 262.000
6.32000 250.000
6.33500 237.000
6.35000 244.000
6.36500 245.000
6.38000 263.000
6.39500 255.000
6.41000 249.000
6.42500 247.000
6.44000 244.000
6.45500 251.000
6.47000 241.000
6.48500 245.000
6.50000 241.000
6.51500 254.000
6.53000 259.000
6.54500 260.000
6.56000 246.000
6.57500 245.000
6.59000 253.000
6.60500 235.000
6.62000 269.000
6.63500 256.000
6.65000 267.000
6.66500 254.000
6.68000 244.000
6.69500 270.000
6.71000 264.000
6.72500 270.000
6.74000 249.000
6.75500 277.000
6.77000 244.000
6.78500 254.000
6.80000 267.000
6.81500 226.000
6.83000 247.000
6.84500 261.000
6.86000 256.000
6.87500 251.000
6.89000 254.000
6.90500 259.000
6.92000 260.000
6.93500 273.000
6.95000 266.000
6.96500 235.000
6.98000 256.000
6.99500 291.000
7.01000 260.000
7.02500 257.000
7.04000 247.000
7.05500 239.000
7.07000 249.000
7.08500 249.000
7.10000 266.000
7.11500 260.000
7.13000 248.000
7.14500 247.000
7.16000 256.000
7.17500 253.000
7.19000 260.000
7.20500 230.000
7.22000 253.000
7.23500 269.000
7.25000 264.000
7.26500 245.000
7.28000 265.000
7.29500 258.000
7.31000 253.000
7.32500 238.000
7.34000 255.000
7.35500 263.000
7.37000 253.000
7.38500 274.000
7.40000 293.000
7.41500 282.000
7.43000 265.000
7.44500 265.000
7.46000 263.000
7.47500 248.000
7.49000 272.000
7.50500 276.000
7.52000 239.000
7.53500 245.000
7.55000 260.000
7.56500 270.000
7.58000 264.000
7.59500 272.000
7.61000 265.000
7.62500 257.000
7.64000 266.000
7.65500 274.000
7.67000 259.000
7.68500 243.000
7.70000 239.000
7.71500 269.000
7.73000 296.000
7.74500 277.000
7.76000 259.000
7.77500 231.000
7.79000 235.000
7.80500 256.000
7.82000 230.000
7.83500 282.000
7.85000 260.000
7.86500 250.000
7.88000 248.000
7.89500 250.000
7.91000 263.000
7.92500 274.000
7.94000 256.000
7.95500 267.000
7.97000 282.000
7.98500 274.000
8.00000 265.000
8.01500 259.000
8.03000 257.000
8.04500 250.000
8.06000 265.000
8.07500 241.000
8.09000 251.000
8.10500 254.000
8.12000 248.000
8.13500 257.000
8.15000 261.000
8.16500 281.000
8.18000 278.000
8.19500 250.000
8.21000 268.000
8.22500 296.000
8.24000 271.000
8.25500 245.000
8.27000 257.000
8.28500 269.000
8.30000 266.000
8.31500 265.000
8.33000 260.000
8.34500 271.000
8.36000 264.000
8.37500 266.000
8.39000 284.000
8.40500 274.000
8.42000 271.000
8.43500 264.000
8.45000 254.000
8.46500 265.000
8.48000 265.000
8.49500 294.000
8.51000 282.000
8.52500 268.000
8.54000 274.000
8.55500 256.000
8.57000 258.000
8.58500 248.000
8.60000 268.000
8.61500 251.000
8.63000 275.000
8.64500 280.000
8.66000 249.000
8.67500 259.000
8.69000 258.000
8.70500 259.000
8.72000 271.000
8.73500 252.000
8.75000 275.000
8.76500 283.000
8.78000 281.000
8.79500 263.000
8.81000 269.000
8.82500 287.000
8.84000 262.000
8.85500 260.000
8.87000 264.000
8.88500 277.000
8.90000 280.000
8.91500 285.000
8.93000 285.000
8.94500 276.000
8.96000 283.000
8.97500 283.000
8.99000 275.000
9.00500 285.000
9.02000 268.000
9.03500 280.000
9.05000 270.000
9.06500 277.000
9.08000 271.000
9.09500 281.000
9.11000 272.000
9.12500 261.000
9.14000 245.000
9.15500 268.000
9.17000 271.000
9.18500 258.000
9.20000 244.000
9.21500 265.000
9.23000 291.000
9.24500 275.000
9.26000 271.000
9.27500 280.000
9.29000 268.000
9.30500 274.000
9.32000 288.000
9.33500 273.000
9.35000 263.000
9.36500 290.000
9.38000 313.000
9.39500 285.000
9.41000 277.000
9.42500 295.000
9.44000 280.000
9.45500 261.000
9.47000 269.000
9.48500 263.000
9.50000 286.000
9.51500 261.000
9.53000 262.000
9.54500 272.000
9.56000 287.000
9.57500 284.000
9.59000 293.000
9.60500 291.000
9.62000 269.000
9.63500 296.000
9.65000 305.000
9.66500 286.000
9.68000 303.000
9.69500 290.000
9.71000 271.000
9.72500 256.000
9.74000 278.000
9.75500 292.000
9.77000 282.000
9.78500 276.000
9.80000 271.000
9.81500 308.000
9.83000 296.000
9.84500 289.000
9.86000 273.000
9.87500 281.000
9.89000 299.000
9.90500 298.000
9.92000 276.000
9.93500 295.000
9.95000 297.000
9.96500 289.000
9.98000 320.000
9.99500 297.000
10.01000 273.000
10.02500 297.000
10.04000 278.000
10.05500 276.000
10.07000 295.000
10.08500 312.000
10.10000 302.000
10.11500 321.000
10.13000 321.000
10.14500 297.000
10.16000 318.000
10.17500 279.000
10.19000 296.000
10.20500 296.000
10.22000 300.000
10.23500 280.000
10.25000 292.000
10.26500 331.000
10.28000 299.000
10.29500 291.000
10.31000 306.000
10.32500 318.000
10.34000 294.000
10.35500 279.000
10.37000 285.000
10.38500 311.000
10.40000 313.000
10.41500 290.000
10.43000 300.000
10.44500 303.000
10.46000 309.000
10.47500 313.000
10.49000 320.000
10.50500 301.000
10.52000 296.000
10.53500 294.000
10.55000 285.000
10.56500 278.000
10.58000 293.000
10.59500 300.000
10.61000 319.000
10.62500 280.000
10.64000 302.000
10.65500 293.000
10.67000 285.000
10.68500 289.000
10.70000 299.000
10.71500 311.000
10.73000 315.000
10.74500 293.000
10.76000 306.000
10.77500 292.000
10.79000 321.000
10.80500 322.000
10.82000 322.000
10.83500 310.000
10.85000 292.000
10.86500 286.000
10.88000 318.000
10.89500 338.000
10.91000 323.000
10.92500 318.000
10.94000 294.000
10.95500 305.000
10.97000 315.000
10.98500 318.000
11.00000 292.000
11.01500 319.000
11.03000 316.000
11.04500 308.000
11.06000 322.000
11.07500 295.000
11.09000 307.000
11.10500 331.000
11.12000 309.000
11.13500 323.000
11.15000 310.000
11.16500 293.000
11.18000 293.000
11.19500 312.000
11.21000 317.000
11.22500 337.000
11.24000 315.000
11.25500 318.000
11.27000 316.000
11.28500 313.000
11.30000 323.000
11.31500 341.000
11.33000 342.000
11.34500 324.000
11.36000 317.000
11.37500 318.000
11.39000 322.000
11.40500 331.000
11.42000 345.000
11.43500 355.000
11.45000 315.000
11.46500 315.000
11.48000 318.000
11.49500 324.000
11.51000 356.000
11.52500 327.000
11.54000 335.000
11.55500 345.000
11.57000 336.000
11.58500 332.000
11.60000 329.000
11.61500 314.000
11.63000 346.000
11.64500 344.000
11.66000 326.000
11.67500 344.000
11.69000 344.000
11.70500 352.000
11.72000 329.000
11.73500 332.000
11.75000 318.000
11.76500 327.000
11.78000 322.000
11.79500 348.000
11.81000 347.000
11.82500 351.000
11.84000 351.000
11.85500 373.000
11.87000 362.000
11.88500 359.000
11.90000 363.000
11.91500 362.000
11.93000 342.000
11.94500 380.000
11.96000 378.000
11.97500 354.000
11.99000 371.000
12.00500 364.000
12.02000 346.000
12.03500 345.000
12.05000 334.000
12.06500 375.000
12.08000 401.000
12.09500 356.000
12.11000 346.000
12.12500 367.000
12.14000 354.000
12.15500 378.000
12.17000 375.000
12.18500 354.000
12.20000 343.000
12.21500 382.000
12.23000 394.000
12.24500 389.000
12.26000 405.000
12.27500 394.000
12.29000 404.000
12.30500 393.000
12.32000 376.000
12.33500 371.000
12.35000 365.000
12.36500 394.000
12.38000 396.000
12.39500 389.000
12.41000 410.000
12.42500 439.000
12.44000 413.000
12.45500 427.000
12.47000 404.000
12.48500 441.000
12.50000 461.000
12.51500 470.000
12.53000 487.000
12.54500 473.000
12.56000 484.000
12.57500 461.000
12.59000 479.000
12.60500 475.000
12.62000 479.000
12.63500 493.000
12.65000 526.000
12.66500 534.000
12.68000 532.000
12.69500 496.000
12.71000 505.000
12.72500 519.000
12.74000 515.000
12.75500 528.000
12.77000 538.000
12.78500 552.000
12.80000 532.000
12.81500 514.000
12.83000 517.000
12.84500 551.000
12.86000 535.000
12.87500 525.000
12.89000 541.000
12.90500 519.000
12.92000 562.000
12.93500 505.000
12.95000 489.000
12.96500 537.000
12.98000 538.000
12.99500 525.000
13.01000 530.000
13.02500 537.000
13.04000 557.000
13.05500 562.000
13.07000 548.000
13.08500 547.000
13.10000 536.000
13.11500 562.000
13.13000 555.000
13.14500 529.000
13.16000 499.000
13.17500 525.000
13.19000 546.000
13.20500 550.000
13.22000 553.000
13.23500 585.000
13.25000 555.000
13.26500 524.000
13.28000 542.000
13.29500 567.000
13.31000 528.000
13.32500 555.000
13.34000 541.000
13.35500 543.000
13.37000 523.000
13.38500 547.000
13.40000 535.000
13.41500 542.000
13.43000 558.000
13.44500 543.000
13.46000 554.000
13.47500 547.000
13.49000 537.000
13.50500 498.000
13.52000 490.000
13.53500 504.000
13.55000 478.000
13.56500 491.000
13.58000 483.000
13.59500 506.000
13.61000 497.000
13.62500 494.000
13.64000 469.000
13.65500 478.000
13.67000 487.000
13.68500 522.000
13.70000 483.000
13.71500 498.000
13.73000 502.000
13.74500 495.000
13.76000 466.000
13.77500 488.000
13.79000 476.000
13.80500 470.000
13.82000 481.000
13.83500 496.000
13.85000 464.000
13.86500 425.000
13.88000 446.000
13.89500 463.000
13.91000 476.000
13.92500 473.000
13.94000 459.000
13.95500 473.000
13.97000 473.000
13.98500 475.000
14.00000 464.000
14.01500 469.000
14.03000 453.000
14.04500 478.000
14.06000 458.000
14.07500 462.000
14.09000 463.000
14.10500 487.000
14.12000 479.000
14.13500 467.000
14.15000 449.000
14.16500 444.000
14.18000 441.000
14.19500 450.000
14.21000 441.000
14.22500 460.000
14.24000 460.000
14.25500 435.000
14.27000 437.000
14.28500 414.000
14.30000 447.000
14.31500 474.000
14.33000 447.000
14.34500 432.000
14.36000 416.000
14.37500 397.000
14.39000 436.000
14.40500 435.000
14.42000 434.000
14.43500 413.000
14.45000 418.000
14.46500 461.000
14.48000 442.000
14.49500 451.000
14.51000 414.000
14.52500 413.000
14.54000 468.000
14.55500 435.000
14.57000 419.000
14.58500 400.000
14.60000 425.000
14.61500 423.000
14.63000 431.000
14.64500 434.000
14.66000 429.000
14.67500 463.000
14.69000 421.000
14.70500 436.000
14.72000 406.000
14.73500 424.000
14.75000 436.000
14.76500 442.000
14.78000 411.000
14.79500 420.000
14.81000 423.000
14.82500 443.000
14.84000 418.000
14.85500 430.000
14.87000 430.000
14.88500 412.000
14.90000 425.000
14.91500 447.000
14.93000 417.000
14.94500 415.000
14.96000 414.000
14.97500 442.000
14.99000 439.000
15.00500 420.000
15.02000 408.000
15.03500 414.000
15.05000 407.000
15.06500 399.000
15.08000 377.000
15.09500 424.000
15.11000 423.000
15.12500 429.000
15.14000 412.000
15.15500 407.000
15.17000 393.000
15.18500 420.000
15.20000 424.000
15.21500 429.000
15.23000 437.000
15.24500 398.000
15.26000 380.000
15.27500 405.000
15.29000 399.000
15.30500 411.000
15.32000 440.000
15.33500 409.000
15.35000 400.000
15.36500 398.000
15.38000 407.000
15.39500 386.000
15.41000 391.000
15.42500 398.000
15.44000 419.000
15.45500 397.000
15.47000 391.000
15.48500 436.000
15.50000 408.000
15.51500 368.000
15.53000 415.000
15.54500 411.000
15.56000 382.000
15.57500 356.000
15.59000 423.000
15.60500 381.000
15.62000 388.000
15.63500 408.000
15.65000 412.000
15.66500 416.000
15.68000 422.000
15.69500 411.000
15.71000 439.000
15.72500 414.000
15.74000 420.000
15.75500 400.000
15.77000 381.000
15.78500 401.000
15.80000 407.000
15.81500 394.000
15.83000 388.000
15.84500 407.000
15.86000 387.000
15.87500 369.000
15.89000 384.000
15.90500 387.000
15.92000 380.000
15.93500 405.000
15.95000 407.000
15.96500 424.000
15.98000 414.000
15.99500 437.000
16.01000 427.000
16.02500 425.000
16.04000 424.000
16.05500 418.000
16.07000 396.000
16.08500 399.000
16.10000 388.000
16.11500 412.000
16.13000 421.000
16.14500 416.000
16.16000 421.000
16.17500 421.000
16.19000 416.000
16.20500 381.000
16.22000 402.000
16.23500 400.000
16.25000 419.000
16.26500 422.000
16.28000 391.000
16.29500 386.000
16.31000 392.000
16.32500 403.000
16.34000 416.000
16.35500 394.000
16.37000 378.000
16.38500 376.000
16.40000 404.000
16.41500 404.000
16.43000 395.000
16.44500 369.000
16.46000 417.000
16.47500 383.000
16.49000 401.000
16.50500 406.000
16.52000 417.000
16.53500 435.000
16.55000 420.000
16.56500 383.000
16.58000 399.000
16.59500 418.000
16.61000 443.000
16.62500 416.000
16.64000 411.000
16.65500 426.000
16.67000 393.000
16.68500 415.000
16.70000 386.000
16.71500 395.000
16.73000 406.000
16.74500 381.000
16.76000 405.000
16.77500 383.000
16.79000 386.000
16.80500 408.000
16.82000 416.000
16.83500 421.000
16.85000 416.000
16.86500 401.000
16.88000 414.000
16.89500 398.000
16.91000 397.000
16.92500 422.000
16.94000 385.000
16.95500 409.000
16.97000 410.000
16.98500 420.000
17.00000 424.000
17.01500 400.000
17.03000 403.000
17.04500 413.000
17.06000 408.000
17.07500 372.000
17.09000 379.000
17.10500 396.000
17.12000 386.000
17.13500 399.000
17.15000 395.000
17.16500 390.000
17.18000 466.000
17.19500 419.000
17.21000 394.000
17.22500 417.000
17.24000 421.000
17.25500 374.000
17.27000 411.000
17.28500 411.000
17.30000 405.000
17.31500 399.000
17.33000 390.000
17.34500 417.000
17.36000 425.000
17.37500 421.000
17.39000 411.000
17.40500 421.000
17.42000 399.000
17.43500 426.000
17.45000 421.000
17.46500 398.000
17.48000 390.000
17.49500 429.000
17.51000 416.000
17.52500 420.000
17.54000 421.000
17.55500 442.000
17.57000 429.000
17.58500 415.000
17.60000 440.000
17.61500 447.000
17.63000 442.000
17.64500 441.000
17.66000 460.000
17.67500 435.000
17.69000 437.000
17.70500 427.000
17.72000 393.000
17.73500 376.000
17.75000 416.000
17.76500 423.000
17.78000 414.000
17.79500 426.000
17.81000 401.000
17.82500 402.000
17.84000 442.000
17.85500 425.000
17.87000 418.000
17.88500 438.000
17.90000 441.000
17.91500 443.000
17.93000 436.000
17.94500 430.000
17.96000 436.000
17.97500 463.000
17.99000 438.000
18.00500 422.000
18.02000 453.000
18.03500 416.000
18.05000 417.000
18.06500 404.000
18.08000 452.000
18.09500 457.000
18.11000 421.000
18.12500 450.000
18.14000 415.000
18.15500 433.000
18.17000 441.000
18.18500 405.000
18.20000 389.000
18.21500 432.000
18.23000 482.000
18.24500 427.000
18.26000 429.000
18.27500 431.000
18.29000 444.000
18.30500 442.000
18.32000 435.000
18.33500 442.000
18.35000 420.000
18.36500 411.000
18.38000 437.000
18.39500 398.000
18.41000 428.000
18.42500 447.000
18.44000 402.000
18.45500 432.000
18.47000 422.000
18.48500 404.000
18.50000 427.000
18.51500 426.000
18.53000 426.000
18.54500 430.000
18.56000 444.000
18.57500 423.000
18.59000 433.000
18.60500 428.000
18.62000 421.000
18.63500 423.000
18.65000 409.000
18.66500 406.000
18.68000 413.000
18.69500 417.000
18.71000 424.000
18.72500 444.000
18.74000 453.000
18.75500 425.000
18.77000 400.000
18.78500 403.000
18.80000 399.000
18.81500 408.000
18.83000 416.000
18.84500 418.000
18.86000 436.000
18.87500 391.000
18.89000 408.000
18.90500 439.000
18.92000 425.000
18.93500 437.000
18.95000 447.000
18.96500 435.000
18.98000 426.000
18.99500 425.000
19.01000 428.000
19.02500 406.000
19.04000 405.000
19.05500 420.000
19.07000 404.000
19.08500 436.000
19.10000 422.000
19.11500 398.000
19.13000 418.000
19.14500 391.000
19.16000 409.000
19.17500 439.000
19.19000 406.000
19.20500 420.000
19.22000 399.000
19.23500 415.000
19.25000 396.000
19.26500 398.000
19.28000 406.000
19.29500 401.000
19.31000 391.000
19.32500 387.000
19.34000 452.000
19.35500 427.000
19.37000 413.000
19.38500 436.000
19.40000 442.000
19.41500 400.000
19.43000 440.000
19.44500 423.000
19.46000 426.000
19.47500 410.000
19.49000 413.000
19.50500 404.000
19.52000 400.000
19.53500 429.000
19.55000 405.000
19.56500 429.000
19.58000 416.000
19.59500 391.000
19.61000 395.000
19.62500 384.000
19.64000 392.000
19.65500 379.000
19.67000 361.000
19.68500 400.000
19.70000 426.000
19.71500 427.000
19.73000 418.000
19.74500 416.000
19.76000 445.000
19.77500 412.000
19.79000 426.000
19.80500 433.000
19.82000 420.000
19.83500 414.000
19.85000 412.000
19.86500 407.000
19.88000 405.000
19.89500 418.000
19.91000 404.000
19.92500 395.000
19.94000 412.000
19.95500 418.000
19.97000 388.000
19.98500 411.000
20.00000 430.000
20.01500 428.000
20.03000 411.000
20.04500 416.000
20.06000 405.000
20.07500 401.000
20.09000 398.000
20.10500 388.000
20.12000 410.000
20.13500 431.000
20.15000 397.000
20.16500 412.000
20.18000 417.000
20.19500 418.000
20.21000 404.000
20.22500 406.000
20.24000 392.000
20.25500 388.000
20.27000 415.000
20.28500 387.000
20.30000 426.000
20.31500 441.000
20.33000 450.000
20.34500 416.000
20.36000 414.000
20.37500 409.000
20.39000 405.000
20.40500 420.000
20.42000 408.000
20.43500 446.000
20.45000 432.000
20.46500 411.000
20.48000 420.000
20.49500 414.000
20.51000 432.000
20.52500 426.000
20.54000 413.000
20.55500 401.000
20.57000 406.000
20.58500 364.000
20.60000 421.000
20.61500 386.000
20.63000 419.000
20.64500 389.000
20.66000 398.000
20.67500 412.000
20.69000 428.000
20.70500 410.000
20.72000 408.000
20.73500 421.000
20.75000 423.000
20.76500 388.000
20.78000 411.000
20.79500 440.000
20.81000 405.000
20.82500 420.000
20.84000 420.000
20.85500 430.000
20.87000 421.000
20.88500 417.000
20.90000 386.000
20.91500 423.000
20.93000 440.000
20.94500 393.000
20.96000 384.000
20.97500 379.000
20.99000 420.000
21.00500 418.000
21.02000 410.000
21.03500 439.000
21.05000 410.000
21.06500 412.000
21.08000 419.000
21.09500 406.000
21.11000 419.000
21.12500 417.000
21.14000 427.000
21.15500 417.000
21.17000 417.000
21.18500 405.000
21.20000 417.000
21.21500 423.000
21.23000 423.000
21.24500 397.000
21.26000 421.000
21.27500 405.000
21.29000 429.000
21.30500 397.000
21.32000 407.000
21.33500 398.000
21.35000 414.000
21.36500 439.000
21.38000 432.000
21.39500 423.000
21.41000 398.000
21.42500 424.000
21.44000 403.000
21.45500 421.000
21.47000 422.000
21.48500 417.000
21.50000 420.000
21.51500 448.000
21.53000 437.000
21.54500 420.000
21.56000 384.000
21.57500 389.000
21.59000 422.000
21.60500 428.000
21.62000 443.000
21.63500 397.000
21.65000 437.000
21.66500 430.000
21.68000 430.000
21.69500 404.000
21.71000 426.000
21.72500 431.000
21.74000 403.000
21.75500 416.000
21.77000 446.000
21.78500 460.000
21.80000 432.000
21.81500 440.000
21.83000 446.000
21.84500 427.000
21.86000 430.000
21.87500 402.000
21.89000 406.000
21.90500 403.000
21.92000 403.000
21.93500 406.000
21.95000 422.000
21.96500 418.000
21.98000 414.000
21.99500 430.000
22.01000 459.000
22.02500 431.000
22.04000 417.000
22.05500 434.000
22.07000 415.000
22.08500 419.000
22.10000 426.000
22.11500 418.000
22.13000 411.000
22.14500 434.000
22.16000 434.000
22.17500 425.000
22.19000 416.000
22.20500 401.000
22.22000 434.000
22.23500 429.000
22.25000 396.000
22.26500 412.000
22.28000 398.000
22.29500 425.000
22.31000 399.000
22.32500 435.000
22.34000 425.000
22.35500 414.000
22.37000 408.000
22.38500 423.000
22.40000 418.000
22.41500 404.000
22.43000 444.000
22.44500 408.000
22.46000 395.000
22.47500 420.000
22.49000 439.000
22.50500 444.000
22.52000 428.000
22.53500 432.000
22.55000 413.000
22.56500 428.000
22.58000 445.000
22.59500 440.000
22.61000 407.000
22.62500 425.000
22.64000 419.000
22.65500 417.000
22.67000 427.000
22.68500 424.000
22.70000 433.000
22.71500 415.000
22.73000 422.000
22.74500 423.000
22.76000 441.000
22.77500 431.000
22.79000 415.000
22.80500 431.000
22.82000 422.000
22.83500 429.000
22.85000 407.000
22.86500 402.000
22.88000 453.000
22.89500 413.000
22.91000 437.000
22.92500 412.000
22.94000 407.000
22.95500 425.000
22.97000 430.000
22.98500 402.000
23.00000 409.000
23.01500 414.000
23.03000 398.000
23.04500 418.000
23.06000 425.000
23.07500 418.000
23.09000 415.000
23.10500 398.000
23.12000 429.000
23.13500 429.000
23.15000 424.000
23.16500 439.000
23.18000 432.000
23.19500 439.000
23.21000 421.000
23.22500 429.000
23.24000 418.000
23.25500 436.000
23.27000 455.000
23.28500 413.000
23.30000 422.000
23.31500 406.000
23.33000 419.000
23.34500 423.000
23.36000 431.000
23.37500 395.000
23.39000 408.000
23.40500 442.000
23.42000 402.000
23.43500 409.000
23.45000 420.000
23.46500 430.000
23.48000 450.000
23.49500 443.000
23.51000 416.000
23.52500 421.000
23.54000 433.000
23.55500 447.000
23.57000 411.000
23.58500 437.000
23.60000 446.000
23.61500 431.000
23.63000 451.000
23.64500 426.000
23.66000 422.000
23.67500 421.000
23.69000 404.000
23.70500 436.000
23.72000 459.000
23.73500 418.000
23.75000 434.000
23.76500 448.000
23.78000 408.000
23.79500 440.000
23.81000 428.000
23.82500 418.000
23.84000 421.000
23.85500 432.000
23.87000 439.000
23.88500 462.000
23.90000 461.000
23.91500 439.000
23.93000 438.000
23.94500 432.000
23.96000 454.000
23.97500 432.000
23.99000 437.000
24.00500 448.000
24.02000 438.000
24.03500 432.000
24.05000 430.000
24.06500 452.000
24.08000 459.000
24.09500 465.000
24.11000 446.000
24.12500 454.000
24.14000 442.000
24.15500 429.000
24.17000 438.000
24.18500 459.000
24.20000 432.000
24.21500 436.000
24.23000 431.000
24.24500 412.000
24.26000 438.000
24.27500 450.000
24.29000 451.000
24.30500 437.000
24.32000 424.000
24.33500 443.000
24.35000 440.000
24.36500 444.000
24.38000 449.000
24.39500 451.000
24.41000 425.000
24.42500 420.000
24.44000 445.000
24.45500 458.000
24.47000 418.000
24.48500 433.000
24.50000 452.000
24.51500 485.000
24.53000 488.000
24.54500 472.000
24.56000 458.000
24.57500 452.000
24.59000 451.000
24.60500 449.000
24.62000 459.000
24.63500 480.000
24.65000 478.000
24.66500 490.000
24.68000 486.000
24.69500 492.000
24.71000 484.000
24.72500 466.000
24.74000 463.000
24.75500 437.000
24.77000 452.000
24.78500 475.000
24.80000 465.000
24.81500 490.000
24.83000 481.000
24.84500 462.000
24.86000 511.000
24.87500 506.000
24.89000 496.000
24.90500 491.000
24.92000 469.000
24.93500 452.000
24.95000 500.000
24.96500 509.000
24.98000 502.000
24.99500 547.000
25.01000 505.000
25.02500 532.000
25.04000 478.000
25.05500 521.000
25.07000 531.000
25.08500 525.000
25.10000 505.000
25.11500 515.000
25.13000 525.000
25.14500 509.000
25.16000 492.000
25.17500 506.000
25.19000 541.000
25.20500 510.000
25.22000 541.000
25.23500 551.000
25.25000 535.000
25.26500 513.000
25.28000 510.000
25.29500 506.000
25.31000 542.000
25.32500 524.000
25.34000 552.000
25.35500 556.000
25.37000 567.000
25.38500 546.000
25.40000 554.000
25.41500 557.000
25.43000 552.000
25.44500 563.000
25.46000 543.000
25.47500 578.000
25.49000 578.000
25.50500 602.000
25.52000 548.000
25.53500 558.000
25.55000 535.000
25.56500 576.000
25.58000 594.000
25.59500 582.000
25.61000 583.000
25.62500 583.000
25.64000 604.000
25.65500 635.000
25.67000 604.000
25.68500 615.000
25.70000 594.000
25.71500 596.000
25.73000 579.000
25.74500 589.000
25.76000 635.000
25.77500 672.000
25.79000 639.000
25.80500 624.000
25.82000 632.000
25.83500 638.000
25.85000 617.000
25.86500 645.000
25.88000 638.000
25.89500 657.000
25.91000 655.000
25.92500 656.000
25.94000 675.000
25.95500 689.000
25.97000 660.000
25.98500 689.000
26.00000 682.000
26.01500 710.000
26.03000 729.000
26.04500 731.000
26.06000 767.000
26.07500 763.000
26.09000 786.000
26.10500 735.000
26.12000 768.000
26.13500 732.000
26.15000 761.000
26.16500 776.000
26.18000 762.000
26.19500 795.000
26.21000 756.000
26.22500 799.000
26.24000 848.000
26.25500 798.000
26.27000 819.000
26.28500 828.000
26.30000 797.000
26.31500 836.000
26.33000 826.000
26.34500 863.000
26.36000 859.000
26.37500 853.000
26.39000 853.000
26.40500 874.000
26.42000 878.000
26.43500 903.000
26.45000 902.000
26.46500 921.000
26.48000 965.000
26.49500 952.000
26.51000 980.000
26.52500 966.000
26.54000 947.000
26.55500 954.000
26.57000 1023.000
26.58500 1065.000
26.60000 1035.000
26.61500 1021.000
26.63000 1020.000
26.64500 1021.000
26.66000 1062.000
26.67500 1068.000
26.69000 1077.000
26.70500 1080.000
26.72000 1056.000
26.73500 1072.000
26.75000 1092.000
26.76500 1111.000
26.78000 1130.000
26.79500 1133.000
26.81000 1190.000
26.82500 1192.000
26.84000 1250.000
26.85500 1225.000
26.87000 1205.000
26.88500 1227.000
26.90000 1285.000
26.91500 1255.000
26.93000 1300.000
26.94500 1266.000
26.96000 1265.000
26.97500 1335.000
26.99000 1340.000
27.00500 1304.000
27.02000 1347.000
27.03500 1404.000
27.05000 1399.000
27.06500 1385.000
27.08000 1457.000
27.09500 1425.000
27.11000 1514.000
27.12500 1395.000
27.14000 1427.000
27.15500 1447.000
27.17000 1492.000
27.18500 1454.000
27.20000 1452.000
27.21500 1488.000
27.23000 1563.000
27.24500 1451.000
27.26000 1515.000
27.27500 1524.000
27.29000 1503.000
27.30500 1542.000
27.32000 1542.000
27.33500 1577.000
27.35000 1644.000
27.36500 1534.000
27.38000 1535.000
27.39500 1562.000
27.41000 1588.000
27.42500 1555.000
27.44000 1584.000
27.45500 1595.000
27.47000 1563.000
27.48500 1563.000
27.50000 1572.000
27.51500 1573.000
27.53000 1530.000
27.54500 1492.000
27.56000 1518.000
27.57500 1468.000
27.59000 1504.000
27.60500 1490.000
27.62000 1477.000
27.63500 1436.000
27.65000 1449.000
27.66500 1464.000
27.68000 1423.000
27.69500 1379.000
27.71000 1379.000
27.72500 1403.000
27.74000 1352.000
27.75500 1353.000
27.77000 1293.000
27.78500 1381.000
27.80000 1348.000
27.81500 1301.000
27.83000 1262.000
27.84500 1286.000
27.86000 1251.000
27.87500 1259.000
27.89000 1213.000
27.90500 1162.000
27.92000 1156.000
27.93500 1152.000
27.95000 1125.000
27.96500 1072.000
27.98000 1106.000
27.99500 1084.000
28.01000 1097.000
28.02500 1058.000
28.04000 1056.000
28.05500 1047.000
28.07000 1012.000
28.08500 1025.000
28.10000 974.000
28.11500 998.000
28.13000 958.000
28.14500 938.000
28.16000 933.000
28.17500 866.000
28.19000 919.000
28.20500 876.000
28.22000 892.000
28.23500 878.000
28.25000 900.000
28.26500 857.000
28.28000 828.000
28.29500 864.000
28.31000 825.000
28.32500 840.000
28.34000 826.000
28.35500 805.000
28.37000 755.000
28.38500 735.000
28.40000 750.000
28.41500 738.000
28.43000 766.000
28.44500 737.000
28.46000 702.000
28.47500 708.000
28.49000 666.000
28.50500 659.000
28.52000 692.000
28.53500 681.000
28.55000 650.000
28.56500 658.000
28.58000 626.000
28.59500 624.000
28.61000 683.000
28.62500 635.000
28.64000 586.000
28.65500 623.000
28.67000 624.000
28.68500 652.000
28.70000 635.000
28.71500 631.000
28.73000 638.000
28.74500 606.000
28.76000 564.000
28.77500 577.000
28.79000 571.000
28.80500 581.000
28.82000 552.000
28.83500 585.000
28.85000 563.000
28.86500 572.000
28.88000 552.000
28.89500 530.000
28.91000 542.000
28.92500 504.000
28.94000 554.000
28.95500 530.000
28.97000 538.000
28.98500 536.000
29.00000 503.000
29.01500 534.000
29.03000 513.000
29.04500 527.000
29.06000 489.000
29.07500 498.000
29.09000 523.000
29.10500 497.000
29.12000 512.000
29.13500 504.000
29.15000 499.000
29.16500 480.000
29.18000 485.000
29.19500 481.000
29.21000 501.000
29.22500 487.000
29.24000 476.000
29.25500 487.000
29.27000 462.000
29.28500 460.000
29.30000 493.000
29.31500 464.000
29.33000 447.000
29.34500 456.000
29.36000 474.000
29.37500 457.000
29.39000 410.000
29.40500 439.000
29.42000 468.000
29.43500 453.000
29.45000 442.000
29.46500 432.000
29.48000 433.000
29.49500 436.000
29.51000 466.000
29.52500 442.000
29.54000 416.000
29.55500 430.000
29.57000 421.000
29.58500 399.000
29.60000 419.000
29.61500 413.000
29.63000 424.000
29.64500 418.000
29.66000 418.000
29.67500 433.000
29.69000 414.000
29.70500 378.000
29.72000 390.000
29.73500 398.000
29.75000 381.000
29.76500 386.000
29.78000 373.000
29.79500 404.000
29.81000 406.000
29.82500 402.000
29.84000 385.000
29.85500 405.000
29.87000 360.000
29.88500 396.000
29.90000 389.000
29.91500 383.000
29.93000 387.000
29.94500 369.000
29.96000 413.000
29.97500 385.000
29.99000 399.000
30.00500 401.000
30.02000 378.000
30.03500 399.000
30.05000 389.000
30.06500 368.000
30.08000 376.000
30.09500 381.000
30.11000 371.000
30.12500 369.000
30.14000 340.000
30.15500 357.000
30.17000 361.000
30.18500 377.000
30.20000 403.000
30.21500 393.000
30.23000 369.000
30.24500 365.000
30.26000 342.000
30.27500 356.000
30.29000 365.000
30.30500 378.000
30.32000 383.000
30.33500 357.000
30.35000 386.000
30.36500 321.000
30.38000 332.000
30.39500 322.000
30.41000 328.000
30.42500 351.000
30.44000 351.000
30.45500 360.000
30.47000 339.000
30.48500 346.000
30.50000 353.000
30.51500 349.000
30.53000 351.000
30.54500 394.000
30.56000 346.000
30.57500 334.000
30.59000 347.000
30.60500 358.000
30.62000 359.000
30.63500 356.000
30.65000 355.000
30.66500 316.000
30.68000 327.000
30.69500 340.000
30.71000 361.000
30.72500 320.000
30.74000 320.000
30.75500 338.000
30.77000 339.000
30.78500 356.000
30.80000 332.000
30.81500 333.000
30.83000 368.000
30.84500 364.000
30.86000 323.000
30.87500 340.000
30.89000 339.000
30.90500 338.000
30.92000 325.000
30.93500 325.000
30.95000 335.000
30.96500 325.000
30.98000 354.000
30.99500 335.000
31.01000 342.000
31.02500 342.000
31.04000 336.000
31.05500 323.000
31.07000 314.000
31.08500 337.000
31.10000 339.000
31.11500 304.000
31.13000 294.000
31.14500 300.000
31.16000 322.000
31.17500 323.000
31.19000 317.000
31.20500 342.000
31.22000 321.000
31.23500 315.000
31.25000 322.000
31.26500 315.000
31.28000 307.000
31.29500 341.000
31.31000 320.000
31.32500 308.000
31.34000 336.000
31.35500 319.000
31.37000 327.000
31.38500 307.000
31.40000 294.000
31.41500 311.000
31.43000 310.000
31.44500 289.000
31.46000 268.000
31.47500 294.000
31.49000 283.000
31.50500 311.000
31.52000 317.000
31.53500 311.000
31.55000 311.000
31.56500 303.000
31.58000 285.000
31.59500 335.000
31.61000 292.000
31.62500 299.000
31.64000 286.000
31.65500 295.000
31.67000 300.000
31.68500 290.000
31.70000 291.000
31.71500 314.000
31.73000 297.000
31.74500 281.000
31.76000 284.000
31.77500 284.000
31.79000 275.000
31.80500 309.000
31.82000 285.000
31.83500 284.000
31.85000 305.000
31.86500 262.000
31.88000 294.000
31.89500 299.000
31.91000 293.000
31.92500 275.000
31.94000 288.000
31.95500 290.000
31.97000 296.000
31.98500 270.000
32.00000 276.000
32.01500 315.000
32.03000 292.000
32.04500 281.000
32.06000 318.000
32.07500 304.000
32.09000 287.000
32.10500 283.000
32.12000 279.000
32.13500 281.000
32.15000 280.000
32.16500 277.000
32.18000 298.000
32.19500 296.000
32.21000 294.000
32.22500 285.000
32.24000 298.000
32.25500 279.000
32.27000 285.000
32.28500 262.000
32.30000 270.000
32.31500 272.000
32.33000 259.000
32.34500 268.000
32.36000 282.000
32.37500 262.000
32.39000 284.000
32.40500 282.000
32.42000 267.000
32.43500 286.000
32.45000 281.000
32.46500 280.000
32.48000 296.000
32.49500 300.000
32.51000 299.000
32.52500 281.000
32.54000 263.000
32.55500 252.000
32.57000 277.000
32.58500 286.000
32.60000 266.000
32.61500 278.000
32.63000 278.000
32.64500 280.000
32.66000 260.000
32.67500 246.000
32.69000 272.000
32.70500 266.000
32.72000 260.000
32.73500 251.000
32.75000 289.000
32.76500 278.000
32.78000 291.000
32.79500 277.000
32.81000 261.000
32.82500 253.000
32.84000 282.000
32.85500 250.000
32.87000 240.000
32.88500 233.000
32.90000 252.000
32.91500 250.000
32.93000 247.000
32.94500 271.000
32.96000 257.000
32.97500 260.000
32.99000 291.000
33.00500 254.000
33.02000 251.000
33.03500 250.000
33.05000 252.000
33.06500 239.000
33.08000 244.000
33.09500 250.000
33.11000 266.000
33.12500 283.000
33.14000 292.000
33.15500 284.000
33.17000 269.000
33.18500 251.000
33.20000 267.000
33.21500 248.000
33.23000 224.000
33.24500 235.000
33.26000 246.000
33.27500 248.000
33.29000 239.000
33.30500 256.000
33.32000 246.000
33.33500 251.000
33.35000 225.000
33.36500 242.000
33.38000 248.000
33.39500 229.000
33.41000 249.000
33.42500 249.000
33.44000 241.000
33.45500 235.000
33.47000 251.000
33.48500 264.000
33.50000 261.000
33.51500 247.000
33.53000 237.000
33.54500 235.000
33.56000 261.000
33.57500 262.000
33.59000 258.000
33.60500 253.000
33.62000 251.000
33.63500 235.000
33.65000 258.000
33.66500 267.000
33.68000 257.000
33.69500 271.000
33.71000 262.000
33.72500 244.000
33.74000 223.000
33.75500 236.000
33.77000 234.000
33.78500 249.000
33.80000 260.000
33.81500 247.000
33.83000 231.000
33.84500 237.000
33.86000 238.000
33.87500 244.000
33.89000 247.000
33.90500 214.000
33.92000 225.000
33.93500 244.000
33.95000 253.000
33.96500 258.000
33.98000 224.000
33.99500 224.000
34.01000 234.000
34.02500 234.000
34.04000 252.000
34.05500 251.000
34.07000 233.000
34.08500 226.000
34.10000 229.000
34.11500 262.000
34.13000 244.000
34.14500 217.000
34.16000 242.000
34.17500 237.000
34.19000 231.000
34.20500 242.000
34.22000 232.000
34.23500 218.000
34.25000 209.000
34.26500 238.000
34.28000 236.000
34.29500 216.000
34.31000 239.000
34.32500 254.000
34.34000 222.000
34.35500 223.000
34.37000 223.000
34.38500 233.000
34.40000 232.000
34.41500 211.000
34.43000 217.000
34.44500 217.000
34.46000 231.000
34.47500 229.000
34.49000 232.000
34.50500 225.000
34.52000 248.000
34.53500 252.000
34.55000 214.000
34.56500 229.000
34.58000 254.000
34.59500 212.000
34.61000 197.000
34.62500 220.000
34.64000 222.000
34.65500 226.000
34.67000 220.000
34.68500 210.000
34.70000 223.000
34.71500 224.000
34.73000 230.000
34.74500 212.000
34.76000 215.000
34.77500 227.000
34.79000 228.000
34.80500 211.000
34.82000 226.000
34.83500 245.000
34.85000 239.000
34.86500 227.000
34.88000 228.000
34.89500 215.000
34.91000 217.000
34.92500 218.000
34.94000 209.000
34.95500 211.000
34.97000 219.000
34.98500 218.000
35.00000 228.000
35.01500 224.000
35.03000 185.000
35.04500 211.000
35.06000 230.000
35.07500 250.000
35.09000 213.000
35.10500 227.000
35.12000 212.000
35.13500 211.000
35.15000 219.000
35.16500 230.000
35.18000 220.000
35.19500 235.000
35.21000 217.000
35.22500 226.000
35.24000 217.000
35.25500 210.000
35.27000 223.000
35.28500 217.000
35.30000 241.000
35.31500 224.000
35.33000 228.000
35.34500 215.000
35.36000 200.000
35.37500 204.000
35.39000 232.000
35.40500 189.000
35.42000 200.000
35.43500 220.000
35.45000 221.000
35.46500 208.000
35.48000 214.000
35.49500 227.000
35.51000 240.000
35.52500 220.000
35.54000 220.000
35.55500 210.000
35.57000 199.000
35.58500 201.000
35.60000 218.000
35.61500 209.000
35.63000 215.000
35.64500 200.000
35.66000 209.000
35.67500 204.000
35.69000 221.000
35.70500 232.000
35.72000 212.000
35.73500 188.000
35.75000 191.000
35.76500 212.000
35.78000 216.000
35.79500 208.000
35.81000 205.000
35.82500 211.000
35.84000 206.000
35.85500 202.000
35.87000 216.000
35.88500 235.000
35.90000 213.000
35.91500 220.000
35.93000 223.000
35.94500 205.000
35.96000 200.000
35.97500 208.000
35.99000 218.000
36.00500 207.000
36.02000 219.000
36.03500 222.000
36.05000 230.000
36.06500 224.000
36.08000 223.000
36.09500 224.000
36.11000 217.000
36.12500 202.000
36.14000 189.000
36.15500 195.000
36.17000 204.000
36.18500 211.000
36.20000 197.000
36.21500 223.000
36.23000 212.000
36.24500 224.000
36.26000 217.000
36.27500 204.000
36.29000 218.000
36.30500 203.000
36.32000 199.000
36.33500 206.000
36.35000 202.000
36.36500 227.000
36.38000 215.000
36.39500 223.000
36.41000 234.000
36.42500 226.000
36.44000 206.000
36.45500 204.000
36.47000 220.000
36.48500 218.000
36.50000 198.000
36.51500 204.000
36.53000 189.000
36.54500 205.000
36.56000 212.000
36.57500 216.000
36.59000 212.000
36.60500 209.000
36.62000 213.000
36.63500 200.000
36.65000 203.000
36.66500 195.000
36.68000 203.000
36.69500 197.000
36.71000 194.000
36.72500 219.000
36.74000 215.000
36.75500 211.000
36.77000 186.000
36.78500 192.000
36.80000 196.000
36.81500 218.000
36.83000 189.000
36.84500 190.000
36.86000 195.000
36.87500 210.000
36.89000 219.000
36.90500 212.000
36.92000 222.000
36.93500 216.000
36.95000 176.000
36.96500 191.000
36.98000 199.000
36.99500 196.000
37.01000 215.000
37.02500 201.000
37.04000 182.000
37.05500 197.000
37.07000 185.000
37.08500 198.000
37.10000 223.000
37.11500 210.000
37.13000 191.000
37.14500 206.000
37.16000 210.000
37.17500 199.000
37.19000 201.000
37.20500 176.000
37.22000 198.000
37.23500 178.000
37.25000 188.000
37.26500 210.000
37.28000 200.000
37.29500 219.000
37.31000 198.000
37.32500 210.000
37.34000 197.000
37.35500 189.000
37.37000 191.000
37.38500 194.000
37.40000 207.000
37.41500 196.000
37.43000 169.000
37.44500 186.000
37.46000 188.000
37.47500 191.000
37.49000 213.000
37.50500 199.000
37.52000 204.000
37.53500 204.000
37.55000 189.000
37.56500 193.000
37.58000 182.000
37.59500 182.000
37.61000 195.000
37.62500 204.000
37.64000 202.000
37.65500 178.000
37.67000 183.000
37.68500 184.000
37.70000 189.000
37.71500 179.000
37.73000 189.000
37.74500 183.000
37.76000 171.000
37.77500 202.000
37.79000 214.000
37.80500 194.000
37.82000 199.000
37.83500 204.000
37.85000 182.000
37.86500 183.000
37.88000 200.000
37.89500 200.000
37.91000 185.000
37.92500 191.000
37.94000 192.000
37.95500 188.000
37.97000 178.000
37.98500 173.000
38.00000 187.000
38.01500 187.000
38.03000 193.000
38.04500 189.000
38.06000 192.000
38.07500 190.000
38.09000 182.000
38.10500 192.000
38.12000 183.000
38.13500 202.000
38.15000 208.000
38.16500 194.000
38.18000 217.000
38.19500 202.000
38.21000 196.000
38.22500 210.000
38.24000 208.000
38.25500 190.000
38.27000 182.000
38.28500 170.000
38.30000 162.000
38.31500 179.000
38.33000 194.000
38.34500 201.000
38.36000 197.000
38.37500 213.000
38.39000 186.000
38.40500 183.000
38.42000 187.000
38.43500 178.000
38.45000 176.000
38.46500 173.000
38.48000 171.000
38.49500 190.000
38.51000 178.000
38.52500 181.000
38.54000 168.000
38.55500 183.000
38.57000 181.000
38.58500 199.000
38.60000 204.000
38.61500 210.000
38.63000 208.000
38.64500 189.000
38.66000 189.000
38.67500 185.000
38.69000 179.000
38.70500 204.000
38.72000 188.000
38.73500 193.000
38.75000 192.000
38.76500 209.000
38.78000 209.000
38.79500 196.000
38.81000 176.000
38.82500 183.000
38.84000 195.000
38.85500 192.000
38.87000 179.000
38.88500 179.000
38.90000 181.000
38.91500 192.000
38.93000 176.000
38.94500 185.000
38.96000 212.000
38.97500 208.000
38.99000 199.000
39.00500 176.000
39.02000 174.000
39.03500 169.000
39.05000 178.000
39.06500 181.000
39.08000 194.000
39.09500 186.000
39.11000 178.000
39.12500 194.000
39.14000 194.000
39.15500 210.000
39.17000 200.000
39.18500 179.000
39.20000 199.000
39.21500 189.000
39.23000 198.000
39.24500 173.000
39.26000 194.000
39.27500 158.000
39.29000 180.000
39.30500 193.000
39.32000 201.000
39.33500 183.000
39.35000 191.000
39.36500 190.000
39.38000 182.000
39.39500 210.000
39.41000 190.000
39.42500 194.000
39.44000 193.000
39.45500 192.000
39.47000 192.000
39.48500 188.000
39.50000 174.000
39.51500 169.000
39.53000 167.000
39.54500 185.000
39.56000 181.000
39.57500 189.000
39.59000 199.000
39.60500 197.000
39.62000 191.000
39.63500 203.000
39.65000 186.000
39.66500 195.000
39.68000 197.000
39.69500 195.000
39.71000 196.000
39.72500 201.000
39.74000 193.000
39.75500 186.000
39.77000 192.000
39.78500 206.000
39.80000 185.000
39.81500 189.000
39.83000 178.000
39.84500 194.000
39.86000 182.000
39.87500 174.000
39.89000 175.000
39.90500 173.000
39.92000 196.000
39.93500 189.000
39.95000 162.000
39.96500 180.000
39.98000 184.000
39.99500 189.000
40.01000 195.000
40.02500 186.000
40.04000 205.000
40.05500 200.000
40.07000 173.000
40.08500 185.000
40.10000 176.000
40.11500 175.000
40.13000 203.000
40.14500 216.000
40.16000 207.000
40.17500 187.000
40.19000 190.000
40.20500 195.000
40.22000 178.000
40.23500 180.000
40.25000 202.000
40.26500 194.000
40.28000 178.000
40.29500 190.000
40.31000 171.000
40.32500 189.000
40.34000 184.000
40.35500 188.000
40.37000 187.000
40.38500 169.000
40.40000 176.000
40.41500 182.000
40.43000 181.000
40.44500 196.000
40.46000 182.000
40.47500 186.000
40.49000 184.000
40.50500 198.000
40.52000 196.000
40.53500 177.000
40.55000 195.000
40.56500 184.000
40.58000 186.000
40.59500 199.000
40.61000 206.000
40.62500 203.000
40.64000 162.000
40.65500 188.000
40.67000 187.000
40.68500 170.000
40.70000 198.000
40.71500 185.000
40.73000 201.000
40.74500 185.000
40.76000 171.000
40.77500 185.000
40.79000 198.000
40.80500 199.000
40.82000 184.000
40.83500 188.000
40.85000 177.000
40.86500 164.000
40.88000 178.000
40.89500 191.000
40.91000 203.000
40.92500 192.000
40.94000 203.000
40.95500 181.000
40.97000 191.000
40.98500 178.000
41.00000 179.000
41.01500 201.000
41.03000 180.000
41.04500 202.000
41.06000 191.000
41.07500 203.000
41.09000 207.000
41.10500 173.000
41.12000 188.000
41.13500 180.000
41.15000 182.000
41.16500 192.000
41.18000 187.000
41.19500 169.000
41.21000 184.000
41.22500 194.000
41.24000 201.000
41.25500 220.000
41.27000 192.000
41.28500 198.000
41.30000 185.000
41.31500 198.000
41.33000 179.000
41.34500 213.000
41.36000 205.000
41.37500 206.000
41.39000 203.000
41.40500 195.000
41.42000 196.000
41.43500 189.000
41.45000 179.000
41.46500 200.000
41.48000 199.000
41.49500 194.000
41.51000 199.000
41.52500 198.000
41.54000 203.000
41.55500 175.000
41.57000 191.000
41.58500 190.000
41.60000 174.000
41.61500 191.000
41.63000 192.000
41.64500 183.000
41.66000 186.000
41.67500 183.000
41.69000 174.000
41.70500 166.000
41.72000 175.000
41.73500 192.000
41.75000 167.000
41.76500 180.000
41.78000 181.000
41.79500 182.000
41.81000 181.000
41.82500 183.000
41.84000 194.000
41.85500 191.000
41.87000 186.000
41.88500 202.000
41.90000 197.000
41.91500 198.000
41.93000 192.000
41.94500 185.000
41.96000 190.000
41.97500 198.000
41.99000 185.000
42.00500 187.000
42.02000 189.000
42.03500 186.000
42.05000 188.000
42.06500 185.000
42.08000 188.000
42.09500 191.000
42.11000 191.000
42.12500 207.000
42.14000 201.000
42.15500 203.000
42.17000 221.000
42.18500 212.000
42.20000 195.000
42.21500 201.000
42.23000 194.000
42.24500 195.000
42.26000 185.000
42.27500 184.000
42.29000 195.000
42.30500 187.000
42.32000 185.000
42.33500 178.000
42.35000 173.000
42.36500 199.000
42.38000 207.000
42.39500 201.000
42.41000 206.000
42.42500 191.000
42.44000 194.000
42.45500 202.000
42.47000 206.000
42.48500 198.000
42.50000 191.000
42.51500 199.000
42.53000 192.000
42.54500 188.000
42.56000 192.000
42.57500 197.000
42.59000 221.000
42.60500 213.000
42.62000 220.000
42.63500 191.000
42.65000 186.000
42.66500 158.000
42.68000 185.000
42.69500 185.000
42.71000 201.000
42.72500 190.000
42.74000 186.000
42.75500 203.000
42.77000 196.000
42.78500 211.000
42.80000 210.000
42.81500 215.000
42.83000 198.000
42.84500 189.000
42.86000 187.000
42.87500 208.000
42.89000 206.000
42.90500 196.000
42.92000 189.000
42.93500 181.000
42.95000 211.000
42.96500 212.000
42.98000 190.000
42.99500 192.000
43.01000 192.000
43.02500 195.000
43.04000 196.000
43.05500 194.000
43.07000 192.000
43.08500 198.000
43.10000 213.000
43.11500 228.000
43.13000 216.000
43.14500 186.000
43.16000 219.000
43.17500 212.000
43.19000 220.000
43.20500 202.000
43.22000 203.000
43.23500 189.000
43.25000 217.000
43.26500 198.000
43.28000 186.000
43.29500 197.000
43.31000 190.000
43.32500 200.000
43.34000 176.000
43.35500 201.000
43.37000 214.000
43.38500 241.000
43.40000 207.000
43.41500 191.000
43.43000 195.000
43.44500 188.000
43.46000 210.000
43.47500 227.000
43.49000 198.000
43.50500 196.000
43.52000 191.000
43.53500 202.000
43.55000 206.000
43.56500 227.000
43.58000 197.000
43.59500 196.000
43.61000 213.000
43.62500 206.000
43.64000 200.000
43.65500 204.000
43.67000 186.000
43.68500 208.000
43.70000 201.000
43.71500 214.000
43.73000 224.000
43.74500 240.000
43.76000 208.000
43.77500 205.000
43.79000 195.000
43.80500 199.000
43.82000 207.000
43.83500 207.000
43.85000 213.000
43.86500 218.000
43.88000 199.000
43.89500 195.000
43.91000 211.000
43.92500 185.000
43.94000 208.000
43.95500 215.000
43.97000 212.000
43.98500 233.000
44.00000 218.000
44.01500 215.000
44.03000 191.000
44.04500 196.000
44.06000 192.000
44.07500 217.000
44.09000 214.000
44.10500 221.000
44.12000 225.000
44.13500 217.000
44.15000 211.000
44.16500 200.000
44.18000 236.000
44.19500 211.000
44.21000 188.000
44.22500 213.000
44.24000 214.000
44.25500 232.000
44.27000 239.000
44.28500 214.000
44.30000 211.000
44.31500 206.000
44.33000 198.000
44.34500 210.000
44.36000 223.000
44.37500 208.000
44.39000 230.000
44.40500 206.000
44.42000 189.000
44.43500 211.000
44.45000 214.000
44.46500 207.000
44.48000 213.000
44.49500 222.000
44.51000 199.000
44.52500 208.000
44.54000 208.000
44.55500 210.000
44.57000 208.000
44.58500 195.000
44.60000 206.000
44.61500 218.000
44.63000 208.000
44.64500 226.000
44.66000 228.000
44.67500 214.000
44.69000 205.000
44.70500 193.000
44.72000 193.000
44.73500 205.000
44.75000 209.000
44.76500 212.000
44.78000 179.000
44.79500 199.000
44.81000 207.000
44.82500 202.000
44.84000 208.000
44.85500 197.000
44.87000 208.000
44.88500 193.000
44.90000 209.000
44.91500 223.000
44.93000 192.000
44.94500 193.000
44.96000 229.000
44.97500 234.000
44.99000 222.000
45.00500 189.000
45.02000 193.000
45.03500 220.000
45.05000 208.000
45.06500 198.000
45.08000 204.000
45.09500 204.000
45.11000 212.000
45.12500 200.000
45.14000 200.000
45.15500 210.000
45.17000 208.000
45.18500 192.000
45.20000 189.000
45.21500 232.000
45.23000 195.000
45.24500 196.000
45.26000 210.000
45.27500 234.000
45.29000 210.000
45.30500 193.000
45.32000 221.000
45.33500 192.000
45.35000 203.000
45.36500 201.000
45.38000 220.000
45.39500 208.000
45.41000 209.000
45.42500 211.000
45.44000 215.000
45.45500 217.000
45.47000 176.000
45.48500 191.000
45.50000 217.000
45.51500 222.000
45.53000 194.000
45.54500 199.000
45.56000 192.000
45.57500 203.000
45.59000 205.000
45.60500 212.000
45.62000 214.000
45.63500 224.000
45.65000 190.000
45.66500 197.000
45.68000 217.000
45.69500 204.000
45.71000 207.000
45.72500 213.000
45.74000 186.000
45.75500 200.000
45.77000 218.000
45.78500 192.000
45.80000 203.000
45.81500 178.000
45.83000 187.000
45.84500 208.000
45.86000 209.000
45.87500 209.000
45.89000 222.000
45.90500 214.000
45.92000 193.000
45.93500 191.000
45.95000 201.000
45.96500 175.000
45.98000 180.000
45.99500 181.000
46.01000 186.000
46.02500 171.000
46.04000 177.000
46.05500 186.000
46.07000 185.000
46.08500 199.000
46.10000 201.000
46.11500 217.000
46.13000 194.000
46.14500 212.000
46.16000 190.000
46.17500 197.000
46.19000 200.000
46.20500 194.000
46.22000 182.000
46.23500 196.000
46.25000 179.000
46.26500 215.000
46.28000 203.000
46.29500 187.000
46.31000 195.000
46.32500 206.000
46.34000 203.000
46.35500 199.000
46.37000 212.000
46.38500 202.000
46.40000 190.000
46.41500 194.000
46.43000 197.000
46.44500 189.000
46.46000 200.000
46.47500 217.000
46.49000 202.000
46.50500 185.000
46.52000 187.000
46.53500 199.000
46.55000 182.000
46.56500 200.000
46.58000 196.000
46.59500 186.000
46.61000 186.000
46.62500 208.000
46.64000 199.000
46.65500 205.000
46.67000 184.000
46.68500 176.000
46.70000 176.000
46.71500 197.000
46.73000 192.000
46.74500 191.000
46.76000 186.000
46.77500 179.000
46.79000 169.000
46.80500 194.000
46.82000 172.000
46.83500 169.000
46.85000 170.000
46.86500 195.000
46.88000 189.000
46.89500 187.000
46.91000 168.000
46.92500 171.000
46.94000 168.000
46.95500 184.000
46.97000 209.000
46.98500 205.000
47.00000 221.000
47.01500 206.000
47.03000 184.000
47.04500 215.000
47.06000 190.000
47.07500 203.000
47.09000 186.000
47.10500 192.000
47.12000 171.000
47.13500 180.000
47.15000 162.000
47.16500 174.000
47.18000 194.000
47.19500 184.000
47.21000 177.000
47.22500 174.000
47.24000 191.000
47.25500 167.000
47.27000 181.000
47.28500 177.000
47.30000 183.000
47.31500 184.000
47.33000 166.000
47.34500 184.000
47.36000 180.000
47.37500 190.000
47.39000 183.000
47.40500 176.000
47.42000 177.000
47.43500 205.000
47.45000 163.000
47.46500 172.000
47.48000 168.000
47.49500 166.000
47.51000 177.000
47.52500 184.000
47.54000 187.000
47.55500 173.000
47.57000 185.000
47.58500 166.000
47.60000 171.000
47.61500 186.000
47.63000 180.000
47.64500 168.000
47.66000 186.000
47.67500 176.000
47.69000 189.000
47.70500 186.000
47.72000 177.000
47.73500 190.000
47.75000 198.000
47.76500 166.000
47.78000 181.000
47.79500 189.000
47.81000 162.000
47.82500 169.000
47.84000 180.000
47.85500 187.000
47.87000 178.000
47.88500 173.000
47.90000 179.000
47.91500 175.000
47.93000 174.000
47.94500 179.000
47.96000 186.000
47.97500 187.000
47.99000 171.000
48.00500 170.000
48.02000 171.000
48.03500 182.000
48.05000 181.000
48.06500 167.000
48.08000 206.000
48.09500 168.000
48.11000 163.000
48.12500 174.000
48.14000 175.000
48.15500 181.000
48.17000 175.000
48.18500 175.000
48.20000 172.000
48.21500 172.000
48.23000 181.000
48.24500 172.000
48.26000 185.000
48.27500 181.000
48.29000 170.000
48.30500 171.000
48.32000 180.000
48.33500 178.000
48.35000 169.000
48.36500 155.000
48.38000 174.000
48.39500 167.000
48.41000 163.000
48.42500 167.000
48.44000 180.000
48.45500 174.000
48.47000 168.000
48.48500 194.000
48.50000 182.000
48.51500 191.000
48.53000 165.000
48.54500 181.000
48.56000 191.000
48.57500 175.000
48.59000 158.000
48.60500 181.000
48.62000 181.000
48.63500 164.000
48.65000 156.000
48.66500 163.000
48.68000 165.000
48.69500 172.000
48.71000 176.000
48.72500 178.000
48.74000 164.000
48.75500 167.000
48.77000 172.000
48.78500 154.000
48.80000 178.000
48.81500 178.000
48.83000 175.000
48.84500 172.000
48.86000 177.000
48.87500 189.000
48.89000 182.000
48.90500 179.000
48.92000 179.000
48.93500 168.000
48.95000 186.000
48.96500 171.000
48.98000 183.000
48.99500 165.000
49.01000 161.000
49.02500 162.000
49.04000 162.000
49.05500 167.000
49.07000 168.000
49.08500 175.000
49.10000 181.000
49.11500 182.000
49.13000 174.000
49.14500 178.000
49.16000 168.000
49.17500 171.000
49.19000 160.000
49.20500 164.000
49.22000 180.000
49.23500 184.000
49.25000 169.000
49.26500 170.000
49.28000 188.000
49.29500 165.000
49.31000 161.000
49.32500 155.000
49.34000 168.000
49.35500 180.000
49.37000 177.000
49.38500 158.000
49.40000 171.000
49.41500 173.000
49.43000 157.000
49.44500 139.000
49.46000 158.000
49.47500 150.000
49.49000 159.000
49.50500 161.000
49.52000 187.000
49.53500 189.000
49.55000 163.000
49.56500 168.000
49.58000 175.000
49.59500 171.000
49.61000 183.000
49.62500 183.000
49.64000 186.000
49.65500 193.000
49.67000 180.000
49.68500 182.000
49.70000 169.000
49.71500 157.000
49.73000 183.000
49.74500 173.000
49.76000 178.000
49.77500 169.000
49.79000 174.000
49.80500 177.000
49.82000 189.000
49.83500 165.000
49.85000 164.000
49.86500 169.000
49.88000 177.000
49.89500 173.000
49.91000 178.000
49.92500 176.000
49.94000 167.000
49.95500 164.000
49.97000 169.000
49.98500 177.000
50.00000 167.000
50.01500 164.000
50.03000 184.000
50.04500 192.000
50.06000 182.000
50.07500 169.000
50.09000 160.000
50.10500 172.000
50.12000 150.000
50.13500 171.000
50.15000 176.000
50.16500 160.000
50.18000 157.000
50.19500 160.000
50.21000 154.000
50.22500 174.000
50.24000 173.000
50.25500 160.000
50.27000 158.000
50.28500 167.000
50.30000 168.000
50.31500 172.000
50.33000 173.000
50.34500 173.000
50.36000 167.000
50.37500 158.000
50.39000 158.000
50.40500 156.000
50.42000 162.000
50.43500 164.000
50.45000 150.000
50.46500 161.000
50.48000 170.000
50.49500 153.000
50.51000 154.000
50.52500 144.000
50.54000 164.000
50.55500 176.000
50.57000 160.000
50.58500 162.000
50.60000 159.000
50.61500 165.000
50.63000 165.000
50.64500 171.000
50.66000 175.000
50.67500 184.000
50.69000 171.000
50.70500 174.000
50.72000 162.000
50.73500 174.000
50.75000 169.000
50.76500 173.000
50.78000 175.000
50.79500 170.000
50.81000 175.000
50.82500 169.000
50.84000 180.000
50.85500 164.000
50.87000 158.000
50.88500 155.000
50.90000 156.000
50.91500 148.000
50.93000 159.000
50.94500 168.000
50.96000 176.000
50.97500 164.000
50.99000 162.000
51.00500 166.000
51.02000 168.000
51.03500 171.000
51.05000 176.000
51.06500 177.000
51.08000 175.000
51.09500 162.000
51.11000 150.000
51.12500 143.000
51.14000 150.000
51.15500 177.000
51.17000 151.000
51.18500 157.000
51.20000 159.000
51.21500 170.000
51.23000 165.000
51.24500 166.000
51.26000 175.000
51.27500 167.000
51.29000 174.000
51.30500 156.000
51.32000 150.000
51.33500 147.000
51.35000 149.000
51.36500 145.000
51.38000 145.000
51.39500 160.000
51.41000 151.000
51.42500 151.000
51.44000 148.000
51.45500 175.000
51.47000 170.000
51.48500 163.000
51.50000 151.000
51.51500 163.000
51.53000 159.000
51.54500 169.000
51.56000 167.000
51.57500 165.000
51.59000 158.000
51.60500 161.000
51.62000 161.000
51.63500 166.000
51.65000 144.000
51.66500 146.000
51.68000 177.000
51.69500 180.000
51.71000 167.000
51.72500 186.000
51.74000 158.000
51.75500 146.000
51.77000 148.000
51.78500 167.000
51.80000 167.000
51.81500 168.000
51.83000 148.000
51.84500 153.000
51.86000 172.000
51.87500 155.000
51.89000 152.000
51.90500 148.000
51.92000 141.000
51.93500 165.000
51.95000 149.000
51.96500 140.000
51.98000 139.000
51.99500 154.000
52.01000 159.000
52.02500 164.000
52.04000 157.000
52.05500 174.000
52.07000 161.000
52.08500 166.000
52.10000 147.000
52.11500 156.000
52.13000 141.000
52.14500 156.000
52.16000 157.000
52.17500 150.000
52.19000 140.000
52.20500 172.000
52.22000 182.000
52.23500 162.000
52.25000 154.000
52.26500 149.000
52.28000 156.000
52.29500 151.000
52.31000 156.000
52.32500 169.000
52.34000 166.000
52.35500 170.000
52.37000 166.000
52.38500 161.000
52.40000 175.000
52.41500 156.000
52.43000 156.000
52.44500 152.000
52.46000 160.000
52.47500 157.000
52.49000 154.000
52.50500 150.000
52.52000 167.000
52.53500 166.000
52.55000 147.000
52.56500 143.000
52.58000 162.000
52.59500 156.000
52.61000 172.000
52.62500 178.000
52.64000 167.000
52.65500 171.000
52.67000 162.000
52.68500 167.000
52.70000 159.000
52.71500 150.000
52.73000 156.000
52.74500 149.000
52.76000 140.000
52.77500 139.000
52.79000 158.000
52.80500 161.000
52.82000 169.000
52.83500 179.000
52.85000 161.000
52.86500 153.000
52.88000 141.000
52.89500 154.000
52.91000 158.000
52.92500 142.000
52.94000 133.000
52.95500 168.000
52.97000 178.000
52.98500 152.000
53.00000 162.000
53.01500 157.000
53.03000 160.000
53.04500 153.000
53.06000 158.000
53.07500 169.000
53.09000 141.000
53.10500 149.000
53.12000 147.000
53.13500 152.000
53.15000 176.000
53.16500 155.000
53.18000 153.000
53.19500 170.000
53.21000 152.000
53.22500 168.000
53.24000 161.000
53.25500 165.000
53.27000 140.000
53.28500 152.000
53.30000 158.000
53.31500 150.000
53.33000 167.000
53.34500 172.000
53.36000 166.000
53.37500 144.000
53.39000 169.000
53.40500 160.000
53.42000 147.000
53.43500 170.000
53.45000 172.000
53.46500 151.000
53.48000 155.000
53.49500 167.000
53.51000 184.000
53.52500 158.000
53.54000 137.000
53.55500 159.000
53.57000 161.000
53.58500 144.000
53.60000 128.000
53.61500 134.000
53.63000 158.000
53.64500 163.000
53.66000 165.000
53.67500 156.000
53.69000 148.000
53.70500 155.000
53.72000 166.000
53.73500 173.000
53.75000 168.000
53.76500 164.000
53.78000 162.000
53.79500 149.000
53.81000 136.000
53.82500 154.000
53.84000 157.000
53.85500 145.000
53.87000 161.000
53.88500 126.000
53.90000 156.000
53.91500 159.000
53.93000 163.000
53.94500 145.000
53.96000 149.000
53.97500 158.000
53.99000 157.000
54.00500 151.000
54.02000 154.000
54.03500 164.000
54.05000 178.000
54.06500 156.000
54.08000 167.000
54.09500 149.000
54.11000 164.000
54.12500 156.000
54.14000 144.000
54.15500 145.000
54.17000 159.000
54.18500 147.000
54.20000 147.000
54.21500 142.000
54.23000 143.000
54.24500 147.000
54.26000 118.000
54.27500 135.000
54.29000 140.000
54.30500 156.000
54.32000 144.000
54.33500 131.000
54.35000 154.000
54.36500 150.000
54.38000 149.000
54.39500 164.000
54.41000 176.000
54.42500 152.000
54.44000 156.000
54.45500 158.000
54.47000 178.000
54.48500 157.000
54.50000 153.000
54.51500 155.000
54.53000 159.000
54.54500 151.000
54.56000 164.000
54.57500 156.000
54.59000 161.000
54.60500 147.000
54.62000 150.000
54.63500 161.000
54.65000 148.000
54.66500 154.000
54.68000 158.000
54.69500 168.000
54.71000 161.000
54.72500 173.000
54.74000 164.000
54.75500 129.000
54.77000 145.000
54.78500 162.000
54.80000 161.000
54.81500 165.000
54.83000 171.000
54.84500 158.000
54.86000 130.000
54.87500 134.000
54.89000 165.000
54.90500 160.000
54.92000 169.000
54.93500 159.000
54.95000 144.000
54.96500 162.000
54.98000 164.000
54.99500 160.000
55.01000 157.000
55.02500 146.000
55.04000 146.000
55.05500 153.000
55.07000 158.000
55.08500 148.000
55.10000 159.000
55.11500 156.000
55.13000 160.000
55.14500 155.000
55.16000 157.000
55.17500 164.000
55.19000 162.000
55.20500 161.000
55.22000 157.000
55.23500 142.000
55.25000 157.000
55.26500 184.000
55.28000 181.000
55.29500 155.000
55.31000 162.000
55.32500 159.000
55.34000 161.000
55.35500 134.000
55.37000 165.000
55.38500 163.000
55.40000 169.000
55.41500 157.000
55.43000 155.000
55.44500 153.000
55.46000 157.000
55.47500 149.000
55.49000 156.000
55.50500 142.000
55.52000 151.000
55.53500 169.000
55.55000 169.000
55.56500 158.000
55.58000 161.000
55.59500 164.000
55.61000 162.000
55.62500 153.000
55.64000 149.000
55.65500 143.000
55.67000 168.000
55.68500 154.000
55.70000 148.000
55.71500 157.000
55.73000 156.000
55.74500 147.000
55.76000 167.000
55.77500 143.000
55.79000 139.000
55.80500 158.000
55.82000 161.000
55.83500 156.000
55.85000 162.000
55.86500 160.000
55.88000 166.000
55.89500 180.000
55.91000 171.000
55.92500 171.000
55.94000 166.000
55.95500 163.000
55.97000 171.000
55.98500 160.000
56.00000 154.000
56.01500 146.000
56.03000 169.000
56.04500 165.000
56.06000 175.000
56.07500 166.000
56.09000 177.000
56.10500 158.000
56.12000 163.000
56.13500 163.000
56.15000 177.000
56.16500 156.000
56.18000 167.000
56.19500 152.000
56.21000 151.000
56.22500 154.000
56.24000 164.000
56.25500 160.000
56.27000 161.000
56.28500 149.000
56.30000 160.000
56.31500 169.000
56.33000 177.000
56.34500 169.000
56.36000 172.000
56.37500 163.000
56.39000 149.000
56.40500 163.000
56.42000 150.000
56.43500 171.000
56.45000 159.000
56.46500 160.000
56.48000 160.000
56.49500 167.000
56.51000 164.000
56.52500 166.000
56.54000 164.000
56.55500 172.000
56.57000 171.000
56.58500 167.000
56.60000 164.000
56.61500 160.000
56.63000 149.000
56.64500 160.000
56.66000 150.000
56.67500 165.000
56.69000 162.000
56.70500 152.000
56.72000 146.000
56.73500 167.000
56.75000 169.000
56.76500 160.000
56.78000 142.000
56.79500 157.000
56.81000 164.000
56.82500 178.000
56.84000 163.000
56.85500 162.000
56.87000 146.000
56.88500 130.000
56.90000 144.000
56.91500 151.000
56.93000 155.000
56.94500 151.000
56.96000 160.000
56.97500 163.000
56.99000 162.000
57.00500 155.000
57.02000 157.000
57.03500 172.000
57.05000 147.000
57.06500 156.000
57.08000 165.000
57.09500 160.000
57.11000 164.000
57.12500 160.000
57.14000 167.000
57.15500 150.000
57.17000 168.000
57.18500 164.000
57.20000 171.000
57.21500 166.000
57.23000 140.000
57.24500 154.000
57.26000 136.000
57.27500 146.000
57.29000 144.000
57.30500 158.000
57.32000 160.000
57.33500 157.000
57.35000 162.000
57.36500 154.000
57.38000 157.000
57.39500 145.000
57.41000 140.000
57.42500 154.000
57.44000 137.000
57.45500 154.000
57.47000 149.000
57.48500 146.000
57.50000 143.000
57.51500 133.000
57.53000 151.000
57.54500 159.000
57.56000 158.000
57.57500 146.000
57.59000 144.000
57.60500 138.000
57.62000 147.000
57.63500 140.000
57.65000 142.000
57.66500 168.000
57.68000 150.000
57.69500 152.000
57.71000 140.000
57.72500 164.000
57.74000 147.000
57.75500 139.000
57.77000 144.000
57.78500 138.000
57.80000 138.000
57.81500 149.000
57.83000 137.000
57.84500 137.000
57.86000 148.000
57.87500 126.000
57.89000 152.000
57.90500 150.000
57.92000 141.000
57.93500 134.000
57.95000 140.000
57.96500 139.000
57.98000 142.000
57.99500 150.000
58.01000 138.000
58.02500 132.000
58.04000 118.000
58.05500 120.000
58.07000 134.000
58.08500 132.000
58.10000 138.000
58.11500 143.000
58.13000 131.000
58.14500 145.000
58.16000 130.000
58.17500 154.000
58.19000 133.000
58.20500 131.000
58.22000 122.000
58.23500 140.000
58.25000 156.000
58.26500 157.000
58.28000 146.000
58.29500 156.000
58.31000 138.000
58.32500 135.000
58.34000 135.000
58.35500 120.000
58.37000 143.000
58.38500 130.000
58.40000 135.000
58.41500 125.000
58.43000 122.000
58.44500 125.000
58.46000 141.000
58.47500 124.000
58.49000 126.000
58.50500 141.000
58.52000 146.000
58.53500 125.000
58.55000 142.000
58.56500 146.000
58.58000 134.000
58.59500 149.000
58.61000 151.000
58.62500 135.000
58.64000 113.000
58.65500 116.000
58.67000 119.000
58.68500 138.000
58.70000 129.000
58.71500 139.000
58.73000 128.000
58.74500 122.000
58.76000 125.000
58.77500 156.000
58.79000 137.000
58.80500 126.000
58.82000 123.000
58.83500 127.000
58.85000 135.000
58.86500 127.000
58.88000 120.000
58.89500 132.000
58.91000 139.000
58.92500 138.000
58.94000 140.000
58.95500 131.000
58.97000 129.000
58.98500 137.000
59.00000 133.000
59.01500 119.000
59.03000 135.000
59.04500 134.000
59.06000 117.000
59.07500 110.000
59.09000 115.000
59.10500 124.000
59.12000 119.000
59.13500 140.000
59.15000 141.000
59.16500 147.000
59.18000 139.000
59.19500 125.000
59.21000 125.000
59.22500 126.000
59.24000 121.000
59.25500 123.000
59.27000 124.000
59.28500 119.000
59.30000 109.000
59.31500 112.000
59.33000 129.000
59.34500 131.000
59.36000 121.000
59.37500 117.000
59.39000 116.000
59.40500 145.000
59.42000 128.000
59.43500 118.000
59.45000 119.000
59.46500 137.000
59.48000 128.000
59.49500 127.000
59.51000 130.000
59.52500 135.000
59.54000 127.000
59.55500 112.000
59.57000 117.000
59.58500 123.000
59.60000 130.000
59.61500 136.000
59.63000 130.000
59.64500 122.000
59.66000 107.000
59.67500 110.000
59.69000 122.000
59.70500 122.000
59.72000 118.000
59.73500 124.000
59.75000 121.000
59.76500 120.000
59.78000 118.000
59.79500 119.000
59.81000 117.000
59.82500 133.000
59.84000 128.000
59.85500 116.000
59.87000 116.000
59.88500 113.000
59.90000 118.000
59.91500 112.000
59.93000 115.000
59.94500 115.000
59.96000 126.000
59.97500 131.000
59.99000 123.000
60.00500 114.000
60.02000 124.000
60.03500 119.000
60.05000 120.000
60.06500 118.000
60.08000 108.000
60.09500 129.000
60.11000 132.000
60.12500 119.000
60.14000 125.000
60.15500 123.000
60.17000 120.000
60.18500 112.000
60.20000 117.000
60.21500 105.000
60.23000 104.000
60.24500 117.000
60.26000 117.000
60.27500 110.000
60.29000 125.000
60.30500 118.000
60.32000 121.000
60.33500 124.000
60.35000 110.000
60.36500 111.000
60.38000 121.000
60.39500 129.000
60.41000 113.000
60.42500 120.000
60.44000 123.000
60.45500 109.000
60.47000 119.000
60.48500 132.000
60.50000 133.000
60.51500 116.000
60.53000 112.000
60.54500 111.000
60.56000 129.000
60.57500 123.000
60.59000 128.000
60.60500 132.000
60.62000 109.000
60.63500 113.000
60.65000 115.000
60.66500 109.000
60.68000 117.000
60.69500 127.000
60.71000 120.000
60.72500 127.000
60.74000 118.000
60.75500 109.000
60.77000 113.000
60.78500 114.000
60.80000 102.000
60.81500 111.000
60.83000 104.000
60.84500 96.000
60.86000 113.000
60.87500 120.000
60.89000 120.000
60.90500 123.000
60.92000 123.000
60.93500 121.000
60.95000 124.000
60.96500 115.000
60.98000 109.000
60.99500 123.000
61.01000 113.000
61.02500 125.000
61.04000 98.000
61.05500 98.000
61.07000 105.000
61.08500 115.000
61.10000 122.000
61.11500 117.000
61.13000 120.000
61.14500 118.000
61.16000 123.000
61.17500 120.000
61.19000 114.000
61.20500 109.000
61.22000 113.000
61.23500 119.000
61.25000 96.000
61.26500 109.000
61.28000 95.000
61.29500 122.000
61.31000 117.000
61.32500 110.000
61.34000 119.000
61.35500 119.000
61.37000 113.000
61.38500 113.000
61.40000 133.000
61.41500 125.000
61.43000 122.000
61.44500 102.000
61.46000 105.000
61.47500 108.000
61.49000 116.000
61.50500 133.000
61.52000 116.000
61.53500 113.000
61.55000 101.000
61.56500 102.000
61.58000 123.000
61.59500 128.000
61.61000 123.000
61.62500 97.000
61.64000 113.000
61.65500 114.000
61.67000 111.000
61.68500 110.000
61.70000 114.000
61.71500 118.000
61.73000 118.000
61.74500 107.000
61.76000 123.000
61.77500 116.000
61.79000 115.000
61.80500 115.000
61.82000 123.000
61.83500 114.000
61.85000 110.000
61.86500 118.000
61.88000 118.000
61.89500 111.000
61.91000 97.000
61.92500 98.000
61.94000 111.000
61.95500 114.000
61.97000 103.000
61.98500 99.000
