2.00000 565.000
2.01500 572.000
2.03000 542.000
2.04500 572.000
2.06000 530.000
2.07500 525.000
2.09000 532.000
2.10500 496.000
2.12000 506.000
2.13500 461.000
2.15000 444.000
2.16500 443.000
2.18000 476.000
2.19500 425.000
2.21000 415.000
2.22500 451.000
2.24000 422.000
2.25500 437.000
2.27000 404.000
2.28500 393.000
2.30000 381.000
2.31500 381.000
2.33000 365.000
2.34500 389.000
2.36000 373.000
2.37500 350.000
2.39000 375.000
2.40500 354.000
2.42000 333.000
2.43500 328.000
2.45000 332.000
2.46500 338.000
2.48000 341.000
2.49500 331.000
2.51000 310.000
2.52500 312.000
2.54000 319.000
2.55500 343.000
2.57000 318.000
2.58500 288.000
2.60000 291.000
2.61500 316.000
2.63000 281.000
2.64500 271.000
2.66000 283.000
2.67500 277.000
2.69000 262.000
2.70500 255.000
2.72000 256.000
2.73500 265.000
2.75000 284.000
2.76500 274.000
2.78000 253.000
2.79500 263.000
2.81000 256.000
2.82500 274.000
2.84000 254.000
2.85500 257.000
2.87000 256.000
2.88500 257.000
2.90000 263.000
2.91500 248.000
2.93000 251.000
2.94500 249.000
2.96000 257.000
2.97500 262.000
2.99000 228.000
3.00500 236.000
3.02000 234.000
3.03500 242.000
3.05000 217.000
3.06500 225.000
3.08000 228.000
3.09500 237.000
3.11000 225.000
3.12500 227.000
3.14000 198.000
3.15500 201.000
3.17000 197.000
3.18500 214.000
3.20000 230.000
3.21500 256.000
3.23000 229.000
3.24500 199.000
3.26000 221.000
3.27500 222.000
3.29000 222.000
3.30500 200.000
3.32000 219.000
3.33500 226.000
3.35000 197.000
3.36500 209.000
3.38000 196.000
3.39500 202.000
3.41000 208.000
3.42500 183.000
3.44000 183.000
3.45500 195.000
3.47000 217.000
3.48500 219.000
3.50000 198.000
3.51500 222.000
3.53000 223.000
3.54500 231.000
3.56000 210.000
3.57500 192.000
3.59000 185.000
3.60500 209.000
3.62000 176.000
3.63500 198.000
3.65000 218.000
3.66500 214.000
3.68000 209.000
3.69500 201.000
3.71000 183.000
3.72500 190.000
3.74000 221.000
3.75500 200.000
3.77000 198.000
3.78500 207.000
3.80000 198.000
3.81500 179.000
3.83000 195.000
3.84500 189.000
3.86000 200.000
3.87500 191.000
3.89000 214.000
3.90500 188.000
3.92000 209.000
3.93500 210.000
3.95000 190.000
3.96500 184.000
3.98000 179.000
3.99500 188.000
4.01000 190.000
4.02500 188.000
4.04000 216.000
4.05500 223.000
4.07000 186.000
4.08500 186.000
4.10000 200.000
4.11500 202.000
4.13000 206.000
4.14500 199.000
4.16000 180.000
4.17500 189.000
4.19000 201.000
4.20500 195.000
4.22000 192.000
4.23500 196.000
4.25000 181.000
4.26500 196.000
4.28000 190.000
4.29500 186.000
4.31000 170.000
4.32500 195.000
4.34000 195.000
4.35500 183.000
4.37000 165.000
4.38500 182.000
4.40000 175.000
4.41500 179.000
4.43000 176.000
4.44500 196.000
4.46000 193.000
4.47500 198.000
4.49000 183.000
4.50500 182.000
4.52000 192.000
4.53500 183.000
4.55000 182.000
4.56500 195.000
4.58000 178.000
4.59500 181.000
4.61000 196.000
4.62500 187.000
4.64000 176.000
4.65500 171.000
4.67000 168.000
4.68500 169.000
4.70000 189.000
4.71500 182.000
4.73000 189.000
4.74500 182.000
4.76000 181.000
4.77500 201.000
4.79000 167.000
4.80500 177.000
4.82000 171.000
4.83500 183.000
4.85000 174.000
4.86500 176.000
4.88000 178.000
4.89500 172.000
4.91000 176.000
4.92500 173.000
4.94000 180.000
4.95500 184.000
4.97000 196.000
4.98500 185.000
5.00000 186.000
5.01500 171.000
5.03000 171.000
5.04500 183.000
5.06000 171.000
5.07500 171.000
5.09000 164.000
5.10500 167.000
5.12000 173.000
5.13500 178.000
5.15000 156.000
5.16500 186.000
5.18000 168.000
5.19500 178.000
5.21000 174.000
5.22500 200.000
5.24000 200.000
5.25500 165.000
5.27000 181.000
5.28500 179.000
5.30000 183.000
5.31500 193.000
5.33000 173.000
5.34500 186.000
5.36000 181.000
5.37500 176.000
5.39000 201.000
5.40500 193.000
5.42000 172.000
5.43500 176.000
5.45000 164.000
5.46500 171.000
5.48000 164.000
5.49500 188.000
5.51000 201.000
5.52500 184.000
5.54000 193.000
5.55500 182.000
5.57000 207.000
5.58500 201.000
5.60000 186.000
5.61500 196.000
5.63000 200.000
5.64500 175.000
5.66000 171.000
5.67500 178.000
5.69000 180.000
5.70500 179.000
5.72000 184.000
5.73500 176.000
5.75000 187.000
5.76500 181.000
5.78000 180.000
5.79500 194.000
5.81000 193.000
5.82500 186.000
5.84000 200.000
5.85500 208.000
5.87000 200.000
5.88500 203.000
5.90000 229.000
5.91500 232.000
5.93000 223.000
5.94500 211.000
5.96000 235.000
5.97500 257.000
5.99000 253.000
6.00500 289.000
6.02000 289.000
6.03500 295.000
6.05000 308.000
6.06500 318.000
6.08000 336.000
6.09500 398.000
6.11000 476.000
6.12500 491.000
6.14000 510.000
6.15500 562.000
6.17000 496.000
6.18500 352.000
6.20000 285.000
6.21500 247.000
6.23000 250.000
6.24500 202.000
6.26000 191.000
6.27500 194.000
6.29000 193.000
6.30500 205.000
6.32000 209.000
6.33500 179.000
6.35000 186.000
6.36500 194.000
6.38000 193.000
6.39500 184.000
6.41000 171.000
6.42500 193.000
6.44000 183.000
6.45500 184.000
6.47000 174.000
6.48500 174.000
6.50000 178.000
6.51500 199.000
6.53000 184.000
6.54500 179.000
6.56000 188.000
6.57500 177.000
6.59000 175.000
6.60500 176.000
6.62000 185.000
6.63500 184.000
6.65000 189.000
6.66500 168.000
6.68000 162.000
6.69500 179.000
6.71000 191.000
6.72500 189.000
6.74000 173.000
6.75500 157.000
6.77000 166.000
6.78500 175.000
6.80000 172.000
6.81500 179.000
6.83000 171.000
6.84500 172.000
6.86000 183.000
6.87500 160.000
6.89000 149.000
6.90500 156.000
6.92000 166.000
6.93500 176.000
6.95000 201.000
6.96500 175.000
6.98000 186.000
6.99500 189.000
7.01000 201.000
7.02500 183.000
7.04000 192.000
7.05500 167.000
7.07000 181.000
7.08500 197.000
7.10000 172.000
7.11500 167.000
7.13000 163.000
7.14500 176.000
7.16000 175.000
7.17500 176.000
7.19000 183.000
7.20500 177.000
7.22000 171.000
7.23500 207.000
7.25000 203.000
7.26500 198.000
7.28000 182.000
7.29500 177.000
7.31000 171.000
7.32500 170.000
7.34000 175.000
7.35500 178.000
7.37000 162.000
7.38500 188.000
7.40000 204.000
7.41500 165.000
7.43000 173.000
7.44500 173.000
7.46000 158.000
7.47500 167.000
7.49000 157.000
7.50500 150.000
7.52000 170.000
7.53500 184.000
7.55000 172.000
7.56500 160.000
7.58000 203.000
7.59500 185.000
7.61000 175.000
7.62500 176.000
7.64000 188.000
7.65500 190.000
7.67000 174.000
7.68500 181.000
7.70000 190.000
7.71500 184.000
7.73000 179.000
7.74500 170.000
7.76000 174.000
7.77500 190.000
7.79000 183.000
7.80500 176.000
7.82000 189.000
7.83500 181.000
7.85000 165.000
7.86500 151.000
7.88000 183.000
7.89500 167.000
7.91000 180.000
7.92500 184.000
7.94000 177.000
7.95500 178.000
7.97000 180.000
7.98500 179.000
8.00000 177.000
8.01500 189.000
8.03000 176.000
8.04500 181.000
8.06000 201.000
8.07500 184.000
8.09000 179.000
8.10500 185.000
8.12000 168.000
8.13500 173.000
8.15000 156.000
8.16500 175.000
8.18000 182.000
8.19500 187.000
8.21000 183.000
8.22500 184.000
8.24000 174.000
8.25500 174.000
8.27000 169.000
8.28500 195.000
8.30000 184.000
8.31500 170.000
8.33000 180.000
8.34500 185.000
8.36000 201.000
8.37500 176.000
8.39000 165.000
8.40500 180.000
8.42000 204.000
8.43500 189.000
8.45000 172.000
8.46500 167.000
8.48000 182.000
8.49500 192.000
8.51000 193.000
8.52500 184.000
8.54000 180.000
8.55500 173.000
8.57000 179.000
8.58500 183.000
8.60000 189.000
8.61500 184.000
8.63000 187.000
8.64500 179.000
8.66000 166.000
8.67500 171.000
8.69000 175.000
8.70500 170.000
8.72000 175.000
8.73500 182.000
8.75000 173.000
8.76500 190.000
8.78000 177.000
8.79500 153.000
8.81000 165.000
8.82500 185.000
8.84000 177.000
8.85500 185.000
8.87000 187.000
8.88500 181.000
8.90000 186.000
8.91500 185.000
8.93000 174.000
8.94500 188.000
8.96000 181.000
8.97500 184.000
8.99000 195.000
9.00500 183.000
9.02000 179.000
9.03500 173.000
9.05000 170.000
9.06500 164.000
9.08000 186.000
9.09500 179.000
9.11000 193.000
9.12500 188.000
9.14000 174.000
9.15500 177.000
9.17000 177.000
9.18500 170.000
9.20000 174.000
9.21500 180.000
9.23000 157.000
9.24500 168.000
9.26000 169.000
9.27500 179.000
9.29000 185.000
9.30500 165.000
9.32000 180.000
9.33500 177.000
9.35000 169.000
9.36500 167.000
9.38000 175.000
9.39500 187.000
9.41000 179.000
9.42500 174.000
9.44000 156.000
9.45500 194.000
9.47000 187.000
9.48500 185.000
9.50000 174.000
9.51500 184.000
9.53000 179.000
9.54500 179.000
9.56000 166.000
9.57500 182.000
9.59000 178.000
9.60500 182.000
9.62000 188.000
9.63500 175.000
9.65000 162.000
9.66500 188.000
9.68000 184.000
9.69500 163.000
9.71000 184.000
9.72500 188.000
9.74000 179.000
9.75500 198.000
9.77000 193.000
9.78500 176.000
9.80000 187.000
9.81500 185.000
9.83000 172.000
9.84500 171.000
9.86000 182.000
9.87500 184.000
9.89000 171.000
9.90500 189.000
9.92000 191.000
9.93500 181.000
9.95000 200.000
9.96500 186.000
9.98000 185.000
9.99500 183.000
10.01000 187.000
10.02500 170.000
10.04000 188.000
10.05500 181.000
10.07000 169.000
10.08500 168.000
10.10000 165.000
10.11500 173.000
10.13000 171.000
10.14500 183.000
10.16000 188.000
10.17500 187.000
10.19000 177.000
10.20500 181.000
10.22000 182.000
10.23500 189.000
10.25000 189.000
10.26500 181.000
10.28000 185.000
10.29500 187.000
10.31000 182.000
10.32500 187.000
10.34000 191.000
10.35500 197.000
10.37000 179.000
10.38500 175.000
10.40000 183.000
10.41500 192.000
10.43000 212.000
10.44500 192.000
10.46000 174.000
10.47500 163.000
10.49000 164.000
10.50500 181.000
10.52000 181.000
10.53500 190.000
10.55000 207.000
10.56500 193.000
10.58000 184.000
10.59500 199.000
10.61000 206.000
10.62500 206.000
10.64000 186.000
10.65500 168.000
10.67000 190.000
10.68500 186.000
10.70000 186.000
10.71500 192.000
10.73000 186.000
10.74500 186.000
10.76000 204.000
10.77500 171.000
10.79000 193.000
10.80500 202.000
10.82000 192.000
10.83500 192.000
10.85000 177.000
10.86500 180.000
10.88000 208.000
10.89500 208.000
10.91000 185.000
10.92500 190.000
10.94000 211.000
10.95500 208.000
10.97000 187.000
10.98500 206.000
11.00000 192.000
11.01500 200.000
11.03000 199.000
11.04500 181.000
11.06000 189.000
11.07500 213.000
11.09000 199.000
11.10500 187.000
11.12000 187.000
11.13500 187.000
11.15000 210.000
11.16500 205.000
11.18000 196.000
11.19500 212.000
11.21000 200.000
11.22500 211.000
11.24000 199.000
11.25500 211.000
11.27000 186.000
11.28500 176.000
11.30000 193.000
11.31500 196.000
11.33000 179.000
11.34500 197.000
11.36000 190.000
11.37500 180.000
11.39000 183.000
11.40500 196.000
11.42000 211.000
11.43500 202.000
11.45000 174.000
11.46500 203.000
11.48000 187.000
11.49500 176.000
11.51000 190.000
11.52500 182.000
11.54000 197.000
11.55500 204.000
11.57000 190.000
11.58500 189.000
11.60000 214.000
11.61500 208.000
11.63000 184.000
11.64500 181.000
11.66000 182.000
11.67500 190.000
11.69000 168.000
11.70500 189.000
11.72000 203.000
11.73500 203.000
11.75000 210.000
11.76500 183.000
11.78000 216.000
11.79500 206.000
11.81000 219.000
11.82500 196.000
11.84000 211.000
11.85500 209.000
11.87000 221.000
11.88500 234.000
11.90000 197.000
11.91500 210.000
11.93000 234.000
11.94500 235.000
11.96000 225.000
11.97500 219.000
11.99000 225.000
12.00500 245.000
12.02000 282.000
12.03500 286.000
12.05000 269.000
12.06500 320.000
12.08000 326.000
12.09500 346.000
12.11000 381.000
12.12500 459.000
12.14000 460.000
12.15500 550.000
12.17000 628.000
12.18500 720.000
12.20000 833.000
12.21500 901.000
12.23000 1005.000
12.24500 1067.000
12.26000 1129.000
12.27500 1142.000
12.29000 1251.000
12.30500 1280.000
12.32000 1281.000
12.33500 1131.000
12.35000 879.000
12.36500 639.000
12.38000 453.000
12.39500 396.000
12.41000 353.000
12.42500 321.000
12.44000 323.000
12.45500 304.000
12.47000 317.000
12.48500 298.000
12.50000 292.000
12.51500 300.000
12.53000 272.000
12.54500 289.000
12.56000 314.000
12.57500 269.000
12.59000 282.000
12.60500 260.000
12.62000 276.000
12.63500 271.000
12.65000 270.000
12.66500 265.000
12.68000 259.000
12.69500 283.000
12.71000 267.000
12.72500 260.000
12.74000 248.000
12.75500 260.000
12.77000 249.000
12.78500 256.000
12.80000 256.000
12.81500 278.000
12.83000 255.000
12.84500 266.000
12.86000 270.000
12.87500 265.000
12.89000 278.000
12.90500 261.000
12.92000 246.000
12.93500 268.000
12.95000 261.000
12.96500 246.000
12.98000 253.000
12.99500 241.000
13.01000 244.000
13.02500 246.000
13.04000 259.000
13.05500 263.000
13.07000 250.000
13.08500 246.000
13.10000 248.000
13.11500 245.000
13.13000 256.000
13.14500 263.000
13.16000 269.000
13.17500 266.000
13.19000 259.000
13.20500 267.000
13.22000 290.000
13.23500 271.000
13.25000 277.000
13.26500 279.000
13.28000 303.000
13.29500 308.000
13.31000 304.000
13.32500 330.000
13.34000 349.000
13.35500 345.000
13.37000 356.000
13.38500 375.000
13.40000 364.000
13.41500 366.000
13.43000 416.000
13.44500 350.000
13.46000 332.000
13.47500 310.000
13.49000 288.000
13.50500 283.000
13.52000 273.000
13.53500 261.000
13.55000 244.000
13.56500 255.000
13.58000 283.000
13.59500 274.000
13.61000 263.000
13.62500 256.000
13.64000 265.000
13.65500 247.000
13.67000 238.000
13.68500 255.000
13.70000 266.000
13.71500 225.000
13.73000 240.000
13.74500 234.000
13.76000 250.000
13.77500 239.000
13.79000 219.000
13.80500 221.000
13.82000 227.000
13.83500 223.000
13.85000 237.000
13.86500 250.000
13.88000 209.000
13.89500 215.000
13.91000 227.000
13.92500 223.000
13.94000 218.000
13.95500 225.000
13.97000 233.000
13.98500 230.000
14.00000 195.000
14.01500 202.000
14.03000 222.000
14.04500 219.000
14.06000 216.000
14.07500 237.000
14.09000 225.000
14.10500 225.000
14.12000 212.000
14.13500 212.000
14.15000 214.000
14.16500 228.000
14.18000 231.000
14.19500 225.000
14.21000 230.000
14.22500 220.000
14.24000 229.000
14.25500 206.000
14.27000 240.000
14.28500 212.000
14.30000 225.000
14.31500 228.000
14.33000 219.000
14.34500 209.000
14.36000 216.000
14.37500 222.000
14.39000 230.000
14.40500 217.000
14.42000 209.000
14.43500 211.000
14.45000 223.000
14.46500 213.000
14.48000 220.000
14.49500 231.000
14.51000 216.000
14.52500 228.000
14.54000 242.000
14.55500 207.000
14.57000 227.000
14.58500 221.000
14.60000 214.000
14.61500 213.000
14.63000 222.000
14.64500 220.000
14.66000 216.000
14.67500 220.000
14.69000 210.000
14.70500 191.000
14.72000 221.000
14.73500 198.000
14.75000 191.000
14.76500 236.000
14.78000 231.000
14.79500 212.000
14.81000 213.000
14.82500 199.000
14.84000 224.000
14.85500 199.000
14.87000 210.000
14.88500 219.000
14.90000 214.000
14.91500 217.000
14.93000 219.000
14.94500 227.000
14.96000 235.000
14.97500 234.000
14.99000 222.000
15.00500 217.000
15.02000 218.000
15.03500 211.000
15.05000 208.000
15.06500 211.000
15.08000 224.000
15.09500 212.000
15.11000 208.000
15.12500 231.000
15.14000 230.000
15.15500 203.000
15.17000 222.000
15.18500 215.000
15.20000 198.000
15.21500 225.000
15.23000 217.000
15.24500 200.000
15.26000 189.000
15.27500 206.000
15.29000 217.000
15.30500 220.000
15.32000 218.000
15.33500 211.000
15.35000 206.000
15.36500 191.000
15.38000 209.000
15.39500 222.000
15.41000 221.000
15.42500 215.000
15.44000 204.000
15.45500 209.000
15.47000 211.000
15.48500 226.000
15.50000 194.000
15.51500 211.000
15.53000 257.000
15.54500 208.000
15.56000 216.000
15.57500 217.000
15.59000 210.000
15.60500 204.000
15.62000 223.000
15.63500 216.000
15.65000 212.000
15.66500 228.000
15.68000 234.000
15.69500 210.000
15.71000 233.000
15.72500 219.000
15.74000 216.000
15.75500 207.000
15.77000 205.000
15.78500 193.000
15.80000 169.000
15.81500 184.000
15.83000 213.000
15.84500 238.000
15.86000 235.000
15.87500 219.000
15.89000 205.000
15.90500 219.000
15.92000 238.000
15.93500 219.000
15.95000 205.000
15.96500 209.000
15.98000 227.000
15.99500 233.000
16.01000 215.000
16.02500 214.000
16.04000 218.000
16.05500 232.000
16.07000 207.000
16.08500 216.000
16.10000 230.000
16.11500 204.000
16.13000 188.000
16.14500 210.000
16.16000 210.000
16.17500 201.000
16.19000 210.000
16.20500 224.000
16.22000 222.000
16.23500 246.000
16.25000 226.000
16.26500 244.000
16.28000 235.000
16.29500 253.000
16.31000 238.000
16.32500 214.000
16.34000 237.000
16.35500 215.000
16.37000 241.000
16.38500 243.000
16.40000 256.000
16.41500 232.000
16.43000 245.000
16.44500 251.000
16.46000 237.000
16.47500 239.000
16.49000 260.000
16.50500 230.000
16.52000 246.000
16.53500 252.000
16.55000 236.000
16.56500 235.000
16.58000 234.000
16.59500 248.000
16.61000 238.000
16.62500 231.000
16.64000 203.000
16.65500 236.000
16.67000 239.000
16.68500 226.000
16.70000 229.000
16.71500 214.000
16.73000 212.000
16.74500 223.000
16.76000 231.000
16.77500 226.000
16.79000 230.000
16.80500 237.000
16.82000 222.000
16.83500 235.000
16.85000 225.000
16.86500 229.000
16.88000 251.000
16.89500 254.000
16.91000 264.000
16.92500 215.000
16.94000 227.000
16.95500 235.000
16.97000 238.000
16.98500 230.000
17.00000 248.000
17.01500 243.000
17.03000 226.000
17.04500 213.000
17.06000 225.000
17.07500 224.000
17.09000 237.000
17.10500 232.000
17.12000 258.000
17.13500 222.000
17.15000 235.000
17.16500 227.000
17.18000 222.000
17.19500 232.000
17.21000 215.000
17.22500 218.000
17.24000 234.000
17.25500 222.000
17.27000 227.000
17.28500 224.000
17.30000 241.000
17.31500 247.000
17.33000 229.000
17.34500 221.000
17.36000 257.000
17.37500 245.000
17.39000 231.000
17.40500 204.000
17.42000 227.000
17.43500 218.000
17.45000 221.000
17.46500 231.000
17.48000 231.000
17.49500 239.000
17.51000 225.000
17.52500 230.000
17.54000 241.000
17.55500 241.000
17.57000 234.000
17.58500 219.000
17.60000 218.000
17.61500 222.000
17.63000 233.000
17.64500 254.000
17.66000 268.000
17.67500 254.000
17.69000 243.000
17.70500 212.000
17.72000 232.000
17.73500 226.000
17.75000 237.000
17.76500 224.000
17.78000 256.000
17.79500 260.000
17.81000 225.000
17.82500 233.000
17.84000 233.000
17.85500 245.000
17.87000 250.000
17.88500 255.000
17.90000 254.000
17.91500 226.000
17.93000 220.000
17.94500 229.000
17.96000 252.000
17.97500 244.000
17.99000 256.000
18.00500 271.000
18.02000 275.000
18.03500 271.000
18.05000 275.000
18.06500 280.000
18.08000 256.000
18.09500 284.000
18.11000 302.000
18.12500 264.000
18.14000 257.000
18.15500 270.000
18.17000 256.000
18.18500 265.000
18.20000 238.000
18.21500 236.000
18.23000 247.000
18.24500 242.000
18.26000 220.000
18.27500 214.000
18.29000 237.000
18.30500 227.000
18.32000 229.000
18.33500 249.000
18.35000 239.000
18.36500 236.000
18.38000 261.000
18.39500 256.000
18.41000 251.000
18.42500 260.000
18.44000 255.000
18.45500 253.000
18.47000 273.000
18.48500 270.000
18.50000 267.000
18.51500 274.000
18.53000 287.000
18.54500 279.000
18.56000 289.000
18.57500 287.000
18.59000 249.000
18.60500 228.000
18.62000 256.000
18.63500 233.000
18.65000 245.000
18.66500 209.000
18.68000 252.000
18.69500 261.000
18.71000 232.000
18.72500 247.000
18.74000 246.000
18.75500 246.000
18.77000 243.000
18.78500 258.000
18.80000 259.000
18.81500 259.000
18.83000 264.000
18.84500 233.000
18.86000 249.000
18.87500 251.000
18.89000 250.000
18.90500 242.000
18.92000 248.000
18.93500 261.000
18.95000 232.000
18.96500 234.000
18.98000 259.000
18.99500 231.000
19.01000 247.000
19.02500 254.000
19.04000 241.000
19.05500 249.000
19.07000 235.000
19.08500 212.000
19.10000 232.000
19.11500 242.000
19.13000 245.000
19.14500 256.000
19.16000 252.000
19.17500 243.000
19.19000 251.000
19.20500 259.000
19.22000 229.000
19.23500 231.000
19.25000 251.000
19.26500 238.000
19.28000 266.000
19.29500 247.000
19.31000 259.000
19.32500 272.000
19.34000 272.000
19.35500 290.000
19.37000 296.000
19.38500 299.000
19.40000 295.000
19.41500 261.000
19.43000 291.000
19.44500 283.000
19.46000 305.000
19.47500 309.000
19.49000 313.000
19.50500 321.000
19.52000 288.000
19.53500 286.000
19.55000 287.000
19.56500 273.000
19.58000 271.000
19.59500 302.000
19.61000 355.000
19.62500 330.000
19.64000 314.000
19.65500 297.000
19.67000 278.000
19.68500 248.000
19.70000 247.000
19.71500 253.000
19.73000 260.000
19.74500 252.000
19.76000 245.000
19.77500 281.000
19.79000 257.000
19.80500 230.000
19.82000 261.000
19.83500 258.000
19.85000 249.000
19.86500 253.000
19.88000 252.000
19.89500 250.000
19.91000 239.000
19.92500 249.000
19.94000 246.000
19.95500 241.000
19.97000 259.000
19.98500 234.000
20.00000 260.000
20.01500 265.000
20.03000 252.000
20.04500 262.000
20.06000 253.000
20.07500 250.000
20.09000 258.000
20.10500 244.000
20.12000 263.000
20.13500 263.000
20.15000 238.000
20.16500 229.000
20.18000 233.000
20.19500 237.000
20.21000 254.000
20.22500 256.000
20.24000 259.000
20.25500 237.000
20.27000 255.000
20.28500 242.000
20.30000 241.000
20.31500 250.000
20.33000 257.000
20.34500 259.000
20.36000 250.000
20.37500 223.000
20.39000 256.000
20.40500 255.000
20.42000 253.000
20.43500 241.000
20.45000 233.000
20.46500 239.000
20.48000 239.000
20.49500 237.000
20.51000 264.000
20.52500 237.000
20.54000 258.000
20.55500 259.000
20.57000 274.000
20.58500 264.000
20.60000 258.000
20.61500 256.000
20.63000 262.000
20.64500 250.000
20.66000 272.000
20.67500 264.000
20.69000 265.000
20.70500 239.000
20.72000 254.000
20.73500 254.000
20.75000 275.000
20.76500 263.000
20.78000 251.000
20.79500 267.000
20.81000 269.000
20.82500 261.000
20.84000 242.000
20.85500 249.000
20.87000 253.000
20.88500 265.000
20.90000 251.000
20.91500 250.000
20.93000 252.000
20.94500 263.000
20.96000 260.000
20.97500 261.000
20.99000 254.000
21.00500 233.000
21.02000 276.000
21.03500 270.000
21.05000 228.000
21.06500 246.000
21.08000 266.000
21.09500 249.000
21.11000 252.000
21.12500 268.000
21.14000 261.000
21.15500 266.000
21.17000 249.000
21.18500 276.000
21.20000 249.000
21.21500 260.000
21.23000 264.000
21.24500 267.000
21.26000 262.000
21.27500 257.000
21.29000 243.000
21.30500 294.000
21.32000 282.000
21.33500 264.000
21.35000 249.000
21.36500 228.000
21.38000 266.000
21.39500 275.000
21.41000 295.000
21.42500 264.000
21.44000 264.000
21.45500 269.000
21.47000 283.000
21.48500 269.000
21.50000 273.000
21.51500 294.000
21.53000 273.000
21.54500 275.000
21.56000 300.000
21.57500 283.000
21.59000 280.000
21.60500 280.000
21.62000 280.000
21.63500 284.000
21.65000 274.000
21.66500 290.000
21.68000 290.000
21.69500 275.000
21.71000 275.000
21.72500 267.000
21.74000 274.000
21.75500 260.000
21.77000 296.000
21.78500 275.000
21.80000 266.000
21.81500 271.000
21.83000 268.000
21.84500 275.000
21.86000 285.000
21.87500 275.000
21.89000 259.000
21.90500 279.000
21.92000 264.000
21.93500 288.000
21.95000 289.000
21.96500 259.000
21.98000 284.000
21.99500 284.000
22.01000 257.000
22.02500 279.000
22.04000 302.000
22.05500 298.000
22.07000 290.000
22.08500 299.000
22.10000 296.000
22.11500 303.000
22.13000 303.000
22.14500 294.000
22.16000 306.000
22.17500 308.000
22.19000 292.000
22.20500 296.000
22.22000 286.000
22.23500 275.000
22.25000 268.000
22.26500 273.000
22.28000 269.000
22.29500 269.000
22.31000 257.000
22.32500 273.000
22.34000 277.000
22.35500 247.000
22.37000 272.000
22.38500 281.000
22.40000 294.000
22.41500 262.000
22.43000 252.000
22.44500 252.000
22.46000 283.000
22.47500 281.000
22.49000 289.000
22.50500 262.000
22.52000 282.000
22.53500 278.000
22.55000 255.000
22.56500 267.000
22.58000 267.000
22.59500 269.000
22.61000 286.000
22.62500 279.000
22.64000 275.000
22.65500 281.000
22.67000 269.000
22.68500 267.000
22.70000 276.000
22.71500 279.000
22.73000 264.000
22.74500 257.000
22.76000 253.000
22.77500 272.000
22.79000 272.000
22.80500 281.000
22.82000 280.000
22.83500 293.000
22.85000 263.000
22.86500 271.000
22.88000 282.000
22.89500 254.000
22.91000 263.000
22.92500 266.000
22.94000 275.000
22.95500 300.000
22.97000 277.000
22.98500 265.000
23.00000 254.000
23.01500 279.000
23.03000 273.000
23.04500 281.000
23.06000 297.000
23.07500 282.000
23.09000 281.000
23.10500 280.000
23.12000 277.000
23.13500 282.000
23.15000 268.000
23.16500 293.000
23.18000 292.000
23.19500 294.000
23.21000 303.000
23.22500 293.000
23.24000 303.000
23.25500 283.000
23.27000 276.000
23.28500 302.000
23.30000 285.000
23.31500 278.000
23.33000 269.000
23.34500 297.000
23.36000 298.000
23.37500 286.000
23.39000 294.000
23.40500 302.000
23.42000 303.000
23.43500 292.000
23.45000 286.000
23.46500 296.000
23.48000 292.000
23.49500 287.000
23.51000 285.000
23.52500 306.000
23.54000 295.000
23.55500 292.000
23.57000 295.000
23.58500 294.000
23.60000 286.000
23.61500 300.000
23.63000 267.000
23.64500 269.000
23.66000 272.000
23.67500 273.000
23.69000 301.000
23.70500 281.000
23.72000 298.000
23.73500 305.000
23.75000 287.000
23.76500 260.000
23.78000 287.000
23.79500 288.000
23.81000 269.000
23.82500 252.000
23.84000 285.000
23.85500 284.000
23.87000 278.000
23.88500 280.000
23.90000 307.000
23.91500 264.000
23.93000 266.000
23.94500 276.000
23.96000 262.000
23.97500 296.000
23.99000 286.000
24.00500 261.000
24.02000 263.000
24.03500 258.000
24.05000 291.000
24.06500 299.000
24.08000 268.000
24.09500 304.000
24.11000 283.000
24.12500 277.000
24.14000 288.000
24.15500 279.000
24.17000 276.000
24.18500 266.000
24.20000 288.000
24.21500 290.000
24.23000 271.000
24.24500 267.000
24.26000 267.000
24.27500 249.000
24.29000 262.000
24.30500 294.000
24.32000 270.000
24.33500 243.000
24.35000 269.000
24.36500 270.000
24.38000 265.000
24.39500 254.000
24.41000 264.000
24.42500 286.000
24.44000 287.000
24.45500 301.000
24.47000 286.000
24.48500 292.000
24.50000 272.000
24.51500 269.000
24.53000 291.000
24.54500 304.000
24.56000 295.000
24.57500 299.000
24.59000 288.000
24.60500 295.000
24.62000 292.000
24.63500 284.000
24.65000 302.000
24.66500 328.000
24.68000 307.000
24.69500 302.000
24.71000 299.000
24.72500 323.000
24.74000 320.000
24.75500 322.000
24.77000 329.000
24.78500 335.000
24.80000 367.000
24.81500 328.000
24.83000 301.000
24.84500 304.000
24.86000 320.000
24.87500 316.000
24.89000 303.000
24.90500 306.000
24.92000 322.000
24.93500 317.000
24.95000 297.000
24.96500 280.000
24.98000 285.000
24.99500 312.000
25.01000 305.000
25.02500 315.000
25.04000 295.000
25.05500 309.000
25.07000 305.000
25.08500 283.000
25.10000 305.000
25.11500 326.000
25.13000 326.000
25.14500 307.000
25.16000 318.000
25.17500 313.000
25.19000 311.000
25.20500 324.000
25.22000 353.000
25.23500 350.000
25.25000 349.000
25.26500 312.000
25.28000 326.000
25.29500 302.000
25.31000 316.000
25.32500 319.000
25.34000 327.000
25.35500 333.000
25.37000 305.000
25.38500 323.000
25.40000 325.000
25.41500 303.000
25.43000 316.000
25.44500 337.000
25.46000 341.000
25.47500 294.000
25.49000 315.000
25.50500 315.000
25.52000 309.000
25.53500 324.000
25.55000 327.000
25.56500 326.000
25.58000 345.000
25.59500 363.000
25.61000 336.000
25.62500 322.000
25.64000 352.000
25.65500 359.000
25.67000 338.000
25.68500 372.000
25.70000 376.000
25.71500 406.000
25.73000 445.000
25.74500 455.000
25.76000 488.000
25.77500 486.000
25.79000 457.000
25.80500 493.000
25.82000 466.000
25.83500 487.000
25.85000 489.000
25.86500 441.000
25.88000 422.000
25.89500 419.000
25.91000 409.000
25.92500 405.000
25.94000 385.000
25.95500 382.000
25.97000 377.000
25.98500 364.000
26.00000 362.000
26.01500 400.000
26.03000 408.000
26.04500 376.000
26.06000 377.000
26.07500 372.000
26.09000 396.000
26.10500 389.000
26.12000 405.000
26.13500 410.000
26.15000 424.000
26.16500 420.000
26.18000 448.000
26.19500 441.000
26.21000 432.000
26.22500 439.000
26.24000 490.000
26.25500 525.000
26.27000 522.000
26.28500 524.000
26.30000 563.000
26.31500 539.000
26.33000 557.000
26.34500 580.000
26.36000 586.000
26.37500 545.000
26.39000 513.000
26.40500 539.000
26.42000 512.000
26.43500 525.000
26.45000 524.000
26.46500 477.000
26.48000 492.000
26.49500 507.000
26.51000 500.000
26.52500 471.000
26.54000 461.000
26.55500 475.000
26.57000 494.000
26.58500 481.000
26.60000 490.000
26.61500 502.000
26.63000 468.000
26.64500 473.000
26.66000 504.000
26.67500 493.000
26.69000 507.000
26.70500 514.000
26.72000 534.000
26.73500 545.000
26.75000 583.000
26.76500 545.000
26.78000 572.000
26.79500 561.000
26.81000 581.000
26.82500 620.000
26.84000 599.000
26.85500 574.000
26.87000 599.000
26.88500 557.000
26.90000 570.000
26.91500 532.000
26.93000 552.000
26.94500 559.000
26.96000 641.000
26.97500 610.000
26.99000 588.000
27.00500 645.000
27.02000 666.000
27.03500 681.000
27.05000 646.000
27.06500 669.000
27.08000 703.000
27.09500 720.000
27.11000 740.000
27.12500 739.000
27.14000 727.000
27.15500 786.000
27.17000 796.000
27.18500 706.000
27.20000 790.000
27.21500 742.000
27.23000 700.000
27.24500 687.000
27.26000 670.000
27.27500 692.000
27.29000 742.000
27.30500 707.000
27.32000 715.000
27.33500 721.000
27.35000 674.000
27.36500 647.000
27.38000 669.000
27.39500 718.000
27.41000 711.000
27.42500 702.000
27.44000 673.000
27.45500 671.000
27.47000 673.000
27.48500 686.000
27.50000 658.000
27.51500 706.000
27.53000 631.000
27.54500 669.000
27.56000 760.000
27.57500 737.000
27.59000 722.000
27.60500 689.000
27.62000 703.000
27.63500 717.000
27.65000 683.000
27.66500 743.000
27.68000 749.000
27.69500 818.000
27.71000 797.000
27.72500 754.000
27.74000 778.000
27.75500 803.000
27.77000 799.000
27.78500 837.000
27.80000 830.000
27.81500 849.000
27.83000 818.000
27.84500 855.000
27.86000 836.000
27.87500 740.000
27.89000 719.000
27.90500 696.000
27.92000 663.000
27.93500 659.000
27.95000 579.000
27.96500 572.000
27.98000 575.000
27.99500 505.000
28.01000 515.000
28.02500 541.000
28.04000 467.000
28.05500 504.000
28.07000 488.000
28.08500 455.000
28.10000 449.000
28.11500 429.000
28.13000 431.000
28.14500 428.000
28.16000 425.000
28.17500 418.000
28.19000 406.000
28.20500 401.000
28.22000 389.000
28.23500 387.000
28.25000 404.000
28.26500 353.000
28.28000 374.000
28.29500 368.000
28.31000 368.000
28.32500 389.000
28.34000 364.000
28.35500 335.000
28.37000 353.000
28.38500 350.000
28.40000 359.000
28.41500 361.000
28.43000 357.000
28.44500 348.000
28.46000 311.000
28.47500 355.000
28.49000 362.000
28.50500 326.000
28.52000 310.000
28.53500 332.000
28.55000 317.000
28.56500 323.000
28.58000 300.000
28.59500 311.000
28.61000 311.000
28.62500 301.000
28.64000 312.000
28.65500 302.000
28.67000 324.000
28.68500 307.000
28.70000 293.000
28.71500 284.000
28.73000 290.000
28.74500 296.000
28.76000 287.000
28.77500 326.000
28.79000 286.000
28.80500 297.000
28.82000 307.000
28.83500 315.000
28.85000 319.000
28.86500 307.000
28.88000 307.000
28.89500 292.000
28.91000 311.000
28.92500 283.000
28.94000 297.000
28.95500 292.000
28.97000 278.000
28.98500 283.000
29.00000 298.000
29.01500 293.000
29.03000 265.000
29.04500 277.000
29.06000 290.000
29.07500 257.000
29.09000 276.000
29.10500 293.000
29.12000 269.000
29.13500 248.000
29.15000 281.000
29.16500 296.000
29.18000 296.000
29.19500 299.000
29.21000 296.000
29.22500 287.000
29.24000 267.000
29.25500 246.000
29.27000 243.000
29.28500 252.000
29.30000 246.000
29.31500 258.000
29.33000 264.000
29.34500 266.000
29.36000 267.000
29.37500 264.000
29.39000 260.000
29.40500 248.000
29.42000 242.000
29.43500 241.000
29.45000 247.000
29.46500 264.000
29.48000 255.000
29.49500 246.000
29.51000 247.000
29.52500 265.000
29.54000 265.000
29.55500 238.000
29.57000 265.000
29.58500 245.000
29.60000 250.000
29.61500 273.000
29.63000 256.000
29.64500 253.000
29.66000 239.000
29.67500 245.000
29.69000 221.000
29.70500 238.000
29.72000 246.000
29.73500 264.000
29.75000 237.000
29.76500 241.000
29.78000 231.000
29.79500 251.000
29.81000 239.000
29.82500 222.000
29.84000 236.000
29.85500 253.000
29.87000 240.000
29.88500 235.000
29.90000 256.000
29.91500 248.000
29.93000 255.000
29.94500 247.000
29.96000 255.000
29.97500 245.000
29.99000 261.000
30.00500 265.000
30.02000 244.000
30.03500 262.000
30.05000 273.000
30.06500 280.000
30.08000 264.000
30.09500 281.000
30.11000 278.000
30.12500 238.000
30.14000 247.000
30.15500 271.000
30.17000 248.000
30.18500 261.000
30.20000 252.000
30.21500 245.000
30.23000 255.000
30.24500 239.000
30.26000 201.000
30.27500 237.000
30.29000 228.000
30.30500 228.000
30.32000 240.000
30.33500 259.000
30.35000 254.000
30.36500 239.000
30.38000 235.000
30.39500 219.000
30.41000 221.000
30.42500 222.000
30.44000 225.000
30.45500 225.000
30.47000 220.000
30.48500 227.000
30.50000 195.000
30.51500 216.000
30.53000 222.000
30.54500 227.000
30.56000 224.000
30.57500 231.000
30.59000 229.000
30.60500 230.000
30.62000 232.000
30.63500 237.000
30.65000 242.000
30.66500 247.000
30.68000 209.000
30.69500 239.000
30.71000 254.000
30.72500 257.000
30.74000 280.000
30.75500 248.000
30.77000 242.000
30.78500 242.000
30.80000 262.000
30.81500 253.000
30.83000 233.000
30.84500 242.000
30.86000 238.000
30.87500 228.000
30.89000 236.000
30.90500 252.000
30.92000 250.000
30.93500 261.000
30.95000 247.000
30.96500 243.000
30.98000 251.000
30.99500 236.000
31.01000 249.000
31.02500 264.000
31.04000 252.000
31.05500 276.000
31.07000 282.000
31.08500 296.000
31.10000 313.000
31.11500 315.000
31.13000 310.000
31.14500 325.000
31.16000 272.000
31.17500 279.000
31.19000 240.000
31.20500 229.000
31.22000 246.000
31.23500 226.000
31.25000 224.000
31.26500 231.000
31.28000 206.000
31.29500 236.000
31.31000 228.000
31.32500 209.000
31.34000 230.000
31.35500 208.000
31.37000 216.000
31.38500 219.000
31.40000 207.000
31.41500 203.000
31.43000 221.000
31.44500 192.000
31.46000 224.000
31.47500 227.000
31.49000 227.000
31.50500 222.000
31.52000 209.000
31.53500 198.000
31.55000 212.000
31.56500 217.000
31.58000 224.000
31.59500 229.000
31.61000 216.000
31.62500 203.000
31.64000 223.000
31.65500 201.000
31.67000 214.000
31.68500 202.000
31.70000 212.000
31.71500 221.000
31.73000 226.000
31.74500 221.000
31.76000 182.000
31.77500 187.000
31.79000 173.000
31.80500 181.000
31.82000 193.000
31.83500 215.000
31.85000 196.000
31.86500 200.000
31.88000 209.000
31.89500 183.000
31.91000 190.000
31.92500 187.000
31.94000 183.000
31.95500 188.000
31.97000 200.000
31.98500 204.000
32.00000 177.000
32.01500 190.000
32.03000 171.000
32.04500 184.000
32.06000 187.000
32.07500 195.000
32.09000 192.000
32.10500 193.000
32.12000 191.000
32.13500 187.000
32.15000 189.000
32.16500 184.000
32.18000 183.000
32.19500 189.000
32.21000 190.000
32.22500 191.000
32.24000 188.000
32.25500 195.000
32.27000 181.000
32.28500 196.000
32.30000 188.000
32.31500 183.000
32.33000 176.000
32.34500 177.000
32.36000 166.000
32.37500 177.000
32.39000 181.000
32.40500 174.000
32.42000 182.000
32.43500 171.000
32.45000 160.000
32.46500 181.000
32.48000 187.000
32.49500 187.000
32.51000 182.000
32.52500 183.000
32.54000 188.000
32.55500 168.000
32.57000 166.000
32.58500 175.000
32.60000 170.000
32.61500 194.000
32.63000 177.000
32.64500 174.000
32.66000 152.000
32.67500 142.000
32.69000 149.000
32.70500 160.000
32.72000 188.000
32.73500 189.000
32.75000 192.000
32.76500 167.000
32.78000 151.000
32.79500 172.000
32.81000 175.000
32.82500 178.000
32.84000 167.000
32.85500 200.000
32.87000 161.000
32.88500 173.000
32.90000 188.000
32.91500 205.000
32.93000 189.000
32.94500 183.000
32.96000 181.000
32.97500 171.000
32.99000 176.000
33.00500 156.000
33.02000 170.000
33.03500 177.000
33.05000 187.000
33.06500 164.000
33.08000 167.000
33.09500 170.000
33.11000 184.000
33.12500 188.000
33.14000 161.000
33.15500 187.000
33.17000 177.000
33.18500 179.000
33.20000 175.000
33.21500 205.000
33.23000 166.000
33.24500 155.000
33.26000 160.000
33.27500 186.000
33.29000 177.000
33.30500 170.000
33.32000 173.000
33.33500 166.000
33.35000 161.000
33.36500 177.000
33.38000 172.000
33.39500 180.000
33.41000 172.000
33.42500 172.000
33.44000 187.000
33.45500 179.000
33.47000 160.000
33.48500 166.000
33.50000 165.000
33.51500 155.000
33.53000 150.000
33.54500 181.000
33.56000 184.000
33.57500 172.000
33.59000 166.000
33.60500 172.000
33.62000 166.000
33.63500 189.000
33.65000 182.000
33.66500 201.000
33.68000 173.000
33.69500 178.000
33.71000 185.000
33.72500 173.000
33.74000 156.000
33.75500 196.000
33.77000 184.000
33.78500 175.000
33.80000 170.000
33.81500 169.000
33.83000 191.000
33.84500 164.000
33.86000 176.000
33.87500 204.000
33.89000 171.000
33.90500 185.000
33.92000 182.000
33.93500 180.000
33.95000 182.000
33.96500 176.000
33.98000 168.000
33.99500 168.000
34.01000 170.000
34.02500 176.000
34.04000 174.000
34.05500 169.000
34.07000 191.000
34.08500 168.000
34.10000 175.000
34.11500 155.000
34.13000 169.000
34.14500 176.000
34.16000 159.000
34.17500 158.000
34.19000 157.000
34.20500 158.000
34.22000 156.000
34.23500 155.000
34.25000 172.000
34.26500 158.000
34.28000 145.000
34.29500 155.000
34.31000 153.000
34.32500 175.000
34.34000 172.000
34.35500 158.000
34.37000 171.000
34.38500 165.000
34.40000 168.000
34.41500 158.000
34.43000 145.000
34.44500 159.000
34.46000 146.000
34.47500 159.000
34.49000 177.000
34.50500 175.000
34.52000 159.000
34.53500 152.000
34.55000 168.000
34.56500 174.000
34.58000 155.000
34.59500 151.000
34.61000 150.000
34.62500 162.000
34.64000 159.000
34.65500 168.000
34.67000 177.000
34.68500 146.000
34.70000 152.000
34.71500 162.000
34.73000 143.000
34.74500 145.000
34.76000 151.000
34.77500 166.000
34.79000 156.000
34.80500 152.000
34.82000 157.000
34.83500 167.000
34.85000 146.000
34.86500 159.000
34.88000 146.000
34.89500 143.000
34.91000 156.000
34.92500 154.000
34.94000 166.000
34.95500 152.000
34.97000 138.000
34.98500 137.000
35.00000 155.000
35.01500 137.000
35.03000 151.000
35.04500 146.000
35.06000 159.000
35.07500 172.000
35.09000 145.000
35.10500 143.000
35.12000 139.000
35.13500 159.000
35.15000 144.000
35.16500 140.000
35.18000 137.000
35.19500 154.000
35.21000 137.000
35.22500 134.000
35.24000 141.000
35.25500 159.000
35.27000 145.000
35.28500 142.000
35.30000 137.000
35.31500 152.000
35.33000 136.000
35.34500 139.000
35.36000 138.000
35.37500 136.000
35.39000 149.000
35.40500 150.000
35.42000 147.000
35.43500 157.000
35.45000 138.000
35.46500 132.000
35.48000 123.000
35.49500 129.000
35.51000 133.000
35.52500 138.000
35.54000 153.000
35.55500 136.000
35.57000 149.000
35.58500 137.000
35.60000 124.000
35.61500 140.000
35.63000 143.000
35.64500 144.000
35.66000 153.000
35.67500 148.000
35.69000 137.000
35.70500 147.000
35.72000 142.000
35.73500 137.000
35.75000 131.000
35.76500 131.000
35.78000 142.000
35.79500 133.000
35.81000 129.000
35.82500 154.000
35.84000 157.000
35.85500 149.000
35.87000 138.000
35.88500 134.000
35.90000 126.000
35.91500 143.000
35.93000 123.000
35.94500 133.000
35.96000 142.000
35.97500 145.000
35.99000 140.000
36.00500 140.000
36.02000 133.000
36.03500 137.000
36.05000 126.000
36.06500 127.000
36.08000 137.000
36.09500 149.000
36.11000 144.000
36.12500 127.000
36.14000 130.000
36.15500 141.000
36.17000 131.000
36.18500 133.000
36.20000 136.000
36.21500 134.000
36.23000 123.000
36.24500 137.000
36.26000 138.000
36.27500 120.000
36.29000 132.000
36.30500 133.000
36.32000 143.000
36.33500 137.000
36.35000 137.000
36.36500 114.000
36.38000 120.000
36.39500 132.000
36.41000 134.000
36.42500 144.000
36.44000 132.000
36.45500 136.000
36.47000 128.000
36.48500 138.000
36.50000 126.000
36.51500 124.000
36.53000 144.000
36.54500 121.000
36.56000 129.000
36.57500 118.000
36.59000 134.000
36.60500 130.000
36.62000 129.000
36.63500 142.000
36.65000 119.000
36.66500 116.000
36.68000 117.000
36.69500 134.000
36.71000 131.000
36.72500 130.000
36.74000 142.000
36.75500 144.000
36.77000 108.000
36.78500 120.000
36.80000 139.000
36.81500 123.000
36.83000 121.000
36.84500 122.000
36.86000 133.000
36.87500 118.000
36.89000 122.000
36.90500 138.000
36.92000 128.000
36.93500 125.000
36.95000 125.000
36.96500 120.000
36.98000 131.000
36.99500 118.000
37.01000 133.000
37.02500 130.000
37.04000 123.000
37.05500 128.000
37.07000 137.000
37.08500 148.000
37.10000 136.000
37.11500 136.000
37.13000 130.000
37.14500 125.000
37.16000 112.000
37.17500 127.000
37.19000 141.000
37.20500 104.000
37.22000 122.000
37.23500 127.000
37.25000 124.000
37.26500 114.000
37.28000 127.000
37.29500 127.000
37.31000 125.000
37.32500 108.000
37.34000 124.000
37.35500 116.000
37.37000 121.000
37.38500 124.000
37.40000 119.000
37.41500 135.000
37.43000 129.000
37.44500 123.000
37.46000 132.000
37.47500 134.000
37.49000 135.000
37.50500 140.000
37.52000 145.000
37.53500 148.000
37.55000 142.000
37.56500 147.000
37.58000 145.000
37.59500 137.000
37.61000 136.000
37.62500 132.000
37.64000 146.000
37.65500 124.000
37.67000 115.000
37.68500 108.000
37.70000 127.000
37.71500 116.000
37.73000 140.000
37.74500 119.000
37.76000 118.000
37.77500 118.000
37.79000 114.000
37.80500 129.000
37.82000 109.000
37.83500 116.000
37.85000 109.000
37.86500 118.000
37.88000 125.000
37.89500 114.000
37.91000 113.000
37.92500 121.000
37.94000 124.000
37.95500 138.000
37.97000 128.000
37.98500 133.000
38.00000 137.000
38.01500 111.000
38.03000 120.000
38.04500 123.000
38.06000 136.000
38.07500 143.000
38.09000 136.000
38.10500 125.000
38.12000 118.000
38.13500 120.000
38.15000 127.000
38.16500 117.000
38.18000 108.000
38.19500 119.000
38.21000 109.000
38.22500 113.000
38.24000 105.000
38.25500 115.000
38.27000 122.000
38.28500 117.000
38.30000 120.000
38.31500 116.000
38.33000 113.000
38.34500 135.000
38.36000 141.000
38.37500 120.000
38.39000 127.000
38.40500 143.000
38.42000 134.000
38.43500 116.000
38.45000 121.000
38.46500 122.000
38.48000 124.000
38.49500 127.000
38.51000 117.000
38.52500 115.000
38.54000 112.000
38.55500 118.000
38.57000 112.000
38.58500 114.000
38.60000 115.000
38.61500 127.000
38.63000 118.000
38.64500 119.000
38.66000 110.000
38.67500 121.000
38.69000 107.000
38.70500 107.000
38.72000 131.000
38.73500 129.000
38.75000 118.000
38.76500 116.000
38.78000 123.000
38.79500 98.000
38.81000 117.000
38.82500 90.000
38.84000 110.000
38.85500 123.000
38.87000 127.000
38.88500 107.000
38.90000 112.000
38.91500 133.000
38.93000 121.000
38.94500 117.000
38.96000 120.000
38.97500 108.000
38.99000 110.000
39.00500 118.000
39.02000 115.000
39.03500 111.000
39.05000 110.000
39.06500 103.000
39.08000 113.000
39.09500 119.000
39.11000 111.000
39.12500 119.000
39.14000 133.000
39.15500 126.000
39.17000 129.000
39.18500 129.000
39.20000 133.000
39.21500 104.000
39.23000 100.000
39.24500 117.000
39.26000 119.000
39.27500 116.000
39.29000 113.000
39.30500 110.000
39.32000 110.000
39.33500 108.000
39.35000 120.000
39.36500 121.000
39.38000 121.000
39.39500 128.000
39.41000 131.000
39.42500 114.000
39.44000 107.000
39.45500 111.000
39.47000 114.000
39.48500 108.000
39.50000 109.000
39.51500 115.000
39.53000 131.000
39.54500 109.000
39.56000 109.000
39.57500 125.000
39.59000 154.000
39.60500 131.000
39.62000 123.000
39.63500 110.000
39.65000 107.000
39.66500 110.000
39.68000 112.000
39.69500 123.000
39.71000 100.000
39.72500 108.000
39.74000 119.000
39.75500 130.000
39.77000 132.000
39.78500 123.000
39.80000 123.000
39.81500 107.000
39.83000 109.000
39.84500 118.000
39.86000 123.000
39.87500 119.000
39.89000 117.000
39.90500 129.000
39.92000 140.000
39.93500 125.000
39.95000 130.000
39.96500 115.000
39.98000 117.000
39.99500 111.000
40.01000 119.000
40.02500 111.000
40.04000 112.000
40.05500 121.000
40.07000 107.000
40.08500 118.000
40.10000 122.000
40.11500 119.000
40.13000 115.000
40.14500 115.000
40.16000 123.000
40.17500 126.000
40.19000 117.000
40.20500 138.000
40.22000 115.000
40.23500 117.000
40.25000 131.000
40.26500 109.000
40.28000 109.000
40.29500 128.000
40.31000 131.000
40.32500 134.000
40.34000 137.000
40.35500 127.000
40.37000 116.000
40.38500 117.000
40.40000 129.000
40.41500 126.000
40.43000 121.000
40.44500 125.000
40.46000 122.000
40.47500 136.000
40.49000 126.000
40.50500 129.000
40.52000 135.000
40.53500 113.000
40.55000 126.000
40.56500 136.000
40.58000 132.000
40.59500 145.000
40.61000 135.000
40.62500 129.000
40.64000 121.000
40.65500 126.000
40.67000 123.000
40.68500 123.000
40.70000 111.000
40.71500 117.000
40.73000 114.000
40.74500 122.000
40.76000 129.000
40.77500 128.000
40.79000 130.000
40.80500 116.000
40.82000 120.000
40.83500 123.000
40.85000 128.000
40.86500 118.000
40.88000 132.000
40.89500 133.000
40.91000 120.000
40.92500 122.000
40.94000 137.000
40.95500 118.000
40.97000 130.000
40.98500 139.000
41.00000 128.000
41.01500 136.000
41.03000 120.000
41.04500 132.000
41.06000 119.000
41.07500 124.000
41.09000 124.000
41.10500 127.000
41.12000 127.000
41.13500 137.000
41.15000 154.000
41.16500 137.000
41.18000 130.000
41.19500 127.000
41.21000 129.000
41.22500 125.000
41.24000 124.000
41.25500 125.000
41.27000 134.000
41.28500 126.000
41.30000 122.000
41.31500 132.000
41.33000 126.000
41.34500 123.000
41.36000 117.000
41.37500 120.000
41.39000 127.000
41.40500 123.000
41.42000 149.000
41.43500 132.000
41.45000 114.000
41.46500 118.000
41.48000 110.000
41.49500 104.000
41.51000 107.000
41.52500 125.000
41.54000 128.000
41.55500 113.000
41.57000 123.000
41.58500 124.000
41.60000 121.000
41.61500 120.000
41.63000 120.000
41.64500 104.000
41.66000 105.000
41.67500 132.000
41.69000 122.000
41.70500 136.000
41.72000 124.000
41.73500 110.000
41.75000 111.000
41.76500 125.000
41.78000 118.000
41.79500 123.000
41.81000 120.000
41.82500 116.000
41.84000 105.000
41.85500 117.000
41.87000 127.000
41.88500 111.000
41.90000 116.000
41.91500 126.000
41.93000 97.000
41.94500 129.000
41.96000 132.000
41.97500 125.000
41.99000 116.000
42.00500 122.000
42.02000 110.000
42.03500 126.000
42.05000 102.000
42.06500 101.000
42.08000 126.000
42.09500 116.000
42.11000 125.000
42.12500 120.000
42.14000 119.000
42.15500 119.000
42.17000 110.000
42.18500 108.000
42.20000 116.000
42.21500 108.000
42.23000 115.000
42.24500 109.000
42.26000 134.000
42.27500 121.000
42.29000 109.000
42.30500 128.000
42.32000 135.000
42.33500 118.000
42.35000 128.000
42.36500 109.000
42.38000 111.000
42.39500 114.000
42.41000 121.000
42.42500 136.000
42.44000 120.000
42.45500 103.000
42.47000 109.000
42.48500 119.000
42.50000 124.000
42.51500 114.000
42.53000 122.000
42.54500 123.000
42.56000 113.000
42.57500 115.000
42.59000 124.000
42.60500 113.000
42.62000 110.000
42.63500 116.000
42.65000 104.000
42.66500 120.000
42.68000 116.000
42.69500 107.000
42.71000 136.000
42.72500 151.000
42.74000 131.000
42.75500 132.000
42.77000 124.000
42.78500 120.000
42.80000 117.000
42.81500 127.000
42.83000 129.000
42.84500 118.000
42.86000 132.000
42.87500 136.000
42.89000 122.000
42.90500 108.000
42.92000 121.000
42.93500 113.000
42.95000 107.000
42.96500 128.000
42.98000 122.000
42.99500 122.000
43.01000 114.000
43.02500 109.000
43.04000 129.000
43.05500 113.000
43.07000 107.000
43.08500 126.000
43.10000 110.000
43.11500 113.000
43.13000 117.000
43.14500 122.000
43.16000 128.000
43.17500 130.000
43.19000 119.000
43.20500 106.000
43.22000 125.000
43.23500 122.000
43.25000 124.000
43.26500 115.000
43.28000 123.000
43.29500 108.000
43.31000 128.000
43.32500 116.000
43.34000 112.000
43.35500 101.000
43.37000 109.000
43.38500 107.000
43.40000 117.000
43.41500 127.000
43.43000 123.000
43.44500 109.000
43.46000 107.000
43.47500 121.000
43.49000 105.000
43.50500 93.000
43.52000 109.000
43.53500 119.000
43.55000 121.000
43.56500 118.000
43.58000 107.000
43.59500 126.000
43.61000 138.000
43.62500 121.000
43.64000 107.000
43.65500 115.000
43.67000 118.000
43.68500 110.000
43.70000 130.000
43.71500 116.000
43.73000 111.000
43.74500 128.000
43.76000 125.000
43.77500 123.000
43.79000 113.000
43.80500 119.000
43.82000 121.000
43.83500 120.000
43.85000 122.000
43.86500 120.000
43.88000 135.000
43.89500 112.000
43.91000 116.000
43.92500 129.000
43.94000 126.000
43.95500 111.000
43.97000 120.000
43.98500 111.000
44.00000 120.000
44.01500 115.000
44.03000 123.000
44.04500 136.000
44.06000 126.000
44.07500 135.000
44.09000 133.000
44.10500 138.000
44.12000 118.000
44.13500 125.000
44.15000 125.000
44.16500 125.000
44.18000 125.000
44.19500 129.000
44.21000 131.000
44.22500 125.000
44.24000 124.000
44.25500 121.000
44.27000 126.000
44.28500 119.000
44.30000 108.000
44.31500 129.000
44.33000 131.000
44.34500 134.000
44.36000 129.000
44.37500 136.000
44.39000 140.000
44.40500 116.000
44.42000 136.000
44.43500 137.000
44.45000 114.000
44.46500 128.000
44.48000 125.000
44.49500 122.000
44.51000 127.000
44.52500 107.000
44.54000 114.000
44.55500 111.000
44.57000 134.000
44.58500 133.000
44.60000 133.000
44.61500 134.000
44.63000 125.000
44.64500 131.000
44.66000 117.000
44.67500 113.000
44.69000 102.000
44.70500 104.000
44.72000 112.000
44.73500 116.000
44.75000 115.000
44.76500 110.000
44.78000 134.000
44.79500 121.000
44.81000 118.000
44.82500 116.000
44.84000 124.000
44.85500 136.000
44.87000 113.000
44.88500 119.000
44.90000 115.000
44.91500 130.000
44.93000 118.000
44.94500 126.000
44.96000 116.000
44.97500 109.000
44.99000 129.000
45.00500 141.000
45.02000 118.000
45.03500 104.000
45.05000 107.000
45.06500 122.000
45.08000 127.000
45.09500 129.000
45.11000 123.000
45.12500 124.000
45.14000 111.000
45.15500 101.000
45.17000 111.000
45.18500 105.000
45.20000 100.000
45.21500 126.000
45.23000 110.000
45.24500 111.000
45.26000 107.000
45.27500 115.000
45.29000 125.000
45.30500 124.000
45.32000 130.000
45.33500 113.000
45.35000 109.000
45.36500 109.000
45.38000 96.000
45.39500 96.000
45.41000 129.000
45.42500 117.000
45.44000 105.000
45.45500 98.000
45.47000 93.000
45.48500 103.000
45.50000 93.000
45.51500 113.000
45.53000 112.000
45.54500 131.000
45.56000 123.000
45.57500 117.000
45.59000 99.000
45.60500 105.000
45.62000 139.000
45.63500 118.000
45.65000 115.000
45.66500 119.000
45.68000 105.000
45.69500 109.000
45.71000 102.000
45.72500 114.000
45.74000 129.000
45.75500 107.000
45.77000 116.000
45.78500 128.000
45.80000 113.000
45.81500 108.000
45.83000 109.000
45.84500 128.000
45.86000 112.000
45.87500 100.000
45.89000 113.000
45.90500 122.000
45.92000 109.000
45.93500 115.000
45.95000 119.000
45.96500 117.000
45.98000 110.000
45.99500 110.000
46.01000 110.000
46.02500 111.000
46.04000 115.000
46.05500 108.000
46.07000 123.000
46.08500 109.000
46.10000 99.000
46.11500 92.000
46.13000 122.000
46.14500 119.000
46.16000 112.000
46.17500 118.000
46.19000 132.000
46.20500 111.000
46.22000 112.000
46.23500 117.000
46.25000 122.000
46.26500 116.000
46.28000 105.000
46.29500 118.000
46.31000 126.000
46.32500 105.000
46.34000 111.000
46.35500 119.000
46.37000 116.000
46.38500 120.000
46.40000 106.000
46.41500 100.000
46.43000 114.000
46.44500 110.000
46.46000 121.000
46.47500 116.000
46.49000 121.000
46.50500 110.000
46.52000 111.000
46.53500 110.000
46.55000 110.000
46.56500 99.000
46.58000 107.000
46.59500 109.000
46.61000 107.000
46.62500 105.000
46.64000 111.000
46.65500 115.000
46.67000 114.000
46.68500 123.000
46.70000 124.000
46.71500 127.000
46.73000 121.000
46.74500 125.000
46.76000 109.000
46.77500 112.000
46.79000 120.000
46.80500 118.000
46.82000 124.000
46.83500 135.000
46.85000 120.000
46.86500 111.000
46.88000 128.000
46.89500 126.000
46.91000 115.000
46.92500 111.000
46.94000 119.000
46.95500 126.000
46.97000 123.000
46.98500 113.000
47.00000 116.000
47.01500 108.000
47.03000 111.000
47.04500 118.000
47.06000 144.000
47.07500 115.000
47.09000 104.000
47.10500 112.000
47.12000 96.000
47.13500 106.000
47.15000 100.000
47.16500 100.000
47.18000 112.000
47.19500 114.000
47.21000 110.000
47.22500 115.000
47.24000 111.000
47.25500 114.000
47.27000 110.000
47.28500 105.000
47.30000 104.000
47.31500 84.000
47.33000 115.000
47.34500 112.000
47.36000 113.000
47.37500 107.000
47.39000 109.000
47.40500 109.000
47.42000 100.000
47.43500 99.000
47.45000 102.000
47.46500 115.000
47.48000 117.000
47.49500 129.000
47.51000 111.000
47.52500 113.000
47.54000 112.000
47.55500 110.000
47.57000 107.000
47.58500 104.000
47.60000 101.000
47.61500 95.000
47.63000 102.000
47.64500 104.000
47.66000 94.000
47.67500 108.000
47.69000 111.000
47.70500 111.000
47.72000 109.000
47.73500 108.000
47.75000 117.000
47.76500 112.000
47.78000 97.000
47.79500 110.000
47.81000 95.000
47.82500 97.000
47.84000 100.000
47.85500 122.000
47.87000 113.000
47.88500 91.000
47.90000 100.000
47.91500 116.000
47.93000 111.000
47.94500 122.000
47.96000 98.000
47.97500 85.000
47.99000 100.000
48.00500 101.000
48.02000 106.000
48.03500 101.000
48.05000 113.000
48.06500 96.000
48.08000 98.000
48.09500 98.000
48.11000 106.000
48.12500 94.000
48.14000 98.000
48.15500 99.000
48.17000 114.000
48.18500 92.000
48.20000 108.000
48.21500 104.000
48.23000 92.000
48.24500 110.000
48.26000 100.000
48.27500 120.000
48.29000 104.000
48.30500 101.000
48.32000 100.000
48.33500 101.000
48.35000 97.000
48.36500 93.000
48.38000 91.000
48.39500 101.000
48.41000 116.000
48.42500 102.000
48.44000 90.000
48.45500 87.000
48.47000 93.000
48.48500 96.000
48.50000 102.000
48.51500 111.000
48.53000 102.000
48.54500 100.000
48.56000 97.000
48.57500 102.000
48.59000 103.000
48.60500 98.000
48.62000 99.000
48.63500 94.000
48.65000 93.000
48.66500 119.000
48.68000 103.000
48.69500 110.000
48.71000 103.000
48.72500 90.000
48.74000 103.000
48.75500 110.000
48.77000 103.000
48.78500 86.000
48.80000 89.000
48.81500 86.000
48.83000 91.000
48.84500 85.000
48.86000 93.000
48.87500 105.000
48.89000 109.000
48.90500 103.000
48.92000 97.000
48.93500 86.000
48.95000 108.000
48.96500 92.000
48.98000 87.000
48.99500 110.000
49.01000 108.000
49.02500 116.000
49.04000 107.000
49.05500 103.000
49.07000 110.000
49.08500 119.000
49.10000 113.000
49.11500 108.000
49.13000 96.000
49.14500 96.000
49.16000 103.000
49.17500 109.000
49.19000 98.000
49.20500 104.000
49.22000 102.000
49.23500 113.000
49.25000 111.000
49.26500 124.000
49.28000 109.000
49.29500 107.000
49.31000 97.000
49.32500 103.000
49.34000 116.000
49.35500 129.000
49.37000 112.000
49.38500 104.000
49.40000 109.000
49.41500 92.000
49.43000 111.000
49.44500 98.000
49.46000 90.000
49.47500 97.000
49.49000 104.000
49.50500 111.000
49.52000 109.000
49.53500 112.000
49.55000 124.000
49.56500 96.000
49.58000 92.000
49.59500 119.000
49.61000 111.000
49.62500 107.000
49.64000 114.000
49.65500 106.000
49.67000 116.000
49.68500 107.000
49.70000 98.000
49.71500 111.000
49.73000 98.000
49.74500 100.000
49.76000 101.000
49.77500 92.000
49.79000 97.000
49.80500 103.000
49.82000 95.000
49.83500 105.000
49.85000 93.000
49.86500 87.000
49.88000 105.000
49.89500 103.000
49.91000 96.000
49.92500 89.000
49.94000 87.000
49.95500 91.000
49.97000 109.000
49.98500 95.000
50.00000 85.000
50.01500 103.000
50.03000 98.000
50.04500 98.000
50.06000 125.000
50.07500 103.000
50.09000 98.000
50.10500 105.000
50.12000 98.000
50.13500 102.000
50.15000 99.000
50.16500 103.000
50.18000 108.000
50.19500 122.000
50.21000 104.000
50.22500 97.000
50.24000 106.000
50.25500 94.000
50.27000 92.000
50.28500 98.000
50.30000 95.000
50.31500 98.000
50.33000 93.000
50.34500 101.000
50.36000 98.000
50.37500 101.000
50.39000 99.000
50.40500 95.000
50.42000 102.000
50.43500 91.000
50.45000 91.000
50.46500 93.000
50.48000 98.000
50.49500 115.000
50.51000 120.000
50.52500 98.000
50.54000 99.000
50.55500 92.000
50.57000 95.000
50.58500 94.000
50.60000 87.000
50.61500 80.000
50.63000 83.000
50.64500 114.000
50.66000 98.000
50.67500 104.000
50.69000 102.000
50.70500 96.000
50.72000 94.000
50.73500 92.000
50.75000 99.000
50.76500 89.000
50.78000 96.000
50.79500 93.000
50.81000 100.000
50.82500 101.000
50.84000 102.000
50.85500 95.000
50.87000 87.000
50.88500 94.000
50.90000 93.000
50.91500 108.000
50.93000 109.000
50.94500 100.000
50.96000 90.000
50.97500 93.000
50.99000 112.000
51.00500 97.000
51.02000 106.000
51.03500 96.000
51.05000 105.000
51.06500 103.000
51.08000 93.000
51.09500 91.000
51.11000 89.000
51.12500 100.000
51.14000 100.000
51.15500 114.000
51.17000 92.000
51.18500 105.000
51.20000 102.000
51.21500 94.000
51.23000 110.000
51.24500 102.000
51.26000 104.000
51.27500 87.000
51.29000 102.000
51.30500 95.000
51.32000 104.000
51.33500 104.000
51.35000 95.000
51.36500 99.000
51.38000 88.000
51.39500 116.000
51.41000 110.000
51.42500 99.000
51.44000 97.000
51.45500 106.000
51.47000 110.000
51.48500 97.000
51.50000 96.000
51.51500 101.000
51.53000 102.000
51.54500 102.000
51.56000 83.000
51.57500 93.000
51.59000 85.000
51.60500 96.000
51.62000 99.000
51.63500 89.000
51.65000 79.000
51.66500 96.000
51.68000 104.000
51.69500 89.000
51.71000 101.000
51.72500 102.000
51.74000 113.000
51.75500 93.000
51.77000 91.000
51.78500 93.000
51.80000 89.000
51.81500 111.000
51.83000 100.000
51.84500 93.000
51.86000 97.000
51.87500 105.000
51.89000 108.000
51.90500 93.000
51.92000 101.000
51.93500 102.000
51.95000 84.000
51.96500 101.000
51.98000 103.000
51.99500 113.000
52.01000 102.000
52.02500 96.000
52.04000 110.000
52.05500 110.000
52.07000 96.000
52.08500 112.000
52.10000 123.000
52.11500 119.000
52.13000 93.000
52.14500 111.000
52.16000 108.000
52.17500 108.000
52.19000 97.000
52.20500 93.000
52.22000 94.000
52.23500 103.000
52.25000 95.000
52.26500 99.000
52.28000 89.000
52.29500 106.000
52.31000 103.000
52.32500 91.000
52.34000 93.000
52.35500 97.000
52.37000 89.000
52.38500 90.000
52.40000 95.000
52.41500 95.000
52.43000 101.000
52.44500 94.000
52.46000 96.000
52.47500 96.000
52.49000 93.000
52.50500 93.000
52.52000 96.000
52.53500 93.000
52.55000 103.000
52.56500 102.000
52.58000 81.000
52.59500 94.000
52.61000 111.000
52.62500 88.000
52.64000 100.000
52.65500 88.000
52.67000 84.000
52.68500 90.000
52.70000 102.000
52.71500 100.000
52.73000 106.000
52.74500 97.000
52.76000 91.000
52.77500 96.000
52.79000 95.000
52.80500 106.000
52.82000 110.000
52.83500 96.000
52.85000 94.000
52.86500 102.000
52.88000 102.000
52.89500 83.000
52.91000 86.000
52.92500 97.000
52.94000 92.000
52.95500 85.000
52.97000 109.000
52.98500 82.000
53.00000 91.000
53.01500 102.000
53.03000 97.000
53.04500 101.000
53.06000 97.000
53.07500 98.000
53.09000 111.000
53.10500 101.000
53.12000 101.000
53.13500 105.000
53.15000 109.000
53.16500 91.000
53.18000 104.000
53.19500 102.000
53.21000 98.000
53.22500 89.000
53.24000 89.000
53.25500 98.000
53.27000 106.000
53.28500 122.000
53.30000 101.000
53.31500 92.000
53.33000 101.000
53.34500 110.000
53.36000 109.000
53.37500 102.000
53.39000 100.000
53.40500 104.000
53.42000 110.000
53.43500 113.000
53.45000 107.000
53.46500 88.000
53.48000 85.000
53.49500 86.000
53.51000 86.000
53.52500 104.000
53.54000 97.000
53.55500 91.000
53.57000 95.000
53.58500 98.000
53.60000 86.000
53.61500 104.000
53.63000 113.000
53.64500 109.000
53.66000 97.000
53.67500 93.000
53.69000 100.000
53.70500 106.000
53.72000 115.000
53.73500 96.000
53.75000 94.000
53.76500 92.000
53.78000 99.000
53.79500 96.000
53.81000 107.000
53.82500 97.000
53.84000 86.000
53.85500 92.000
53.87000 81.000
53.88500 104.000
53.90000 105.000
53.91500 102.000
53.93000 108.000
53.94500 91.000
53.96000 94.000
53.97500 89.000
53.99000 92.000
54.00500 103.000
54.02000 105.000
54.03500 92.000
54.05000 104.000
54.06500 106.000
54.08000 93.000
54.09500 99.000
54.11000 99.000
54.12500 81.000
54.14000 87.000
54.15500 104.000
54.17000 117.000
54.18500 116.000
54.20000 106.000
54.21500 103.000
54.23000 92.000
54.24500 91.000
54.26000 89.000
54.27500 85.000
54.29000 96.000
54.30500 88.000
54.32000 102.000
54.33500 102.000
54.35000 107.000
54.36500 93.000
54.38000 99.000
54.39500 102.000
54.41000 99.000
54.42500 99.000
54.44000 97.000
54.45500 93.000
54.47000 86.000
54.48500 92.000
54.50000 88.000
54.51500 89.000
54.53000 94.000
54.54500 83.000
54.56000 109.000
54.57500 102.000
54.59000 103.000
54.60500 111.000
54.62000 116.000
54.63500 111.000
54.65000 96.000
54.66500 98.000
54.68000 97.000
54.69500 94.000
54.71000 89.000
54.72500 96.000
54.74000 101.000
54.75500 100.000
54.77000 120.000
54.78500 113.000
54.80000 124.000
54.81500 120.000
54.83000 110.000
54.84500 119.000
54.86000 108.000
54.87500 90.000
54.89000 99.000
54.90500 109.000
54.92000 96.000
54.93500 100.000
54.95000 118.000
54.96500 91.000
54.98000 101.000
54.99500 111.000
55.01000 111.000
55.02500 114.000
55.04000 101.000
55.05500 111.000
55.07000 105.000
55.08500 87.000
55.10000 96.000
55.11500 103.000
55.13000 89.000
55.14500 93.000
55.16000 100.000
55.17500 104.000
55.19000 104.000
55.20500 94.000
55.22000 100.000
55.23500 104.000
55.25000 107.000
55.26500 105.000
55.28000 105.000
55.29500 103.000
55.31000 99.000
55.32500 86.000
55.34000 102.000
55.35500 97.000
55.37000 103.000
55.38500 84.000
55.40000 99.000
55.41500 97.000
55.43000 89.000
55.44500 95.000
55.46000 104.000
55.47500 101.000
55.49000 96.000
55.50500 81.000
55.52000 73.000
55.53500 94.000
55.55000 102.000
55.56500 93.000
55.58000 110.000
55.59500 103.000
55.61000 107.000
55.62500 100.000
55.64000 93.000
55.65500 103.000
55.67000 105.000
55.68500 93.000
55.70000 100.000
55.71500 110.000
55.73000 93.000
55.74500 99.000
55.76000 120.000
55.77500 106.000
55.79000 102.000
55.80500 113.000
55.82000 89.000
55.83500 97.000
55.85000 88.000
55.86500 89.000
55.88000 92.000
55.89500 92.000
55.91000 109.000
55.92500 91.000
55.94000 100.000
55.95500 98.000
55.97000 107.000
55.98500 90.000
56.00000 83.000
56.01500 106.000
56.03000 103.000
56.04500 91.000
56.06000 102.000
56.07500 99.000
56.09000 93.000
56.10500 99.000
56.12000 89.000
56.13500 99.000
56.15000 115.000
56.16500 124.000
56.18000 109.000
56.19500 101.000
56.21000 94.000
56.22500 92.000
56.24000 92.000
56.25500 98.000
56.27000 97.000
56.28500 79.000
56.30000 84.000
56.31500 102.000
56.33000 98.000
56.34500 103.000
56.36000 99.000
56.37500 104.000
56.39000 83.000
56.40500 89.000
56.42000 95.000
56.43500 98.000
56.45000 99.000
56.46500 101.000
56.48000 102.000
56.49500 95.000
56.51000 105.000
56.52500 111.000
56.54000 108.000
56.55500 109.000
56.57000 106.000
56.58500 121.000
56.60000 94.000
56.61500 96.000
56.63000 96.000
56.64500 83.000
56.66000 82.000
56.67500 108.000
56.69000 108.000
56.70500 106.000
56.72000 95.000
56.73500 103.000
56.75000 107.000
56.76500 94.000
56.78000 101.000
56.79500 106.000
56.81000 92.000
56.82500 106.000
56.84000 98.000
56.85500 105.000
56.87000 100.000
56.88500 87.000
56.90000 87.000
56.91500 103.000
56.93000 104.000
56.94500 109.000
56.96000 114.000
56.97500 105.000
56.99000 103.000
57.00500 101.000
57.02000 105.000
57.03500 109.000
57.05000 95.000
57.06500 89.000
57.08000 88.000
57.09500 95.000
57.11000 115.000
57.12500 106.000
57.14000 104.000
57.15500 90.000
57.17000 87.000
57.18500 98.000
57.20000 104.000
57.21500 87.000
57.23000 87.000
57.24500 98.000
57.26000 98.000
57.27500 116.000
57.29000 96.000
57.30500 105.000
57.32000 93.000
57.33500 100.000
57.35000 92.000
57.36500 99.000
57.38000 109.000
57.39500 108.000
57.41000 106.000
57.42500 102.000
57.44000 94.000
57.45500 99.000
57.47000 97.000
57.48500 107.000
57.50000 90.000
57.51500 86.000
57.53000 95.000
57.54500 104.000
57.56000 104.000
57.57500 92.000
57.59000 107.000
57.60500 104.000
57.62000 93.000
57.63500 79.000
57.65000 93.000
57.66500 87.000
57.68000 84.000
57.69500 101.000
57.71000 92.000
57.72500 89.000
57.74000 93.000
57.75500 103.000
57.77000 101.000
57.78500 90.000
57.80000 82.000
57.81500 95.000
57.83000 74.000
57.84500 103.000
57.86000 96.000
57.87500 88.000
57.89000 93.000
57.90500 92.000
57.92000 85.000
57.93500 90.000
57.95000 87.000
57.96500 106.000
57.98000 102.000
57.99500 88.000
58.01000 83.000
58.02500 88.000
58.04000 85.000
58.05500 87.000
58.07000 81.000
58.08500 88.000
58.10000 75.000
58.11500 80.000
58.13000 78.000
58.14500 85.000
58.16000 77.000
58.17500 84.000
58.19000 98.000
58.20500 83.000
58.22000 88.000
58.23500 82.000
58.25000 84.000
58.26500 96.000
58.28000 101.000
58.29500 83.000
58.31000 81.000
58.32500 104.000
58.34000 90.000
58.35500 88.000
58.37000 83.000
58.38500 88.000
58.40000 75.000
58.41500 77.000
58.43000 90.000
58.44500 86.000
58.46000 77.000
58.47500 84.000
58.49000 91.000
58.50500 87.000
58.52000 102.000
58.53500 101.000
58.55000 88.000
58.56500 87.000
58.58000 91.000
58.59500 84.000
58.61000 88.000
58.62500 85.000
58.64000 86.000
58.65500 90.000
58.67000 92.000
58.68500 95.000
58.70000 80.000
58.71500 79.000
58.73000 90.000
58.74500 73.000
58.76000 92.000
58.77500 86.000
58.79000 79.000
58.80500 67.000
58.82000 70.000
58.83500 81.000
58.85000 82.000
58.86500 83.000
58.88000 82.000
58.89500 71.000
58.91000 74.000
58.92500 76.000
58.94000 91.000
58.95500 80.000
58.97000 86.000
58.98500 79.000
59.00000 103.000
59.01500 93.000
59.03000 93.000
59.04500 86.000
59.06000 84.000
59.07500 101.000
59.09000 86.000
59.10500 88.000
59.12000 88.000
59.13500 86.000
59.15000 87.000
59.16500 93.000
59.18000 87.000
59.19500 87.000
59.21000 76.000
59.22500 90.000
59.24000 80.000
59.25500 80.000
59.27000 89.000
59.28500 73.000
59.30000 87.000
59.31500 86.000
59.33000 94.000
59.34500 90.000
59.36000 85.000
59.37500 94.000
59.39000 82.000
59.40500 81.000
59.42000 106.000
59.43500 98.000
59.45000 83.000
59.46500 82.000
59.48000 86.000
59.49500 83.000
59.51000 87.000
59.52500 86.000
59.54000 85.000
59.55500 85.000
59.57000 82.000
59.58500 83.000
59.60000 81.000
59.61500 80.000
59.63000 72.000
59.64500 85.000
59.66000 78.000
59.67500 76.000
59.69000 80.000
59.70500 88.000
59.72000 93.000
59.73500 78.000
59.75000 78.000
59.76500 82.000
59.78000 73.000
59.79500 78.000
59.81000 75.000
59.82500 84.000
59.84000 85.000
59.85500 84.000
59.87000 92.000
59.88500 80.000
59.90000 83.000
59.91500 90.000
59.93000 89.000
59.94500 83.000
59.96000 101.000
59.97500 82.000
59.99000 74.000
60.00500 79.000
60.02000 80.000
60.03500 89.000
60.05000 79.000
60.06500 77.000
60.08000 76.000
60.09500 97.000
60.11000 83.000
60.12500 85.000
60.14000 84.000
60.15500 102.000
60.17000 77.000
60.18500 81.000
60.20000 75.000
60.21500 78.000
60.23000 72.000
60.24500 80.000
60.26000 86.000
60.27500 93.000
60.29000 93.000
60.30500 69.000
60.32000 81.000
60.33500 78.000
60.35000 83.000
60.36500 74.000
60.38000 79.000
60.39500 75.000
60.41000 81.000
60.42500 88.000
60.44000 87.000
60.45500 81.000
60.47000 92.000
60.48500 89.000
60.50000 77.000
60.51500 87.000
60.53000 84.000
60.54500 69.000
60.56000 85.000
60.57500 84.000
60.59000 86.000
60.60500 75.000
60.62000 79.000
60.63500 84.000
60.65000 74.000
60.66500 82.000
60.68000 88.000
60.69500 78.000
60.71000 94.000
60.72500 87.000
60.74000 78.000
60.75500 82.000
60.77000 81.000
60.78500 77.000
60.80000 92.000
60.81500 85.000
60.83000 75.000
60.84500 72.000
60.86000 75.000
60.87500 78.000
60.89000 78.000
60.90500 85.000
60.92000 82.000
60.93500 87.000
60.95000 89.000
60.96500 85.000
60.98000 78.000
60.99500 73.000
61.01000 85.000
61.02500 80.000
61.04000 78.000
61.05500 76.000
61.07000 81.000
61.08500 70.000
61.10000 76.000
61.11500 81.000
61.13000 83.000
61.14500 88.000
61.16000 80.000
61.17500 72.000
61.19000 78.000
61.20500 73.000
61.22000 79.000
61.23500 78.000
61.25000 86.000
61.26500 77.000
61.28000 91.000
61.29500 77.000
61.31000 81.000
61.32500 77.000
61.34000 78.000
61.35500 79.000
61.37000 75.000
61.38500 82.000
61.40000 70.000
61.41500 74.000
61.43000 76.000
61.44500 73.000
61.46000 71.000
61.47500 77.000
61.49000 78.000
61.50500 87.000
61.52000 76.000
61.53500 89.000
61.55000 70.000
61.56500 81.000
61.58000 80.000
61.59500 82.000
61.61000 81.000
61.62500 66.000
61.64000 72.000
61.65500 81.000
61.67000 75.000
61.68500 68.000
61.70000 74.000
61.71500 79.000
61.73000 75.000
61.74500 83.000
61.76000 73.000
61.77500 83.000
61.79000 87.000
61.80500 86.000
61.82000 79.000
61.83500 85.000
61.85000 89.000
61.86500 77.000
61.88000 80.000
61.89500 77.000
61.91000 67.000
61.92500 79.000
61.94000 75.000
61.95500 71.000
61.97000 84.000
61.98500 88.000
